376.727999998,8.0
376.728999998,5.0
376.729999998,1.0
376.730999998,0.0
376.731999998,7.0
376.732999998,0.0
376.733999998,3.0
376.734999998,3.0
376.735999998,8.0
376.736999998,0.0
376.737999998,3.0
376.738999998,1.0
376.739999998,6.0
376.740999998,1.0
376.741999998,1.0
376.742999998,3.0
376.743999998,5.0
376.744999998,4.0
376.745999998,8.0
376.746999998,7.0
376.747999998,1.0
376.748999998,9.0
376.749999998,0.0
376.750999998,0.0
376.751999998,0.0
376.752999998,6.0
376.753999998,9.0
376.754999998,3.0
376.755999998,1.0
376.756999998,8.0
376.757999998,0.0
376.758999998,6.0
376.759999998,3.0
376.760999998,3.0
376.761999998,1551.0
376.762999998,4064.0
376.763999998,4067.0
376.764999998,7.0
376.765999998,1.0
376.766999998,2.0
376.767999998,4.0
376.768999998,9.0
376.769999998,4059.0
376.770999998,4064.0
376.771999998,4067.0
376.772999998,6.0
376.773999998,11.0
376.774999998,0.0
376.775999998,4.0
376.776999998,4061.0
376.777999998,4061.0
376.778999998,4068.0
376.779999998,4064.0
376.780999998,1.0
376.781999998,10.0
376.782999998,12.0
376.783999998,0.0
376.784999998,4062.0
376.785999998,4063.0
376.786999998,4066.0
376.787999998,4060.0
376.788999998,5.0
376.789999998,5.0
376.790999998,8.0
376.791999998,3500.0
376.792999998,4063.0
376.793999998,4069.0
376.794999998,4063.0
376.795999998,4061.0
376.796999998,8.0
376.797999998,13.0
376.798999998,10.0
376.799999998,4064.0
376.800999998,4061.0
376.801999998,4068.0
376.802999998,4061.0
376.803999998,4064.0
376.804999998,7.0
376.805999998,14.0
376.806999998,9.0
376.807999998,4062.0
376.808999998,4063.0
376.809999998,4074.0
376.810999998,4074.0
376.811999998,9.0
376.812999998,6.0
376.813999998,3.0
376.814999998,3.0
376.815999998,16.0
376.816999998,4075.0
376.817999998,4064.0
376.818999998,4074.0
376.819999998,16.0
376.820999998,9.0
376.821999998,12.0
376.822999998,10.0
376.823999998,4064.0
376.824999998,4068.0
376.825999998,4066.0
376.826999998,4069.0
376.827999998,4062.0
376.828999998,7.0
376.829999998,14.0
376.830999998,1290.0
376.831999998,4068.0
376.832999998,4069.0
376.833999998,4071.0
376.834999998,4071.0
376.835999998,4070.0
376.836999998,4062.0
376.837999998,4070.0
376.838999998,4070.0
376.839999998,4076.0
376.840999998,4079.0
376.841999998,4075.0
376.842999998,4077.0
376.843999998,4067.0
376.844999998,4070.0
376.845999998,4065.0
376.846999998,4077.0
376.847999998,4073.0
376.848999998,4077.0
376.849999998,4071.0
376.850999998,4072.0
376.851999998,4068.0
376.852999998,4076.0
376.853999998,4070.0
376.854999998,4077.0
376.855999998,4073.0
376.856999998,4078.0
376.857999998,4077.0
376.858999998,4072.0
376.859999998,4068.0
376.860999998,4071.0
376.861999998,4075.0
376.862999998,4074.0
376.863999998,4070.0
376.864999998,4065.0
376.865999998,4068.0
376.866999998,4067.0
376.867999998,4074.0
376.868999998,4076.0
376.869999998,4069.0
376.870999998,4077.0
376.871999998,4076.0
376.872999998,4071.0
376.873999998,4079.0
376.874999998,4070.0
376.875999998,4072.0
376.876999998,4071.0
376.877999998,4070.0
376.878999998,4068.0
376.879999998,4069.0
376.880999998,4073.0
376.881999998,4078.0
376.882999998,4084.0
376.883999998,4081.0
376.884999998,4077.0
376.885999998,4069.0
376.886999998,4076.0
376.887999998,4079.0
376.888999998,4077.0
376.889999998,4078.0
376.890999998,4095.0
376.891999998,4077.0
376.892999998,4037.0
376.893999998,4089.0
376.894999998,4073.0
376.895999998,4071.0
376.896999998,4077.0
376.897999998,4082.0
376.898999998,4080.0
376.899999998,4070.0
376.900999998,4079.0
376.901999998,4074.0
376.902999998,4078.0
376.903999998,4081.0
376.904999998,4073.0
376.905999998,4079.0
376.906999998,4079.0
376.907999998,4077.0
376.908999998,4082.0
376.909999998,4073.0
376.910999998,4081.0
376.911999998,4076.0
376.912999998,4080.0
376.913999998,4073.0
376.914999998,4076.0
376.915999998,4075.0
376.916999998,4072.0
376.917999998,4077.0
376.918999998,4069.0
376.919999998,4075.0
376.920999998,4079.0
376.921999998,4083.0
376.922999998,4081.0
376.923999998,4077.0
376.924999998,4077.0
376.925999998,4077.0
376.926999998,4081.0
376.927999998,4082.0
376.928999998,4080.0
376.929999998,4080.0
376.930999998,4073.0
376.931999998,4072.0
376.932999998,4082.0
376.933999998,4082.0
376.934999998,4074.0
376.935999998,4083.0
376.936999998,4078.0
376.937999998,4082.0
376.938999998,4074.0
376.939999998,4073.0
376.940999998,4082.0
376.941999998,4073.0
376.942999998,4073.0
376.943999998,4091.0
376.944999998,4094.0
376.945999998,4079.0
376.946999998,4083.0
376.947999998,4079.0
376.948999998,4056.0
376.949999998,4074.0
376.950999998,4042.0
376.951999998,4073.0
376.952999998,4095.0
376.953999998,4066.0
376.954999998,4072.0
376.955999998,4083.0
376.956999998,4092.0
376.957999998,4072.0
376.958999998,4066.0
376.959999998,4074.0
376.960999998,4079.0
376.961999998,4078.0
376.962999998,4080.0
376.963999998,4076.0
376.964999998,4081.0
376.965999998,4084.0
376.966999998,4074.0
376.967999998,4079.0
376.968999998,4083.0
376.969999998,4078.0
376.970999998,4079.0
376.971999998,4074.0
376.972999998,4073.0
376.973999998,4075.0
376.974999998,4075.0
376.975999998,4081.0
376.976999998,4085.0
376.977999998,4074.0
376.978999998,4077.0
376.979999998,4075.0
376.980999998,4079.0
376.981999998,4081.0
376.982999998,4081.0
376.983999998,4074.0
376.984999998,4079.0
376.985999998,4080.0
376.986999998,4079.0
376.987999998,4081.0
376.988999998,4075.0
376.989999998,4075.0
376.990999998,4083.0
376.991999998,4079.0
376.992999998,4080.0
376.993999998,4076.0
376.994999998,4084.0
376.995999998,4074.0
376.996999998,4076.0
376.997999998,4076.0
376.998999998,4076.0
376.999999998,4082.0
377.000999998,4082.0
377.001999998,4081.0
377.002999998,4081.0
377.003999998,4075.0
377.004999998,4078.0
377.005999998,4077.0
377.006999998,4081.0
377.007999998,4077.0
377.008999998,4081.0
377.009999998,4084.0
377.010999998,4082.0
377.011999998,4075.0
377.012999998,4084.0
377.013999998,4083.0
377.014999998,4075.0
377.015999998,4079.0
377.016999998,4075.0
377.017999998,4073.0
377.018999998,4083.0
377.019999998,4077.0
377.020999998,4077.0
377.021999998,4078.0
377.022999998,4083.0
377.023999998,4080.0
377.024999998,4078.0
377.025999998,4074.0
377.026999998,4074.0
377.027999998,4085.0
377.028999998,4077.0
377.029999998,4077.0
377.030999998,4079.0
377.031999998,4079.0
377.032999998,4077.0
377.033999998,4080.0
377.034999998,4080.0
377.035999998,4074.0
377.036999998,4081.0
377.037999998,4075.0
377.038999998,4077.0
377.039999998,4074.0
377.040999998,4083.0
377.041999998,4082.0
377.042999998,4082.0
377.043999998,4084.0
377.044999998,4074.0
377.045999998,4084.0
377.046999998,4077.0
377.047999998,4074.0
377.048999998,4075.0
377.049999998,4083.0
377.050999998,4085.0
377.051999998,4074.0
377.052999998,4080.0
377.053999998,3798.0
377.054999998,26.0
377.055999998,15.0
377.056999998,18.0
377.057999998,24.0
377.058999998,21.0
377.059999998,15.0
377.060999998,23.0
377.061999998,23.0
377.062999998,14.0
377.063999998,22.0
377.064999998,20.0
377.065999998,21.0
377.066999998,20.0
377.067999998,15.0
377.068999998,20.0
377.069999998,18.0
377.070999998,15.0
377.071999998,14.0
377.072999998,21.0
377.073999998,15.0
377.074999998,15.0
377.075999998,17.0
377.076999998,10.0
377.077999998,7.0
377.078999998,18.0
377.079999998,13.0
377.080999998,12.0
377.081999998,8.0
377.082999998,9.0
377.083999998,15.0
377.084999998,11.0
377.085999998,12.0
377.086999998,10.0
377.087999998,9.0
377.088999998,3685.0
377.089999998,4071.0
377.090999998,4072.0
377.091999998,4066.0
377.092999998,4071.0
377.093999998,4074.0
377.094999998,4069.0
377.095999998,4069.0
377.096999998,4067.0
377.097999998,4067.0
377.098999998,4073.0
377.099999998,4075.0
377.100999998,4066.0
377.101999998,4074.0
377.102999998,4070.0
377.103999998,4076.0
377.104999998,4066.0
377.105999998,4077.0
377.106999998,4071.0
377.107999998,4067.0
377.108999998,4077.0
377.109999998,4067.0
377.110999998,4071.0
377.111999998,4077.0
377.112999998,4068.0
377.113999998,4071.0
377.114999998,4074.0
377.115999998,4068.0
377.116999998,4073.0
377.117999998,4071.0
377.118999998,4073.0
377.119999998,4071.0
377.120999998,75.0
377.121999998,16.0
377.122999998,430.0
377.123999998,3352.0
377.124999998,4073.0
377.125999998,4079.0
377.126999998,4069.0
377.127999998,4076.0
377.128999998,4078.0
377.129999998,4076.0
377.130999998,4072.0
377.131999998,4077.0
377.132999998,4071.0
377.133999998,4071.0
377.134999998,4076.0
377.135999998,4070.0
377.136999998,4071.0
377.137999998,4077.0
377.138999998,4072.0
377.139999998,4071.0
377.140999998,4072.0
377.141999998,4075.0
377.142999998,4082.0
377.143999998,4069.0
377.144999998,4072.0
377.145999998,4077.0
377.146999998,4081.0
377.147999998,4072.0
377.148999998,4079.0
377.149999998,4083.0
377.150999998,4075.0
377.151999998,4073.0
377.152999998,4071.0
377.153999998,4078.0
377.154999998,4081.0
377.155999998,4075.0
377.156999998,4077.0
377.157999998,4076.0
377.158999998,4078.0
377.159999998,4072.0
377.160999998,4071.0
377.161999998,4079.0
377.162999998,4075.0
377.163999998,4081.0
377.164999998,4079.0
377.165999998,4081.0
377.166999998,4080.0
377.167999998,4072.0
377.168999998,4081.0
377.169999998,4076.0
377.170999998,4075.0
377.171999998,4073.0
377.172999998,4071.0
377.173999998,4074.0
377.174999998,4072.0
377.175999998,4074.0
377.176999998,4084.0
377.177999998,4081.0
377.178999998,4073.0
377.179999998,4072.0
377.180999998,4072.0
377.181999998,4082.0
377.182999998,4072.0
377.183999998,4074.0
377.184999998,4076.0
377.185999998,4075.0
377.186999998,4076.0
377.187999998,4076.0
377.188999998,4080.0
377.189999998,4080.0
377.190999998,4081.0
377.191999998,4074.0
377.192999998,4079.0
377.193999998,4077.0
377.194999998,4075.0
377.195999998,4083.0
377.196999998,4074.0
377.197999998,4081.0
377.198999998,4080.0
377.199999998,4074.0
377.200999998,4077.0
377.201999998,4076.0
377.202999998,4078.0
377.203999998,4075.0
377.204999998,4072.0
377.205999998,4082.0
377.206999998,4077.0
377.207999998,4082.0
377.208999998,4084.0
377.209999998,4084.0
377.210999998,4073.0
377.211999998,4079.0
377.212999998,4075.0
377.213999998,4083.0
377.214999998,4075.0
377.215999998,4082.0
377.216999998,4076.0
377.217999998,4080.0
377.218999998,4084.0
377.219999998,4081.0
377.220999998,4084.0
377.221999998,4081.0
377.222999998,4079.0
377.223999998,4074.0
377.224999998,4078.0
377.225999998,4080.0
377.226999998,4079.0
377.227999998,4081.0
377.228999998,4082.0
377.229999998,4078.0
377.230999998,4084.0
377.231999998,4077.0
377.232999998,4075.0
377.233999998,4075.0
377.234999998,4075.0
377.235999998,4073.0
377.236999998,4077.0
377.237999998,4079.0
377.238999998,4076.0
377.239999998,4075.0
377.240999998,4075.0
377.241999998,4073.0
377.242999998,4081.0
377.243999998,4072.0
377.244999998,4083.0
377.245999998,4075.0
377.246999998,4070.0
377.247999998,4081.0
377.248999998,4074.0
377.249999998,4080.0
377.250999998,4077.0
377.251999998,4076.0
377.252999998,4079.0
377.253999998,4077.0
377.254999998,4084.0
377.255999998,4084.0
377.256999998,4082.0
377.257999998,4077.0
377.258999998,4085.0
377.259999998,4074.0
377.260999998,4086.0
377.261999998,4084.0
377.262999998,4083.0
377.263999998,4076.0
377.264999998,4074.0
377.265999998,4076.0
377.266999998,4070.0
377.267999998,4085.0
377.268999998,4094.0
377.269999998,4085.0
377.270999998,4076.0
377.271999998,4075.0
377.272999998,4077.0
377.273999998,4075.0
377.274999998,4078.0
377.275999998,4074.0
377.276999998,4075.0
377.277999998,4080.0
377.278999998,4072.0
377.279999998,4034.0
377.280999998,3981.0
377.281999998,4078.0
377.282999998,4076.0
377.283999998,4084.0
377.284999998,4087.0
377.285999998,4076.0
377.286999998,4085.0
377.287999998,4081.0
377.288999998,4087.0
377.289999998,4085.0
377.290999998,4081.0
377.291999998,4083.0
377.292999998,4079.0
377.293999998,4074.0
377.294999998,4080.0
377.295999998,4083.0
377.296999998,4084.0
377.297999998,4074.0
377.298999998,4095.0
377.299999998,4082.0
377.300999998,4081.0
377.301999998,4081.0
377.302999998,4077.0
377.303999998,4076.0
377.304999998,4081.0
377.305999998,4079.0
377.306999998,4083.0
377.307999998,4076.0
377.308999998,4084.0
377.309999998,4075.0
377.310999998,4075.0
377.311999998,4077.0
377.312999998,4078.0
377.313999998,4075.0
377.314999998,4083.0
377.315999998,4082.0
377.316999998,4084.0
377.317999998,4076.0
377.318999998,4076.0
377.319999998,4080.0
377.320999998,4078.0
377.321999998,4083.0
377.322999998,4073.0
377.323999998,4077.0
377.324999998,4075.0
377.325999998,4075.0
377.326999998,4074.0
377.327999998,4084.0
377.328999998,4075.0
377.329999998,4074.0
377.330999998,4083.0
377.331999998,4084.0
377.332999998,4073.0
377.333999998,4075.0
377.334999998,4076.0
377.335999998,4075.0
377.336999998,4077.0
377.337999998,4075.0
377.338999998,4076.0
377.339999998,4086.0
377.340999998,4080.0
377.341999998,4084.0
377.342999998,4077.0
377.343999998,4073.0
377.344999998,4080.0
377.345999998,4076.0
377.346999998,4085.0
377.347999998,4082.0
377.348999998,4086.0
377.349999998,4076.0
377.350999998,4084.0
377.351999998,4078.0
377.352999998,4075.0
377.353999998,4074.0
377.354999998,4078.0
377.355999998,4083.0
377.356999998,4075.0
377.357999998,4081.0
377.358999998,4076.0
377.359999998,4074.0
377.360999998,4081.0
377.361999998,4080.0
377.362999998,4083.0
377.363999998,4075.0
377.364999998,4082.0
377.365999998,4077.0
377.366999998,4083.0
377.367999998,4079.0
377.368999998,4075.0
377.369999998,4078.0
377.370999998,4076.0
377.371999998,4074.0
377.372999998,4076.0
377.373999998,4080.0
377.374999998,4078.0
377.375999998,4078.0
377.376999998,4083.0
377.377999998,4083.0
377.378999998,4073.0
377.379999998,4079.0
377.380999998,4081.0
377.381999998,4077.0
377.382999998,4076.0
377.383999998,4084.0
377.384999998,4074.0
377.385999998,4082.0
377.386999998,4013.0
377.387999998,3807.0
377.388999998,3570.0
377.389999998,3320.0
377.390999998,3163.0
377.391999998,3009.0
377.392999998,2831.0
377.393999998,2641.0
377.394999998,2389.0
377.395999998,2153.0
377.396999998,1920.0
377.397999998,1692.0
377.398999998,1537.0
377.399999998,1415.0
377.400999998,1318.0
377.401999998,1175.0
377.402999998,985.0
377.403999998,799.0
377.404999998,634.0
377.405999998,483.0
377.406999998,431.0
377.407999998,337.0
377.408999998,272.0
377.409999998,177.0
377.410999998,49.0
377.411999998,19.0
377.412999998,27.0
377.413999998,17.0
377.414999998,17.0
377.415999998,11.0
377.416999998,20.0
377.417999998,20.0
377.418999998,11.0
377.419999998,20.0
377.420999998,17.0
377.421999998,10.0
377.422999998,18.0
377.423999998,17.0
377.424999998,13.0
377.425999998,7.0
377.426999998,2.0
377.427999998,12.0
377.428999998,15.0
377.429999998,6.0
377.430999998,20.0
377.431999998,11.0
377.432999998,9.0
377.433999998,19.0
377.434999998,11.0
377.435999998,8.0
377.436999998,17.0
377.437999998,16.0
377.438999998,17.0
377.439999998,14.0
377.440999998,11.0
377.441999998,16.0
377.442999998,18.0
377.443999998,7.0
377.444999998,16.0
377.445999998,16.0
377.446999998,10.0
377.447999998,13.0
377.448999998,17.0
377.449999998,8.0
377.450999998,13.0
377.451999998,15.0
377.452999998,15.0
377.453999998,6.0
377.454999998,7.0
377.455999998,7.0
377.456999998,5.0
377.457999998,10.0
377.458999998,14.0
377.459999998,5.0
377.460999998,11.0
377.461999998,9.0
377.462999998,6.0
377.463999998,13.0
377.464999998,13.0
377.465999998,4.0
377.466999998,4.0
377.467999998,12.0
377.468999998,6.0
377.469999998,15.0
377.470999998,7.0
377.471999998,11.0
377.472999998,11.0
377.473999998,8.0
377.474999998,14.0
377.475999998,14.0
377.476999998,3.0
377.477999998,4.0
377.478999998,12.0
377.479999998,12.0
377.480999998,4.0
377.481999998,11.0
377.482999998,12.0
377.483999998,13.0
377.484999998,9.0
377.485999998,10.0
377.486999998,9.0
377.487999998,6.0
377.488999998,8.0
377.489999998,7.0
377.490999998,11.0
377.491999998,3.0
377.492999998,3.0
377.493999998,3.0
377.494999998,12.0
377.495999998,13.0
377.496999998,3.0
377.497999998,9.0
377.498999998,9.0
377.499999998,6.0
377.500999998,6.0
377.501999998,9.0
377.502999998,14.0
377.503999998,1.0
377.504999998,1.0
377.505999998,7.0
377.506999998,11.0
377.507999998,9.0
377.508999998,9.0
377.509999998,2.0
377.510999998,2.0
377.511999998,9.0
377.512999998,6.0
377.513999998,2.0
377.514999998,0.0
377.515999998,0.0
377.516999998,11.0
377.517999998,2.0
377.518999998,9.0
377.519999998,9.0
377.520999998,9.0
377.521999998,0.0
377.522999998,2.0
377.523999998,1.0
377.524999998,1.0
377.525999998,7.0
377.526999998,9.0
377.527999998,7.0
377.528999998,11.0
377.529999998,7.0
377.530999998,0.0
377.531999998,2.0
377.532999998,4.0
377.533999998,9.0
377.534999998,3.0
377.535999998,10.0
377.536999998,3.0
377.537999998,4.0
377.538999998,6.0
377.539999998,10.0
377.540999998,0.0
377.541999998,9.0
377.542999998,4.0
377.543999998,1.0
377.544999998,10.0
377.545999998,10.0
377.546999998,4.0
377.547999998,3.0
377.548999998,7.0
377.549999998,8.0
377.550999998,4.0
377.551999998,11.0
377.552999998,3.0
377.553999998,7.0
377.554999998,1.0
377.555999998,9.0
377.556999998,0.0
377.557999998,1.0
377.558999998,6.0
377.559999998,11.0
377.560999998,0.0
377.561999998,4.0
377.562999998,1.0
377.563999998,1.0
377.564999998,9.0
377.565999998,7.0
377.566999998,5.0
377.567999998,4.0
377.568999998,11.0
377.569999998,1.0
377.570999998,11.0
377.571999998,5.0
377.572999998,0.0
377.573999998,1.0
377.574999998,2.0
377.575999998,0.0
377.576999998,0.0
377.577999998,2.0
377.578999998,0.0
377.579999998,7.0
377.580999998,3.0
377.581999998,9.0
377.582999998,9.0
377.583999998,0.0
377.584999998,8.0
377.585999998,6.0
377.586999998,7.0
377.587999998,9.0
377.588999998,0.0
377.589999998,8.0
377.590999998,2.0
377.591999998,0.0
377.592999998,9.0
377.593999998,0.0
377.594999998,1.0
377.595999998,0.0
377.596999998,4.0
377.597999998,9.0
377.598999998,8.0
377.599999998,0.0
377.600999998,9.0
377.601999998,0.0
377.602999998,6.0
377.603999998,5.0
377.604999998,10.0
377.605999998,0.0
377.606999998,3.0
377.607999998,5.0
377.608999998,9.0
377.609999998,3.0
377.610999998,0.0
377.611999998,8.0
377.612999998,0.0
377.613999998,3.0
377.614999998,9.0
377.615999998,5.0
377.616999998,0.0
377.617999998,7.0
377.618999998,3.0
377.619999998,5.0
377.620999998,0.0
377.621999998,5.0
377.622999998,0.0
377.623999998,3.0
377.624999998,7.0
377.625999998,9.0
377.626999998,10.0
377.627999998,4.0
377.628999998,3.0
377.629999998,2.0
377.630999998,10.0
377.631999998,7.0
377.632999998,5.0
377.633999998,3.0
377.634999998,8.0
377.635999998,5.0
377.636999998,0.0
377.637999998,10.0
377.638999998,0.0
377.639999998,7.0
377.640999998,5.0
377.641999998,3.0
377.642999998,2.0
377.643999998,8.0
377.644999998,8.0
377.645999998,0.0
377.646999998,0.0
377.647999998,7.0
377.648999998,8.0
377.649999998,0.0
377.650999998,0.0
377.651999998,0.0
377.652999998,5.0
377.653999998,0.0
377.654999998,0.0
377.655999998,6.0
377.656999998,10.0
377.657999998,5.0
377.658999998,14.0
377.659999998,0.0
377.660999998,14.0
377.661999998,6.0
377.662999998,2.0
377.663999998,9.0
377.664999998,2.0
377.665999998,9.0
377.666999998,8.0
377.667999998,5.0
377.668999998,0.0
377.669999998,7.0
377.670999998,8.0
377.671999998,6.0
377.672999998,5.0
377.673999998,1.0
377.674999998,8.0
377.675999998,0.0
377.676999998,9.0
377.677999998,9.0
377.678999998,7.0
377.679999998,0.0
377.680999998,5.0
377.681999998,5.0
377.682999998,2.0
377.683999998,8.0
377.684999998,10.0
377.685999998,0.0
377.686999998,0.0
377.687999998,0.0
377.688999998,0.0
377.689999998,3.0
377.690999998,6.0
377.691999998,0.0
377.692999998,0.0
377.693999998,0.0
377.694999998,4.0
377.695999998,1.0
377.696999998,5.0
377.697999998,0.0
377.698999998,2.0
377.699999998,1.0
377.700999998,0.0
377.701999998,3.0
377.702999998,3.0
377.703999998,0.0
377.704999998,8.0
377.705999998,0.0
377.706999998,8.0
377.707999998,7.0
377.708999998,0.0
377.709999998,0.0
377.710999998,0.0
377.711999998,0.0
377.712999998,0.0
377.713999998,0.0
377.714999998,3.0
377.715999998,2.0
377.716999998,8.0
377.717999998,6.0
377.718999998,4.0
377.719999998,3.0
377.720999998,1.0
377.721999998,0.0
377.722999998,0.0
377.723999998,0.0
377.724999998,9.0
377.725999998,0.0
377.726999998,2.0
377.727999998,3.0
377.728999998,8.0
377.729999998,0.0
377.730999998,0.0
377.731999998,0.0
377.732999998,0.0
377.733999998,7.0
377.734999998,0.0
377.735999998,3.0
377.736999998,0.0
377.737999998,3.0
377.738999998,1.0
377.739999998,7.0
377.740999998,2.0
377.741999998,7.0
377.742999998,2.0
377.743999998,0.0
377.744999998,2.0
377.745999998,0.0
377.746999998,6.0
377.747999998,0.0
377.748999998,4.0
377.749999998,0.0
377.750999998,0.0
377.751999998,0.0
377.752999998,1.0
377.753999998,1.0
377.754999998,3.0
377.755999998,4.0
377.756999998,0.0
377.757999998,8.0
377.758999998,0.0
377.759999998,3.0
377.760999998,0.0
377.761999998,0.0
377.762999998,0.0
377.763999998,0.0
377.764999998,0.0
377.765999998,0.0
377.766999998,0.0
377.767999998,0.0
377.768999998,1.0
377.769999998,1.0
377.770999998,0.0
377.771999998,4.0
377.772999998,9.0
377.773999998,5.0
377.774999998,8.0
377.775999998,0.0
377.776999998,0.0
377.777999998,6.0
377.778999998,8.0
377.779999998,9.0
377.780999998,0.0
377.781999998,1.0
377.782999998,1.0
377.783999998,3.0
377.784999998,6.0
377.785999998,1.0
377.786999998,0.0
377.787999998,0.0
377.788999998,1.0
377.789999998,0.0
377.790999998,8.0
377.791999998,6.0
377.792999998,5.0
377.793999998,5.0
377.794999998,0.0
377.795999998,6.0
377.796999998,0.0
377.797999998,7.0
377.798999998,0.0
377.799999998,2.0
377.800999998,1.0
377.801999998,0.0
377.802999998,8.0
377.803999998,0.0
377.804999998,3.0
377.805999998,0.0
377.806999998,5.0
377.807999998,7.0
377.808999998,1.0
377.809999998,2.0
377.810999998,1.0
377.811999998,0.0
377.812999998,7.0
377.813999998,5.0
377.814999998,9.0
377.815999998,8.0
377.816999998,3.0
377.817999998,8.0
377.818999998,7.0
377.819999998,6.0
377.820999998,11.0
377.821999998,0.0
377.822999998,0.0
377.823999998,0.0
377.824999998,0.0
377.825999998,0.0
377.826999998,6.0
377.827999998,8.0
377.828999998,5.0
377.829999998,0.0
377.830999998,6.0
377.831999998,6.0
377.832999998,5.0
377.833999998,6.0
377.834999998,2.0
377.835999998,4.0
377.836999998,0.0
377.837999998,0.0
377.838999998,5.0
377.839999998,0.0
377.840999998,7.0
377.841999998,0.0
377.842999998,7.0
377.843999998,0.0
377.844999998,7.0
377.845999998,1.0
377.846999998,5.0
377.847999998,5.0
377.848999998,18.0
377.849999998,118.0
377.850999998,177.0
377.851999998,198.0
377.852999998,187.0
377.853999998,88.0
377.854999998,28.0
377.855999998,16.0
377.856999998,0.0
377.857999998,2.0
377.858999998,0.0
377.859999998,0.0
377.860999998,3.0
377.861999998,0.0
377.862999998,0.0
377.863999998,3.0
377.864999998,8.0
377.865999998,6.0
377.866999998,2.0
377.867999998,7.0
377.868999998,12.0
377.869999998,3.0
377.870999998,0.0
377.871999998,3.0
377.872999998,26.0
377.873999998,3.0
377.874999998,67.0
377.875999998,101.0
377.876999998,154.0
377.877999998,172.0
377.878999998,190.0
377.879999998,206.0
377.880999998,219.0
377.881999998,246.0
377.882999998,289.0
377.883999998,323.0
377.884999998,357.0
377.885999998,377.0
377.886999998,379.0
377.887999998,400.0
377.888999998,416.0
377.889999998,450.0
377.890999998,503.0
377.891999998,540.0
377.892999998,572.0
377.893999998,588.0
377.894999998,599.0
377.895999998,594.0
377.896999998,625.0
377.897999998,671.0
377.898999998,699.0
377.899999998,749.0
377.900999998,772.0
377.901999998,775.0
377.902999998,781.0
377.903999998,782.0
377.904999998,811.0
377.905999998,850.0
377.906999998,887.0
377.907999998,921.0
377.908999998,920.0
377.909999998,930.0
377.910999998,930.0
377.911999998,924.0
377.912999998,939.0
377.913999998,978.0
377.914999998,1003.0
377.915999998,1041.0
377.916999998,1035.0
377.917999998,1047.0
377.918999998,1052.0
377.919999998,1049.0
377.920999998,1085.0
377.921999998,1119.0
377.922999998,1147.0
377.923999998,1177.0
377.924999998,1187.0
377.925999998,1195.0
377.926999998,1219.0
377.927999998,1211.0
377.928999998,1248.0
377.929999998,1293.0
377.930999998,1328.0
377.931999998,1361.0
377.932999998,1376.0
377.933999998,1377.0
377.934999998,1388.0
377.935999998,1404.0
377.936999998,1453.0
377.937999998,1497.0
377.938999998,1531.0
377.939999998,1547.0
377.940999998,1567.0
377.941999998,1569.0
377.942999998,1568.0
377.943999998,1575.0
377.944999998,1616.0
377.945999998,1643.0
377.946999998,1670.0
377.947999998,1680.0
377.948999998,1681.0
377.949999998,1675.0
377.950999998,1681.0
377.951999998,1701.0
377.952999998,1726.0
377.953999998,1742.0
377.954999998,1765.0
377.955999998,1763.0
377.956999998,1773.0
377.957999998,1761.0
377.958999998,1755.0
377.959999998,1753.0
377.960999998,1773.0
377.961999998,1785.0
377.962999998,1793.0
377.963999998,1788.0
377.964999998,1779.0
377.965999998,1762.0
377.966999998,1752.0
377.967999998,1761.0
377.968999998,1787.0
377.969999998,1810.0
377.970999998,1814.0
377.971999998,1801.0
377.972999998,1789.0
377.973999998,1768.0
377.974999998,1764.0
377.975999998,1770.0
377.976999998,1786.0
377.977999998,1809.0
377.978999998,1811.0
377.979999998,1789.0
377.980999998,1785.0
377.981999998,1769.0
377.982999998,1780.0
377.983999998,1782.0
377.984999998,1790.0
377.985999998,1806.0
377.986999998,1802.0
377.987999998,1791.0
377.988999998,1780.0
377.989999998,1764.0
377.990999998,1779.0
377.991999998,1779.0
377.992999998,1801.0
377.993999998,1804.0
377.994999998,1807.0
377.995999998,1787.0
377.996999998,1778.0
377.997999998,1771.0
377.998999998,1772.0
377.999999998,1777.0
378.000999998,1790.0
378.001999998,1809.0
378.002999998,1795.0
378.003999998,1783.0
378.004999998,1781.0
378.005999998,1766.0
378.006999998,1786.0
378.007999998,1795.0
378.008999998,1799.0
378.009999998,1822.0
378.010999998,1817.0
378.011999998,1815.0
378.012999998,1803.0
378.013999998,1791.0
378.014999998,1793.0
378.015999998,1808.0
378.016999998,1840.0
378.017999998,1833.0
378.018999998,1832.0
378.019999998,1814.0
378.020999998,1755.0
378.021999998,1774.0
378.022999998,1789.0
378.023999998,1787.0
378.024999998,1805.0
378.025999998,1799.0
378.026999998,1789.0
378.027999998,1770.0
378.028999998,1761.0
378.029999998,1766.0
378.030999998,1776.0
378.031999998,1785.0
378.032999998,1808.0
378.033999998,1805.0
378.034999998,1792.0
378.035999998,1769.0
378.036999998,1740.0
378.037999998,1741.0
378.038999998,1765.0
378.039999998,1768.0
378.040999998,1779.0
378.041999998,1764.0
378.042999998,1756.0
378.043999998,1738.0
378.044999998,1723.0
378.045999998,1753.0
378.046999998,1763.0
378.047999998,1780.0
378.048999998,1793.0
378.049999998,1784.0
378.050999998,1777.0
378.051999998,1763.0
378.052999998,1760.0
378.053999998,1786.0
378.054999998,1804.0
378.055999998,1822.0
378.056999998,1834.0
378.057999998,1822.0
378.058999998,1833.0
378.059999998,1810.0
378.060999998,1825.0
378.061999998,1841.0
378.062999998,1836.0
378.063999998,1853.0
378.064999998,1847.0
378.065999998,1849.0
378.066999998,1846.0
378.067999998,1826.0
378.068999998,1830.0
378.069999998,1850.0
378.070999998,1852.0
378.071999998,1853.0
378.072999998,1834.0
378.073999998,1835.0
378.074999998,1827.0
378.075999998,1811.0
378.076999998,1823.0
378.077999998,1838.0
378.078999998,1857.0
378.079999998,1867.0
378.080999998,1853.0
378.081999998,1838.0
378.082999998,1808.0
378.083999998,1811.0
378.084999998,1833.0
378.085999998,1832.0
378.086999998,1827.0
378.087999998,1760.0
378.088999998,1665.0
378.089999998,1538.0
378.090999998,1453.0
378.091999998,1429.0
378.092999998,1623.0
378.093999998,1898.0
378.094999998,2193.0
378.095999998,2398.0
378.096999998,2495.0
378.097999998,2595.0
378.098999998,2654.0
378.099999998,2635.0
378.100999998,2625.0
378.101999998,2551.0
378.102999998,2425.0
378.103999998,2312.0
378.104999998,2219.0
378.105999998,2167.0
378.106999998,2090.0
378.107999998,2031.0
378.108999998,1996.0
378.109999998,1936.0
378.110999998,1852.0
378.111999998,1758.0
378.112999998,1688.0
378.113999998,1621.0
378.114999998,1593.0
378.115999998,1575.0
378.116999998,1588.0
378.117999998,1597.0
378.118999998,1606.0
378.119999998,1601.0
378.120999998,1586.0
378.121999998,1585.0
378.122999998,1591.0
378.123999998,1597.0
378.124999998,1615.0
378.125999998,1626.0
378.126999998,1630.0
378.127999998,1634.0
378.128999998,1628.0
378.129999998,1633.0
378.130999998,1641.0
378.131999998,1657.0
378.132999998,1672.0
378.133999998,1690.0
378.134999998,1686.0
378.135999998,1666.0
378.136999998,1656.0
378.137999998,1648.0
378.138999998,1665.0
378.139999998,1687.0
378.140999998,1698.0
378.141999998,1706.0
378.142999998,1707.0
378.143999998,1700.0
378.144999998,1685.0
378.145999998,1668.0
378.146999998,1689.0
378.147999998,1700.0
378.148999998,1718.0
378.149999998,1725.0
378.150999998,1716.0
378.151999998,1718.0
378.152999998,1696.0
378.153999998,1698.0
378.154999998,1708.0
378.155999998,1726.0
378.156999998,1741.0
378.157999998,1736.0
378.158999998,1739.0
378.159999998,1726.0
378.160999998,1698.0
378.161999998,1705.0
378.162999998,1726.0
378.163999998,1723.0
378.164999998,1760.0
378.165999998,1763.0
378.166999998,1753.0
378.167999998,1743.0
378.168999998,1734.0
378.169999998,1724.0
378.170999998,1756.0
378.171999998,1758.0
378.172999998,1782.0
378.173999998,1785.0
378.174999998,1777.0
378.175999998,1776.0
378.176999998,1762.0
378.177999998,1780.0
378.178999998,1810.0
378.179999998,1838.0
378.180999998,1850.0
378.181999998,1868.0
378.182999998,1859.0
378.183999998,1866.0
378.184999998,1875.0
378.185999998,1887.0
378.186999998,1931.0
378.187999998,1951.0
378.188999998,1965.0
378.189999998,1972.0
378.190999998,1971.0
378.191999998,1960.0
378.192999998,1955.0
378.193999998,1976.0
378.194999998,2009.0
378.195999998,2007.0
378.196999998,2021.0
378.197999998,2016.0
378.198999998,2009.0
378.199999998,2000.0
378.200999998,2000.0
378.201999998,2013.0
378.202999998,2020.0
378.203999998,2033.0
378.204999998,2050.0
378.205999998,2036.0
378.206999998,2027.0
378.207999998,2014.0
378.208999998,1999.0
378.209999998,2024.0
378.210999998,2035.0
378.211999998,2052.0
378.212999998,2050.0
378.213999998,2037.0
378.214999998,2027.0
378.215999998,1992.0
378.216999998,1986.0
378.217999998,2008.0
378.218999998,2007.0
378.219999998,2015.0
378.220999998,2015.0
378.221999998,2004.0
378.222999998,1988.0
378.223999998,1976.0
378.224999998,1968.0
378.225999998,1978.0
378.226999998,1985.0
378.227999998,1996.0
378.228999998,2006.0
378.229999998,1977.0
378.230999998,1959.0
378.231999998,1950.0
378.232999998,1948.0
378.233999998,1957.0
378.234999998,1974.0
378.235999998,1981.0
378.236999998,1969.0
378.237999998,1953.0
378.238999998,1947.0
378.239999998,1929.0
378.240999998,1945.0
378.241999998,1959.0
378.242999998,1962.0
378.243999998,1971.0
378.244999998,1960.0
378.245999998,1948.0
378.246999998,1937.0
378.247999998,1941.0
378.248999998,1948.0
378.249999998,1957.0
378.250999998,1974.0
378.251999998,1986.0
378.252999998,1973.0
378.253999998,1978.0
378.254999998,1959.0
378.255999998,1960.0
378.256999998,1977.0
378.257999998,1992.0
378.258999998,2017.0
378.259999998,2009.0
378.260999998,2002.0
378.261999998,1986.0
378.262999998,1967.0
378.263999998,1965.0
378.264999998,1973.0
378.265999998,1979.0
378.266999998,1989.0
378.267999998,1982.0
378.268999998,1970.0
378.269999998,1959.0
378.270999998,1944.0
378.271999998,1948.0
378.272999998,1963.0
378.273999998,1977.0
378.274999998,1984.0
378.275999998,1974.0
378.276999998,1973.0
378.277999998,1970.0
378.278999998,1968.0
378.279999998,1976.0
378.280999998,1986.0
378.281999998,1990.0
378.282999998,2000.0
378.283999998,1995.0
378.284999998,1975.0
378.285999998,1959.0
378.286999998,1946.0
378.287999998,1964.0
378.288999998,1965.0
378.289999998,1976.0
378.290999998,1975.0
378.291999998,1961.0
378.292999998,1945.0
378.293999998,1932.0
378.294999998,1932.0
378.295999998,1950.0
378.296999998,1946.0
378.297999998,1955.0
378.298999998,1954.0
378.299999998,1949.0
378.300999998,1938.0
378.301999998,1917.0
378.302999998,1926.0
378.303999998,1938.0
378.304999998,1911.0
378.305999998,1961.0
378.306999998,1961.0
378.307999998,1956.0
378.308999998,1939.0
378.309999998,1928.0
378.310999998,1931.0
378.311999998,1945.0
378.312999998,1971.0
378.313999998,1981.0
378.314999998,1987.0
378.315999998,1983.0
378.316999998,1959.0
378.317999998,1940.0
378.318999998,1963.0
378.319999998,1975.0
378.320999998,1988.0
378.321999998,1987.0
378.322999998,1984.0
378.323999998,1978.0
378.324999998,1962.0
378.325999998,1961.0
378.326999998,1998.0
378.327999998,1987.0
378.328999998,2004.0
378.329999998,2015.0
378.330999998,1992.0
378.331999998,2014.0
378.332999998,2002.0
378.333999998,2001.0
378.334999998,2015.0
378.335999998,2018.0
378.336999998,2024.0
378.337999998,2016.0
378.338999998,2004.0
378.339999998,2000.0
378.340999998,1981.0
378.341999998,1987.0
378.342999998,2010.0
378.343999998,2018.0
378.344999998,2022.0
378.345999998,2008.0
378.346999998,2001.0
378.347999998,1997.0
378.348999998,1986.0
378.349999998,1993.0
378.350999998,2007.0
378.351999998,2014.0
378.352999998,2020.0
378.353999998,2001.0
378.354999998,1993.0
378.355999998,1974.0
378.356999998,1961.0
378.357999998,1971.0
378.358999998,1977.0
378.359999998,1974.0
378.360999998,1939.0
378.361999998,1849.0
378.362999998,1728.0
378.363999998,1635.0
378.364999998,1585.0
378.365999998,1754.0
378.366999998,2028.0
378.367999998,2310.0
378.368999998,2561.0
378.369999998,2665.0
378.370999998,2754.0
378.371999998,2815.0
378.372999998,2808.0
378.373999998,2816.0
378.374999998,2755.0
378.375999998,2637.0
378.376999998,2508.0
378.377999998,2409.0
378.378999998,2348.0
378.379999998,2275.0
378.380999998,2206.0
378.381999998,2167.0
378.382999998,2107.0
378.383999998,2017.0
378.384999998,1927.0
378.385999998,1848.0
378.386999998,1790.0
378.387999998,1743.0
378.388999998,1741.0
378.389999998,1758.0
378.390999998,1760.0
378.391999998,1761.0
378.392999998,1764.0
378.393999998,1761.0
378.394999998,1756.0
378.395999998,1754.0
378.396999998,1763.0
378.397999998,1782.0
378.398999998,1791.0
378.399999998,1802.0
378.400999998,1796.0
378.401999998,1790.0
378.402999998,1768.0
378.403999998,1785.0
378.404999998,1799.0
378.405999998,1808.0
378.406999998,1822.0
378.407999998,1834.0
378.408999998,1825.0
378.409999998,1813.0
378.410999998,1810.0
378.411999998,1814.0
378.412999998,1837.0
378.413999998,1833.0
378.414999998,1850.0
378.415999998,1843.0
378.416999998,1834.0
378.417999998,1835.0
378.418999998,1830.0
378.419999998,1847.0
378.420999998,1862.0
378.421999998,1866.0
378.422999998,1872.0
378.423999998,1860.0
378.424999998,1854.0
378.425999998,1837.0
378.426999998,1830.0
378.427999998,1845.0
378.428999998,1857.0
378.429999998,1869.0
378.430999998,1864.0
378.431999998,1855.0
378.432999998,1842.0
378.433999998,1827.0
378.434999998,1830.0
378.435999998,1844.0
378.436999998,1867.0
378.437999998,1860.0
378.438999998,1864.0
378.439999998,1861.0
378.440999998,1857.0
378.441999998,1841.0
378.442999998,1855.0
378.443999998,1869.0
378.444999998,1891.0
378.445999998,1901.0
378.446999998,1915.0
378.447999998,1917.0
378.448999998,1921.0
378.449999998,1913.0
378.450999998,1922.0
378.451999998,1940.0
378.452999998,1978.0
378.453999998,1994.0
378.454999998,2004.0
378.455999998,1994.0
378.456999998,2006.0
378.457999998,1997.0
378.458999998,2021.0
378.459999998,2053.0
378.460999998,2069.0
378.461999998,2098.0
378.462999998,2096.0
378.463999998,2100.0
378.464999998,2091.0
378.465999998,2091.0
378.466999998,2110.0
378.467999998,2126.0
378.468999998,2142.0
378.469999998,2143.0
378.470999998,2173.0
378.471999998,2136.0
378.472999998,2137.0
378.473999998,2122.0
378.474999998,2147.0
378.475999998,2165.0
378.476999998,2190.0
378.477999998,2184.0
378.478999998,2178.0
378.479999998,2176.0
378.480999998,2159.0
378.481999998,2153.0
378.482999998,2168.0
378.483999998,2184.0
378.484999998,2197.0
378.485999998,2199.0
378.486999998,2194.0
378.487999998,2187.0
378.488999998,2181.0
378.489999998,2179.0
378.490999998,2174.0
378.491999998,2184.0
378.492999998,2190.0
378.493999998,2194.0
378.494999998,2185.0
378.495999998,2162.0
378.496999998,2151.0
378.497999998,2142.0
378.498999998,2153.0
378.499999998,2162.0
378.500999998,2179.0
378.501999998,2154.0
378.502999998,2143.0
378.503999998,2132.0
378.504999998,2116.0
378.505999998,2119.0
378.506999998,2131.0
378.507999998,2138.0
378.508999998,2137.0
378.509999998,2130.0
378.510999998,2118.0
378.511999998,2093.0
378.512999998,2087.0
378.513999998,2086.0
378.514999998,2094.0
378.515999998,2112.0
378.516999998,2113.0
378.517999998,2097.0
378.518999998,2099.0
378.519999998,2077.0
378.520999998,2074.0
378.521999998,2073.0
378.522999998,2081.0
378.523999998,2092.0
378.524999998,2093.0
378.525999998,2076.0
378.526999998,2066.0
378.527999998,2052.0
378.528999998,2064.0
378.529999998,2071.0
378.530999998,2067.0
378.531999998,2083.0
378.532999998,2078.0
378.533999998,2068.0
378.534999998,2064.0
378.535999998,2044.0
378.536999998,2069.0
378.537999998,2073.0
378.538999998,2067.0
378.539999998,2079.0
378.540999998,2073.0
378.541999998,2063.0
378.542999998,2058.0
378.543999998,2044.0
378.544999998,2052.0
378.545999998,2054.0
378.546999998,2066.0
378.547999998,2069.0
378.548999998,2070.0
378.549999998,2064.0
378.550999998,2047.0
378.551999998,2040.0
378.552999998,2057.0
378.553999998,2061.0
378.554999998,2074.0
378.555999998,2069.0
378.556999998,2057.0
378.557999998,2046.0
378.558999998,2030.0
378.559999998,2027.0
378.560999998,2039.0
378.561999998,2038.0
378.562999998,2042.0
378.563999998,2044.0
378.564999998,2032.0
378.565999998,2024.0
378.566999998,2020.0
378.567999998,2028.0
378.568999998,2037.0
378.569999998,2047.0
378.570999998,2050.0
378.571999998,2038.0
378.572999998,2032.0
378.573999998,2020.0
378.574999998,2009.0
378.575999998,2020.0
378.576999998,2029.0
378.577999998,2036.0
378.578999998,2038.0
378.579999998,2024.0
378.580999998,2023.0
378.581999998,2009.0
378.582999998,2005.0
378.583999998,2018.0
378.584999998,2028.0
378.585999998,2024.0
378.586999998,2039.0
378.587999998,2037.0
378.588999998,2030.0
378.589999998,2016.0
378.590999998,2018.0
378.591999998,2020.0
378.592999998,2030.0
378.593999998,2030.0
378.594999998,2033.0
378.595999998,2031.0
378.596999998,2031.0
378.597999998,2011.0
378.598999998,2008.0
378.599999998,2024.0
378.600999998,2038.0
378.601999998,2040.0
378.602999998,2046.0
378.603999998,2033.0
378.604999998,2014.0
378.605999998,1996.0
378.606999998,1993.0
378.607999998,2006.0
378.608999998,2009.0
378.609999998,2018.0
378.610999998,2018.0
378.611999998,2006.0
378.612999998,2008.0
378.613999998,1993.0
378.614999998,2002.0
378.615999998,2013.0
378.616999998,2015.0
378.617999998,2021.0
378.618999998,2021.0
378.619999998,2008.0
378.620999998,1997.0
378.621999998,1995.0
378.622999998,2004.0
378.623999998,2004.0
378.624999998,2011.0
378.625999998,2008.0
378.626999998,1999.0
378.627999998,1981.0
378.628999998,1975.0
378.629999998,1962.0
378.630999998,1989.0
378.631999998,2005.0
378.632999998,2017.0
378.633999998,2016.0
378.634999998,2010.0
378.635999998,2006.0
378.636999998,2007.0
378.637999998,1998.0
378.638999998,2017.0
378.639999998,2024.0
378.640999998,2037.0
378.641999998,2040.0
378.642999998,2030.0
378.643999998,2037.0
378.644999998,2029.0
378.645999998,2025.0
378.646999998,2046.0
378.647999998,2054.0
378.648999998,2057.0
378.649999998,2050.0
378.650999998,2043.0
378.651999998,2035.0
378.652999998,2013.0
378.653999998,2012.0
378.654999998,2015.0
378.655999998,2017.0
378.656999998,2028.0
378.657999998,2029.0
378.658999998,2007.0
378.659999998,2005.0
378.660999998,1996.0
378.661999998,2007.0
378.662999998,2017.0
378.663999998,2022.0
378.664999998,2031.0
378.665999998,2012.0
378.666999998,2012.0
378.667999998,1997.0
378.668999998,1994.0
378.669999998,2001.0
378.670999998,2002.0
378.671999998,2003.0
378.672999998,2010.0
378.673999998,2002.0
378.674999998,1995.0
378.675999998,1981.0
378.676999998,1932.0
378.677999998,1866.0
378.678999998,1768.0
378.679999998,1680.0
378.680999998,1641.0
378.681999998,1747.0
378.682999998,1990.0
378.683999998,2245.0
378.684999998,2519.0
378.685999998,2641.0
378.686999998,2749.0
378.687999998,2843.0
378.688999998,2850.0
378.689999998,2849.0
378.690999998,2778.0
378.691999998,2651.0
378.692999998,2517.0
378.693999998,2439.0
378.694999998,2391.0
378.695999998,2327.0
378.696999998,2252.0
378.697999998,2194.0
378.698999998,2116.0
378.699999998,2021.0
378.700999998,1939.0
378.701999998,1885.0
378.702999998,1833.0
378.703999998,1794.0
378.704999998,1772.0
378.705999998,1757.0
378.706999998,1741.0
378.707999998,1738.0
378.708999998,1745.0
378.709999998,1769.0
378.710999998,1774.0
378.711999998,1785.0
378.712999998,1780.0
378.713999998,1775.0
378.714999998,1764.0
378.715999998,1761.0
378.716999998,1785.0
378.717999998,1795.0
378.718999998,1801.0
378.719999998,1801.0
378.720999998,1797.0
378.721999998,1790.0
378.722999998,1780.0
378.723999998,1786.0
378.724999998,1810.0
378.725999998,1821.0
378.726999998,1836.0
378.727999998,1843.0
378.728999998,1834.0
378.729999998,1828.0
378.730999998,1824.0
378.731999998,1824.0
378.732999998,1840.0
378.733999998,1856.0
378.734999998,1862.0
378.735999998,1857.0
378.736999998,1851.0
378.737999998,1847.0
378.738999998,1835.0
378.739999998,1844.0
378.740999998,1857.0
378.741999998,1865.0
378.742999998,1873.0
378.743999998,1866.0
378.744999998,1858.0
378.745999998,1842.0
378.746999998,1836.0
378.747999998,1851.0
378.748999998,1860.0
378.749999998,1879.0
378.750999998,1861.0
378.751999998,1853.0
378.752999998,1847.0
378.753999998,1842.0
378.754999998,1834.0
378.755999998,1856.0
378.756999998,1872.0
378.757999998,1885.0
378.758999998,1895.0
378.759999998,1886.0
378.760999998,1885.0
378.761999998,1883.0
378.762999998,1893.0
378.763999998,1919.0
378.764999998,1954.0
378.765999998,1941.0
378.766999998,1944.0
378.767999998,1933.0
378.768999998,1938.0
378.769999998,1928.0
378.770999998,1945.0
378.771999998,1964.0
378.772999998,1991.0
378.773999998,2008.0
378.774999998,2034.0
378.775999998,2030.0
378.776999998,2029.0
378.777999998,2049.0
378.778999998,2084.0
378.779999998,2076.0
378.780999998,2055.0
378.781999998,2115.0
378.782999998,2117.0
378.783999998,2118.0
378.784999998,2113.0
378.785999998,2114.0
378.786999998,2117.0
378.787999998,2136.0
378.788999998,2156.0
378.789999998,2162.0
378.790999998,2161.0
378.791999998,2150.0
378.792999998,2125.0
378.793999998,2123.0
378.794999998,2151.0
378.795999998,2145.0
378.796999998,2162.0
378.797999998,2161.0
378.798999998,2161.0
378.799999998,2151.0
378.800999998,2142.0
378.801999998,2144.0
378.802999998,2165.0
378.803999998,2162.0
378.804999998,2179.0
378.805999998,2183.0
378.806999998,2173.0
378.807999998,2159.0
378.808999998,2140.0
378.809999998,2144.0
378.810999998,2144.0
378.811999998,2135.0
378.812999998,2138.0
378.813999998,2125.0
378.814999998,2113.0
378.815999998,2093.0
378.816999998,2076.0
378.817999998,2085.0
378.818999998,2089.0
378.819999998,2099.0
378.820999998,2103.0
378.821999998,2089.0
378.822999998,2080.0
378.823999998,2066.0
378.824999998,2065.0
378.825999998,2083.0
378.826999998,2078.0
378.827999998,2084.0
378.828999998,2096.0
378.829999998,2075.0
378.830999998,2079.0
378.831999998,2056.0
378.832999998,2059.0
378.833999998,2061.0
378.834999998,2067.0
378.835999998,2064.0
378.836999998,2068.0
378.837999998,2057.0
378.838999998,2052.0
378.839999998,2032.0
378.840999998,2035.0
378.841999998,2051.0
378.842999998,2056.0
378.843999998,2053.0
378.844999998,2051.0
378.845999998,2041.0
378.846999998,2030.0
378.847999998,2017.0
378.848999998,2025.0
378.849999998,2034.0
378.850999998,2040.0
378.851999998,2042.0
378.852999998,2037.0
378.853999998,2030.0
378.854999998,2029.0
378.855999998,2019.0
378.856999998,2027.0
378.857999998,2034.0
378.858999998,2045.0
378.859999998,2036.0
378.860999998,2024.0
378.861999998,2015.0
378.862999998,2011.0
378.863999998,2000.0
378.864999998,2013.0
378.865999998,2016.0
378.866999998,2029.0
378.867999998,2024.0
378.868999998,2023.0
378.869999998,2013.0
378.870999998,2009.0
378.871999998,2009.0
378.872999998,2023.0
378.873999998,2016.0
378.874999998,2033.0
378.875999998,2029.0
378.876999998,2033.0
378.877999998,2015.0
378.878999998,2006.0
378.879999998,2008.0
378.880999998,2032.0
378.881999998,2038.0
378.882999998,2046.0
378.883999998,2043.0
378.884999998,2036.0
378.885999998,2029.0
378.886999998,2022.0
378.887999998,2027.0
378.888999998,2038.0
378.889999998,2043.0
378.890999998,2056.0
378.891999998,2046.0
378.892999998,2039.0
378.893999998,2016.0
378.894999998,2010.0
378.895999998,2015.0
378.896999998,2017.0
378.897999998,2020.0
378.898999998,2032.0
378.899999998,2016.0
378.900999998,2010.0
378.901999998,2008.0
378.902999998,2000.0
378.903999998,2011.0
378.904999998,2029.0
378.905999998,2031.0
378.906999998,2020.0
378.907999998,2000.0
378.908999998,2003.0
378.909999998,1996.0
378.910999998,1994.0
378.911999998,2001.0
378.912999998,2006.0
378.913999998,2012.0
378.914999998,2011.0
378.915999998,2003.0
378.916999998,1999.0
378.917999998,1986.0
378.918999998,1994.0
378.919999998,2003.0
378.920999998,2013.0
378.921999998,2012.0
378.922999998,2025.0
378.923999998,2006.0
378.924999998,1998.0
378.925999998,1977.0
378.926999998,1997.0
378.927999998,1998.0
378.928999998,2006.0
378.929999998,2017.0
378.930999998,2013.0
378.931999998,1999.0
378.932999998,1996.0
378.933999998,1986.0
378.934999998,2005.0
378.935999998,2001.0
378.936999998,2010.0
378.937999998,2016.0
378.938999998,2017.0
378.939999998,2009.0
378.940999998,1993.0
378.941999998,1989.0
378.942999998,2005.0
378.943999998,2001.0
378.944999998,2016.0
378.945999998,2027.0
378.946999998,2008.0
378.947999998,1997.0
378.948999998,1996.0
378.949999998,1995.0
378.950999998,2008.0
378.951999998,2010.0
378.952999998,2015.0
378.953999998,2015.0
378.954999998,1998.0
378.955999998,1988.0
378.956999998,1979.0
378.957999998,1988.0
378.958999998,2007.0
378.959999998,2011.0
378.960999998,2008.0
378.961999998,2001.0
378.962999998,1993.0
378.963999998,1969.0
378.964999998,1972.0
378.965999998,1995.0
378.966999998,2015.0
378.967999998,2012.0
378.968999998,2012.0
378.969999998,2013.0
378.970999998,2017.0
378.971999998,1992.0
378.972999998,1997.0
378.973999998,2013.0
378.974999998,2022.0
378.975999998,2024.0
378.976999998,2034.0
378.977999998,2028.0
378.978999998,2027.0
378.979999998,2013.0
378.980999998,2018.0
378.981999998,2040.0
378.982999998,2050.0
378.983999998,2062.0
378.984999998,2066.0
378.985999998,2045.0
378.986999998,2052.0
378.987999998,2026.0
378.988999998,2032.0
378.989999998,2038.0
378.990999998,2047.0
378.991999998,2063.0
378.992999998,2065.0
378.993999998,2056.0
378.994999998,2062.0
378.995999998,2037.0
378.996999998,2043.0
378.997999998,2071.0
378.998999998,2072.0
378.999999998,2088.0
379.000999998,2071.0
379.001999998,2058.0
379.002999998,2062.0
379.003999998,2041.0
379.004999998,2040.0
379.005999998,2049.0
379.006999998,2057.0
379.007999998,2065.0
379.008999998,2065.0
379.009999998,2054.0
379.010999998,2027.0
379.011999998,1950.0
379.012999998,1887.0
379.013999998,1779.0
379.014999998,1709.0
379.015999998,1738.0
379.016999998,1924.0
379.017999998,2168.0
379.018999998,2445.0
379.019999998,2610.0
379.020999998,2728.0
379.021999998,2817.0
379.022999998,2886.0
379.023999998,2886.0
379.024999998,2891.0
379.025999998,2803.0
379.026999998,2644.0
379.027999998,2514.0
379.028999998,2450.0
379.029999998,2408.0
379.030999998,2363.0
379.031999998,2304.0
379.032999998,2246.0
379.033999998,2175.0
379.034999998,2067.0
379.035999998,1983.0
379.036999998,1953.0
379.037999998,1914.0
379.038999998,1895.0
379.039999998,1875.0
379.040999998,1879.0
379.041999998,1867.0
379.042999998,1858.0
379.043999998,1867.0
379.044999998,1894.0
379.045999998,1898.0
379.046999998,1923.0
379.047999998,1920.0
379.048999998,1928.0
379.049999998,1915.0
379.050999998,1916.0
379.051999998,1932.0
379.052999998,1938.0
379.053999998,1958.0
379.054999998,1965.0
379.055999998,1965.0
379.056999998,1968.0
379.057999998,1957.0
379.058999998,1961.0
379.059999998,1969.0
379.060999998,1962.0
379.061999998,1966.0
379.062999998,1975.0
379.063999998,1957.0
379.064999998,1944.0
379.065999998,1929.0
379.066999998,1926.0
379.067999998,1929.0
379.068999998,1935.0
379.069999998,1944.0
379.070999998,1952.0
379.071999998,1941.0
379.072999998,1922.0
379.073999998,1906.0
379.074999998,1906.0
379.075999998,1904.0
379.076999998,1903.0
379.077999998,1897.0
379.078999998,1899.0
379.079999998,1861.0
379.080999998,1849.0
379.081999998,1819.0
379.082999998,1806.0
379.083999998,1799.0
379.084999998,1797.0
379.085999998,1789.0
379.086999998,1796.0
379.087999998,1753.0
379.088999998,1741.0
379.089999998,1712.0
379.090999998,1702.0
379.091999998,1685.0
379.092999998,1677.0
379.093999998,1691.0
379.094999998,1677.0
379.095999998,1677.0
379.096999998,1679.0
379.097999998,1663.0
379.098999998,1681.0
379.099999998,1671.0
379.100999998,1684.0
379.101999998,1669.0
379.102999998,1670.0
379.103999998,1663.0
379.104999998,1662.0
379.105999998,1658.0
379.106999998,1683.0
379.107999998,1694.0
379.108999998,1711.0
379.109999998,1728.0
379.110999998,1744.0
379.111999998,1730.0
379.112999998,1714.0
379.113999998,1731.0
379.114999998,1739.0
379.115999998,1738.0
379.116999998,1738.0
379.117999998,1736.0
379.118999998,1735.0
379.119999998,1717.0
379.120999998,1705.0
379.121999998,1706.0
379.122999998,1716.0
379.123999998,1701.0
379.124999998,1702.0
379.125999998,1693.0
379.126999998,1686.0
379.127999998,1669.0
379.128999998,1640.0
379.129999998,1642.0
379.130999998,1653.0
379.131999998,1663.0
379.132999998,1666.0
379.133999998,1657.0
379.134999998,1630.0
379.135999998,1611.0
379.136999998,1622.0
379.137999998,1656.0
379.138999998,1682.0
379.139999998,1698.0
379.140999998,1706.0
379.141999998,1697.0
379.142999998,1690.0
379.143999998,1681.0
379.144999998,1693.0
379.145999998,1707.0
379.146999998,1729.0
379.147999998,1751.0
379.148999998,1757.0
379.149999998,1758.0
379.150999998,1749.0
379.151999998,1737.0
379.152999998,1744.0
379.153999998,1754.0
379.154999998,1763.0
379.155999998,1789.0
379.156999998,1787.0
379.157999998,1786.0
379.158999998,1791.0
379.159999998,1783.0
379.160999998,1801.0
379.161999998,1826.0
379.162999998,1839.0
379.163999998,1842.0
379.164999998,1843.0
379.165999998,1839.0
379.166999998,1849.0
379.167999998,1844.0
379.168999998,1855.0
379.169999998,1872.0
379.170999998,1894.0
379.171999998,1901.0
379.172999998,1897.0
379.173999998,1910.0
379.174999998,1915.0
379.175999998,1903.0
379.176999998,1917.0
379.177999998,1930.0
379.178999998,1950.0
379.179999998,1957.0
379.180999998,1946.0
379.181999998,1958.0
379.182999998,1963.0
379.183999998,1966.0
379.184999998,1992.0
379.185999998,2002.0
379.186999998,2031.0
379.187999998,2027.0
379.188999998,2017.0
379.189999998,2014.0
379.190999998,2008.0
379.191999998,2022.0
379.192999998,2040.0
379.193999998,2046.0
379.194999998,2070.0
379.195999998,2072.0
379.196999998,2053.0
379.197999998,2052.0
379.198999998,2042.0
379.199999998,2047.0
379.200999998,2074.0
379.201999998,2069.0
379.202999998,2077.0
379.203999998,2076.0
379.204999998,2065.0
379.205999998,2052.0
379.206999998,2051.0
379.207999998,2060.0
379.208999998,2066.0
379.209999998,2065.0
379.210999998,2079.0
379.211999998,2065.0
379.212999998,2047.0
379.213999998,2024.0
379.214999998,2039.0
379.215999998,2050.0
379.216999998,2065.0
379.217999998,2065.0
379.218999998,2074.0
379.219999998,2051.0
379.220999998,2026.0
379.221999998,1995.0
379.222999998,1994.0
379.223999998,2009.0
379.224999998,1976.0
379.225999998,2023.0
379.226999998,2018.0
379.227999998,2012.0
379.228999998,1993.0
379.229999998,1986.0
379.230999998,1988.0
379.231999998,2001.0
379.232999998,2020.0
379.233999998,2023.0
379.234999998,2011.0
379.235999998,2000.0
379.236999998,1981.0
379.237999998,1984.0
379.238999998,2009.0
379.239999998,2015.0
379.240999998,2028.0
379.241999998,2045.0
379.242999998,2019.0
379.243999998,2006.0
379.244999998,2010.0
379.245999998,2007.0
379.246999998,2012.0
379.247999998,2006.0
379.248999998,2010.0
379.249999998,2020.0
379.250999998,2032.0
379.251999998,2000.0
379.252999998,1980.0
379.253999998,1972.0
379.254999998,1978.0
379.255999998,1969.0
379.256999998,1962.0
379.257999998,1966.0
379.258999998,1951.0
379.259999998,1942.0
379.260999998,1932.0
379.261999998,1919.0
379.262999998,1922.0
379.263999998,1930.0
379.264999998,1937.0
379.265999998,1925.0
379.266999998,1927.0
379.267999998,1909.0
379.268999998,1894.0
379.269999998,1892.0
379.270999998,1902.0
379.271999998,1912.0
379.272999998,1924.0
379.273999998,1909.0
379.274999998,1903.0
379.275999998,1896.0
379.276999998,1886.0
379.277999998,1892.0
379.278999998,1913.0
379.279999998,1913.0
379.280999998,1927.0
379.281999998,1915.0
379.282999998,1901.0
379.283999998,1896.0
379.284999998,1900.0
379.285999998,1907.0
379.286999998,1918.0
379.287999998,1935.0
379.288999998,1938.0
379.289999998,1921.0
379.290999998,1929.0
379.291999998,1924.0
379.292999998,1923.0
379.293999998,1934.0
379.294999998,1949.0
379.295999998,1951.0
379.296999998,1973.0
379.297999998,1963.0
379.298999998,1967.0
379.299999998,1957.0
379.300999998,1973.0
379.301999998,1985.0
379.302999998,1994.0
379.303999998,2007.0
379.304999998,2034.0
379.305999998,2027.0
379.306999998,2043.0
379.307999998,2042.0
379.308999998,2069.0
379.309999998,2081.0
379.310999998,2106.0
379.311999998,2125.0
379.312999998,2124.0
379.313999998,2103.0
379.314999998,2088.0
379.315999998,2064.0
379.316999998,2053.0
379.317999998,2059.0
379.318999998,2064.0
379.319999998,2058.0
379.320999998,2052.0
379.321999998,2038.0
379.322999998,2025.0
379.323999998,2021.0
379.324999998,2035.0
379.325999998,2041.0
379.326999998,2069.0
379.327999998,2094.0
379.328999998,2096.0
379.329999998,2095.0
379.330999998,2098.0
379.331999998,2100.0
379.332999998,2113.0
379.333999998,2133.0
379.334999998,2155.0
379.335999998,2161.0
379.336999998,2155.0
379.337999998,2143.0
379.338999998,2137.0
379.339999998,2128.0
379.340999998,2145.0
379.341999998,2132.0
379.342999998,2145.0
379.343999998,2147.0
379.344999998,2132.0
379.345999998,2085.0
379.346999998,1997.0
379.347999998,1900.0
379.348999998,1852.0
379.349999998,1827.0
379.350999998,1950.0
379.351999998,2165.0
379.352999998,2390.0
379.353999998,2631.0
379.354999998,2753.0
379.355999998,2851.0
379.356999998,2933.0
379.357999998,2948.0
379.358999998,2978.0
379.359999998,2928.0
379.360999998,2815.0
379.361999998,2634.0
379.362999998,2540.0
379.363999998,2501.0
379.364999998,2474.0
379.365999998,2420.0
379.366999998,2380.0
379.367999998,2340.0
379.368999998,2247.0
379.369999998,2126.0
379.370999998,2072.0
379.371999998,2040.0
379.372999998,2018.0
379.373999998,1996.0
379.374999998,1988.0
379.375999998,1976.0
379.376999998,1964.0
379.377999998,1948.0
379.378999998,1952.0
379.379999998,1961.0
379.380999998,1986.0
379.381999998,1998.0
379.382999998,1984.0
379.383999998,1968.0
379.384999998,1962.0
379.385999998,1934.0
379.386999998,1947.0
379.387999998,1965.0
379.388999998,1976.0
379.389999998,1995.0
379.390999998,2004.0
379.391999998,1986.0
379.392999998,1978.0
379.393999998,1962.0
379.394999998,1984.0
379.395999998,2042.0
379.396999998,2102.0
379.397999998,2154.0
379.398999998,2178.0
379.399999998,2178.0
379.400999998,2185.0
379.401999998,2164.0
379.402999998,2166.0
379.403999998,2165.0
379.404999998,2167.0
379.405999998,2156.0
379.406999998,2141.0
379.407999998,2127.0
379.408999998,2113.0
379.409999998,2087.0
379.410999998,2095.0
379.411999998,2089.0
379.412999998,2075.0
379.413999998,2072.0
379.414999998,2067.0
379.415999998,2054.0
379.416999998,2033.0
379.417999998,2024.0
379.418999998,2030.0
379.419999998,2027.0
379.420999998,2052.0
379.421999998,2042.0
379.422999998,2038.0
379.423999998,2024.0
379.424999998,2015.0
379.425999998,2005.0
379.426999998,2036.0
379.427999998,2044.0
379.428999998,2055.0
379.429999998,2073.0
379.430999998,2087.0
379.431999998,2116.0
379.432999998,2129.0
379.433999998,2149.0
379.434999998,2165.0
379.435999998,2151.0
379.436999998,2145.0
379.437999998,2156.0
379.438999998,2223.0
379.439999998,2319.0
379.440999998,2401.0
379.441999998,2413.0
379.442999998,2413.0
379.443999998,2443.0
379.444999998,2487.0
379.445999998,2467.0
379.446999998,2475.0
379.447999998,2492.0
379.448999998,2512.0
379.449999998,2536.0
379.450999998,2578.0
379.451999998,2616.0
379.452999998,2649.0
379.453999998,2654.0
379.454999998,2680.0
379.455999998,2682.0
379.456999998,2719.0
379.457999998,2752.0
379.458999998,2760.0
379.459999998,2770.0
379.460999998,2777.0
379.461999998,2766.0
379.462999998,2800.0
379.463999998,2763.0
379.464999998,2785.0
379.465999998,2797.0
379.466999998,2806.0
379.467999998,2826.0
379.468999998,2843.0
379.469999998,2832.0
379.470999998,2837.0
379.471999998,2830.0
379.472999998,2848.0
379.473999998,2865.0
379.474999998,2886.0
379.475999998,2886.0
379.476999998,2871.0
379.477999998,2859.0
379.478999998,2849.0
379.479999998,2823.0
379.480999998,2830.0
379.481999998,2819.0
379.482999998,2811.0
379.483999998,2789.0
379.484999998,2765.0
379.485999998,2733.0
379.486999998,2710.0
379.487999998,2701.0
379.488999998,2704.0
379.489999998,2674.0
379.490999998,2678.0
379.491999998,2662.0
379.492999998,2633.0
379.493999998,2616.0
379.494999998,2602.0
379.495999998,2581.0
379.496999998,2579.0
379.497999998,2570.0
379.498999998,2571.0
379.499999998,2560.0
379.500999998,2554.0
379.501999998,2532.0
379.502999998,2506.0
379.503999998,2484.0
379.504999998,2482.0
379.505999998,2469.0
379.506999998,2456.0
379.507999998,2433.0
379.508999998,2419.0
379.509999998,2384.0
379.510999998,2351.0
379.511999998,2327.0
379.512999998,2315.0
379.513999998,2293.0
379.514999998,2294.0
379.515999998,2264.0
379.516999998,2223.0
379.517999998,2188.0
379.518999998,2173.0
379.519999998,2142.0
379.520999998,2143.0
379.521999998,2131.0
379.522999998,2117.0
379.523999998,2088.0
379.524999998,2065.0
379.525999998,2000.0
379.526999998,1979.0
379.527999998,1960.0
379.528999998,1941.0
379.529999998,1925.0
379.530999998,1910.0
379.531999998,1871.0
379.532999998,1854.0
379.533999998,1828.0
379.534999998,1806.0
379.535999998,1804.0
379.536999998,1835.0
379.537999998,1934.0
379.538999998,1943.0
379.539999998,1922.0
379.540999998,1913.0
379.541999998,1891.0
379.542999998,1892.0
379.543999998,1889.0
379.544999998,1888.0
379.545999998,1877.0
379.546999998,1868.0
379.547999998,1841.0
379.548999998,1830.0
379.549999998,1802.0
379.550999998,1798.0
379.551999998,1809.0
379.552999998,1815.0
379.553999998,1802.0
379.554999998,1803.0
379.555999998,1789.0
379.556999998,1772.0
379.557999998,1753.0
379.558999998,1752.0
379.559999998,1768.0
379.560999998,1784.0
379.561999998,1783.0
379.562999998,1781.0
379.563999998,1770.0
379.564999998,1775.0
379.565999998,1770.0
379.566999998,1793.0
379.567999998,1806.0
379.568999998,1826.0
379.569999998,1828.0
379.570999998,1823.0
379.571999998,1819.0
379.572999998,1809.0
379.573999998,1793.0
379.574999998,1794.0
379.575999998,1784.0
379.576999998,1765.0
379.577999998,1744.0
379.578999998,1698.0
379.579999998,1675.0
379.580999998,1674.0
379.581999998,1674.0
379.582999998,1706.0
379.583999998,1729.0
379.584999998,1755.0
379.585999998,1758.0
379.586999998,1784.0
379.587999998,1777.0
379.588999998,1782.0
379.589999998,1795.0
379.590999998,1819.0
379.591999998,1837.0
379.592999998,1875.0
379.593999998,1888.0
379.594999998,1911.0
379.595999998,1902.0
379.596999998,1906.0
379.597999998,1918.0
379.598999998,1941.0
379.599999998,1951.0
379.600999998,1962.0
379.601999998,1946.0
379.602999998,1928.0
379.603999998,1898.0
379.604999998,1861.0
379.605999998,1856.0
379.606999998,1842.0
379.607999998,1825.0
379.608999998,1824.0
379.609999998,1829.0
379.610999998,1851.0
379.611999998,1863.0
379.612999998,1890.0
379.613999998,1911.0
379.614999998,1939.0
379.615999998,1981.0
379.616999998,2011.0
379.617999998,2015.0
379.618999998,2023.0
379.619999998,2026.0
379.620999998,2075.0
379.621999998,2106.0
379.622999998,2155.0
379.623999998,2197.0
379.624999998,2227.0
379.625999998,2236.0
379.626999998,2257.0
379.627999998,2267.0
379.628999998,2291.0
379.629999998,2330.0
379.630999998,2356.0
379.631999998,2379.0
379.632999998,2385.0
379.633999998,2391.0
379.634999998,2411.0
379.635999998,2415.0
379.636999998,2430.0
379.637999998,2441.0
379.638999998,2447.0
379.639999998,2469.0
379.640999998,2486.0
379.641999998,2485.0
379.642999998,2487.0
379.643999998,2489.0
379.644999998,2497.0
379.645999998,2491.0
379.646999998,2496.0
379.647999998,2508.0
379.648999998,2507.0
379.649999998,2502.0
379.650999998,2500.0
379.651999998,2494.0
379.652999998,2499.0
379.653999998,2493.0
379.654999998,2491.0
379.655999998,2491.0
379.656999998,2477.0
379.657999998,2459.0
379.658999998,2439.0
379.659999998,2428.0
379.660999998,2417.0
379.661999998,2408.0
379.662999998,2403.0
379.663999998,2386.0
379.664999998,2376.0
379.665999998,2355.0
379.666999998,2323.0
379.667999998,2272.0
379.668999998,2192.0
379.669999998,2074.0
379.670999998,1980.0
379.671999998,1901.0
379.672999998,1946.0
379.673999998,2115.0
379.674999998,2316.0
379.675999998,2567.0
379.676999998,2735.0
379.677999998,2854.0
379.678999998,2952.0
379.679999998,2990.0
379.680999998,2992.0
379.681999998,2950.0
379.682999998,2859.0
379.683999998,2690.0
379.684999998,2571.0
379.685999998,2497.0
379.686999998,2434.0
379.687999998,2357.0
379.688999998,2273.0
379.689999998,2193.0
379.690999998,2127.0
379.691999998,2043.0
379.692999998,1977.0
379.693999998,1920.0
379.694999998,1883.0
379.695999998,1864.0
379.696999998,1862.0
379.697999998,1821.0
379.698999998,1821.0
379.699999998,1845.0
379.700999998,1848.0
379.701999998,1849.0
379.702999998,1851.0
379.703999998,1848.0
379.704999998,1851.0
379.705999998,1840.0
379.706999998,1879.0
379.707999998,1853.0
379.708999998,1866.0
379.709999998,1856.0
379.710999998,1846.0
379.711999998,1836.0
379.712999998,1836.0
379.713999998,1832.0
379.714999998,1833.0
379.715999998,1847.0
379.716999998,1855.0
379.717999998,1867.0
379.718999998,1866.0
379.719999998,1879.0
379.720999998,1874.0
379.721999998,1896.0
379.722999998,1903.0
379.723999998,1894.0
379.724999998,1894.0
379.725999998,1885.0
379.726999998,1874.0
379.727999998,1867.0
379.728999998,1854.0
379.729999998,1840.0
379.730999998,1824.0
379.731999998,1816.0
379.732999998,1814.0
379.733999998,1790.0
379.734999998,1769.0
379.735999998,1746.0
379.736999998,1713.0
379.737999998,1693.0
379.738999998,1676.0
379.739999998,1644.0
379.740999998,1614.0
379.741999998,1578.0
379.742999998,1514.0
379.743999998,1433.0
379.744999998,1372.0
379.745999998,1324.0
379.746999998,1290.0
379.747999998,1252.0
379.748999998,1232.0
379.749999998,1201.0
379.750999998,1170.0
379.751999998,1133.0
379.752999998,1113.0
379.753999998,1103.0
379.754999998,1097.0
379.755999998,1108.0
379.756999998,1114.0
379.757999998,1114.0
379.758999998,1112.0
379.759999998,1096.0
379.760999998,1082.0
379.761999998,1093.0
379.762999998,1097.0
379.763999998,1111.0
379.764999998,1145.0
379.765999998,1157.0
379.766999998,1197.0
379.767999998,1214.0
379.768999998,1264.0
379.769999998,1306.0
379.770999998,1345.0
379.771999998,1377.0
379.772999998,1412.0
379.773999998,1434.0
379.774999998,1464.0
379.775999998,1476.0
379.776999998,1517.0
379.777999998,1546.0
379.778999998,1565.0
379.779999998,1603.0
379.780999998,1623.0
379.781999998,1638.0
379.782999998,1645.0
379.783999998,1661.0
379.784999998,1691.0
379.785999998,1716.0
379.786999998,1738.0
379.787999998,1755.0
379.788999998,1784.0
379.789999998,1801.0
379.790999998,1801.0
379.791999998,1808.0
379.792999998,1829.0
379.793999998,1846.0
379.794999998,1873.0
379.795999998,1879.0
379.796999998,1892.0
379.797999998,1889.0
379.798999998,1903.0
379.799999998,1899.0
379.800999998,1941.0
379.801999998,1948.0
379.802999998,1955.0
379.803999998,1967.0
379.804999998,1973.0
379.805999998,1963.0
379.806999998,1971.0
379.807999998,1972.0
379.808999998,1994.0
379.809999998,1993.0
379.810999998,2004.0
379.811999998,1990.0
379.812999998,1997.0
379.813999998,1984.0
379.814999998,1979.0
379.815999998,1983.0
379.816999998,2004.0
379.817999998,1999.0
379.818999998,2019.0
379.819999998,2021.0
379.820999998,2015.0
379.821999998,2018.0
379.822999998,2035.0
379.823999998,2045.0
379.824999998,2068.0
379.825999998,2069.0
379.826999998,2078.0
379.827999998,2082.0
379.828999998,2094.0
379.829999998,2090.0
379.830999998,2099.0
379.831999998,2108.0
379.832999998,2130.0
379.833999998,2138.0
379.834999998,2155.0
379.835999998,2152.0
379.836999998,2155.0
379.837999998,2151.0
379.838999998,2153.0
379.839999998,2161.0
379.840999998,2188.0
379.841999998,2195.0
379.842999998,2204.0
379.843999998,2197.0
379.844999998,2190.0
379.845999998,2178.0
379.846999998,2184.0
379.847999998,2190.0
379.848999998,2205.0
379.849999998,2206.0
379.850999998,2212.0
379.851999998,2210.0
379.852999998,2213.0
379.853999998,2198.0
379.854999998,2208.0
379.855999998,2212.0
379.856999998,2220.0
379.857999998,2231.0
379.858999998,2223.0
379.859999998,2216.0
379.860999998,2214.0
379.861999998,2211.0
379.862999998,2230.0
379.863999998,2223.0
379.864999998,2231.0
379.865999998,2235.0
379.866999998,2231.0
379.867999998,2227.0
379.868999998,2218.0
379.869999998,2216.0
379.870999998,2221.0
379.871999998,2223.0
379.872999998,2237.0
379.873999998,2240.0
379.874999998,2232.0
379.875999998,2230.0
379.876999998,2220.0
379.877999998,2223.0
379.878999998,2222.0
379.879999998,2225.0
379.880999998,2227.0
379.881999998,2223.0
379.882999998,2224.0
379.883999998,2230.0
379.884999998,2227.0
379.885999998,2214.0
379.886999998,2220.0
379.887999998,2221.0
379.888999998,2224.0
379.889999998,2218.0
379.890999998,2211.0
379.891999998,2198.0
379.892999998,2193.0
379.893999998,2191.0
379.894999998,2200.0
379.895999998,2191.0
379.896999998,2201.0
379.897999998,2200.0
379.898999998,2180.0
379.899999998,2170.0
379.900999998,2154.0
379.901999998,2142.0
379.902999998,2139.0
379.903999998,2133.0
379.904999998,2138.0
379.905999998,2131.0
379.906999998,2136.0
379.907999998,2130.0
379.908999998,2123.0
379.909999998,2122.0
379.910999998,2126.0
379.911999998,2127.0
379.912999998,2134.0
379.913999998,2137.0
379.914999998,2149.0
379.915999998,2132.0
379.916999998,2127.0
379.917999998,2124.0
379.918999998,2113.0
379.919999998,2119.0
379.920999998,2124.0
379.921999998,2114.0
379.922999998,2111.0
379.923999998,2096.0
379.924999998,2098.0
379.925999998,2103.0
379.926999998,2100.0
379.927999998,2091.0
379.928999998,2104.0
379.929999998,2084.0
379.930999998,2082.0
379.931999998,2070.0
379.932999998,2080.0
379.933999998,2082.0
379.934999998,2084.0
379.935999998,2084.0
379.936999998,2077.0
379.937999998,2071.0
379.938999998,2067.0
379.939999998,2055.0
379.940999998,2068.0
379.941999998,2073.0
379.942999998,2075.0
379.943999998,2070.0
379.944999998,2066.0
379.945999998,2053.0
379.946999998,2039.0
379.947999998,2019.0
379.948999998,2020.0
379.949999998,2029.0
379.950999998,2030.0
379.951999998,2011.0
379.952999998,1964.0
379.953999998,1893.0
379.954999998,1799.0
379.955999998,1693.0
379.956999998,1611.0
379.957999998,1620.0
379.958999998,1771.0
379.959999998,1987.0
379.960999998,2210.0
379.961999998,2395.0
379.962999998,2532.0
379.963999998,2634.0
379.964999998,2709.0
379.965999998,2717.0
379.966999998,2719.0
379.967999998,2669.0
379.968999998,2564.0
379.969999998,2425.0
379.970999998,2377.0
379.971999998,2338.0
379.972999998,2310.0
379.973999998,2282.0
379.974999998,2227.0
379.975999998,2173.0
379.976999998,2107.0
379.977999998,2015.0
379.978999998,1949.0
379.979999998,1890.0
379.980999998,1859.0
379.981999998,1829.0
379.982999998,1834.0
379.983999998,1825.0
379.984999998,1830.0
379.985999998,1830.0
379.986999998,1826.0
379.987999998,1826.0
379.988999998,1834.0
379.989999998,1842.0
379.990999998,1851.0
379.991999998,1845.0
379.992999998,1851.0
379.993999998,1839.0
379.994999998,1850.0
379.995999998,1858.0
379.996999998,1871.0
379.997999998,1873.0
379.998999998,1866.0
379.999999998,1864.0
380.000999998,1866.0
380.001999998,1858.0
380.002999998,1873.0
380.003999998,1877.0
380.004999998,1888.0
380.005999998,1873.0
380.006999998,1877.0
380.007999998,1871.0
380.008999998,1870.0
380.009999998,1860.0
380.010999998,1873.0
380.011999998,1881.0
380.012999998,1878.0
380.013999998,1880.0
380.014999998,1888.0
380.015999998,1870.0
380.016999998,1866.0
380.017999998,1861.0
380.018999998,1866.0
380.019999998,1857.0
380.020999998,1862.0
380.021999998,1855.0
380.022999998,1861.0
380.023999998,1855.0
380.024999998,1835.0
380.025999998,1832.0
380.026999998,1840.0
380.027999998,1838.0
380.028999998,1837.0
380.029999998,1841.0
380.030999998,1834.0
380.031999998,1821.0
380.032999998,1821.0
380.033999998,1817.0
380.034999998,1827.0
380.035999998,1821.0
380.036999998,1834.0
380.037999998,1849.0
380.038999998,1851.0
380.039999998,1839.0
380.040999998,1847.0
380.041999998,1847.0
380.042999998,1869.0
380.043999998,1867.0
380.044999998,1893.0
380.045999998,1891.0
380.046999998,1896.0
380.047999998,1901.0
380.048999998,1909.0
380.049999998,1927.0
380.050999998,1951.0
380.051999998,1964.0
380.052999998,1992.0
380.053999998,1992.0
380.054999998,2004.0
380.055999998,2000.0
380.056999998,2019.0
380.057999998,2018.0
380.058999998,2022.0
380.059999998,2026.0
380.060999998,2039.0
380.061999998,2040.0
380.062999998,2046.0
380.063999998,2038.0
380.064999998,2048.0
380.065999998,2050.0
380.066999998,2056.0
380.067999998,2058.0
380.068999998,2072.0
380.069999998,2058.0
380.070999998,2053.0
380.071999998,2045.0
380.072999998,2061.0
380.073999998,2058.0
380.074999998,2077.0
380.075999998,2070.0
380.076999998,2082.0
380.077999998,2063.0
380.078999998,2061.0
380.079999998,2045.0
380.080999998,2040.0
380.081999998,2048.0
380.082999998,2053.0
380.083999998,2041.0
380.084999998,2049.0
380.085999998,2045.0
380.086999998,2039.0
380.087999998,2024.0
380.088999998,2030.0
380.089999998,2025.0
380.090999998,2030.0
380.091999998,2038.0
380.092999998,2036.0
380.093999998,2026.0
380.094999998,2026.0
380.095999998,2007.0
380.096999998,2013.0
380.097999998,2022.0
380.098999998,2026.0
380.099999998,2016.0
380.100999998,2013.0
380.101999998,2002.0
380.102999998,2006.0
380.103999998,1990.0
380.104999998,2005.0
380.105999998,2007.0
380.106999998,2008.0
380.107999998,1999.0
380.108999998,2005.0
380.109999998,1995.0
380.110999998,1997.0
380.111999998,1993.0
380.112999998,2005.0
380.113999998,2007.0
380.114999998,2008.0
380.115999998,2004.0
380.116999998,2010.0
380.117999998,2001.0
380.118999998,2000.0
380.119999998,1991.0
380.120999998,1994.0
380.121999998,1999.0
380.122999998,2008.0
380.123999998,1997.0
380.124999998,1988.0
380.125999998,1995.0
380.126999998,1979.0
380.127999998,1982.0
380.128999998,2003.0
380.129999998,2001.0
380.130999998,2010.0
380.131999998,2015.0
380.132999998,1998.0
380.133999998,1991.0
380.134999998,1985.0
380.135999998,1993.0
380.136999998,1998.0
380.137999998,1999.0
380.138999998,1999.0
380.139999998,2004.0
380.140999998,1992.0
380.141999998,1996.0
380.142999998,2000.0
380.143999998,1992.0
380.144999998,2011.0
380.145999998,2006.0
380.146999998,2022.0
380.147999998,2014.0
380.148999998,2006.0
380.149999998,2001.0
380.150999998,2005.0
380.151999998,2010.0
380.152999998,2003.0
380.153999998,2006.0
380.154999998,2016.0
380.155999998,2009.0
380.156999998,2009.0
380.157999998,1997.0
380.158999998,2001.0
380.159999998,2010.0
380.160999998,2012.0
380.161999998,2016.0
380.162999998,2019.0
380.163999998,2008.0
380.164999998,2016.0
380.165999998,1998.0
380.166999998,2000.0
380.167999998,2003.0
380.168999998,2010.0
380.169999998,2012.0
380.170999998,2026.0
380.171999998,2003.0
380.172999998,2007.0
380.173999998,1999.0
380.174999998,2007.0
380.175999998,2004.0
380.176999998,2004.0
380.177999998,2007.0
380.178999998,2005.0
380.179999998,1996.0
380.180999998,1981.0
380.181999998,1966.0
380.182999998,1985.0
380.183999998,1973.0
380.184999998,1982.0
380.185999998,1992.0
380.186999998,2001.0
380.187999998,1981.0
380.188999998,1976.0
380.189999998,1977.0
380.190999998,2002.0
380.191999998,1995.0
380.192999998,2020.0
380.193999998,2014.0
380.194999998,2021.0
380.195999998,2012.0
380.196999998,2014.0
380.197999998,2028.0
380.198999998,2032.0
380.199999998,2036.0
380.200999998,2040.0
380.201999998,2052.0
380.202999998,2049.0
380.203999998,2050.0
380.204999998,2042.0
380.205999998,2032.0
380.206999998,2043.0
380.207999998,2037.0
380.208999998,2037.0
380.209999998,2036.0
380.210999998,2035.0
380.211999998,2031.0
380.212999998,2021.0
380.213999998,2035.0
380.214999998,2037.0
380.215999998,2037.0
380.216999998,2041.0
380.217999998,2045.0
380.218999998,2044.0
380.219999998,2018.0
380.220999998,2021.0
380.221999998,2027.0
380.222999998,2011.0
380.223999998,2019.0
380.224999998,2022.0
380.225999998,2009.0
380.226999998,2000.0
380.227999998,1992.0
380.228999998,2029.0
380.229999998,1988.0
380.230999998,1988.0
380.231999998,1926.0
380.232999998,1837.0
380.233999998,1710.0
380.234999998,1646.0
380.235999998,1619.0
380.236999998,1792.0
380.237999998,2025.0
380.238999998,2281.0
380.239999998,2503.0
380.240999998,2632.0
380.241999998,2732.0
380.242999998,2800.0
380.243999998,2801.0
380.244999998,2811.0
380.245999998,2746.0
380.246999998,2631.0
380.247999998,2488.0
380.248999998,2417.0
380.249999998,2364.0
380.250999998,2301.0
380.251999998,2230.0
380.252999998,2186.0
380.253999998,2113.0
380.254999998,2036.0
380.255999998,1940.0
380.256999998,1860.0
380.257999998,1828.0
380.258999998,1781.0
380.259999998,1754.0
380.260999998,1745.0
380.261999998,1740.0
380.262999998,1752.0
380.263999998,1751.0
380.264999998,1750.0
380.265999998,1752.0
380.266999998,1753.0
380.267999998,1755.0
380.268999998,1764.0
380.269999998,1759.0
380.270999998,1773.0
380.271999998,1752.0
380.272999998,1788.0
380.273999998,1781.0
380.274999998,1782.0
380.275999998,1796.0
380.276999998,1802.0
380.277999998,1775.0
380.278999998,1812.0
380.279999998,1792.0
380.280999998,1813.0
380.281999998,1832.0
380.282999998,1821.0
380.283999998,1814.0
380.284999998,1838.0
380.285999998,1845.0
380.286999998,1853.0
380.287999998,1842.0
380.288999998,1850.0
380.289999998,1848.0
380.290999998,1851.0
380.291999998,1850.0
380.292999998,1861.0
380.293999998,1856.0
380.294999998,1863.0
380.295999998,1866.0
380.296999998,1862.0
380.297999998,1851.0
380.298999998,1865.0
380.299999998,1864.0
380.300999998,1855.0
380.301999998,1853.0
380.302999998,1860.0
380.303999998,1845.0
380.304999998,1834.0
380.305999998,1824.0
380.306999998,1836.0
380.307999998,1836.0
380.308999998,1842.0
380.309999998,1841.0
380.310999998,1850.0
380.311999998,1850.0
380.312999998,1850.0
380.313999998,1846.0
380.314999998,1852.0
380.315999998,1865.0
380.316999998,1871.0
380.317999998,1878.0
380.318999998,1885.0
380.319999998,1886.0
380.320999998,1887.0
380.321999998,1893.0
380.322999998,1914.0
380.323999998,1925.0
380.324999998,1950.0
380.325999998,1953.0
380.326999998,1976.0
380.327999998,1976.0
380.328999998,1994.0
380.329999998,2005.0
380.330999998,2029.0
380.331999998,2041.0
380.332999998,2054.0
380.333999998,2069.0
380.334999998,2074.0
380.335999998,2085.0
380.336999998,2089.0
380.337999998,2088.0
380.338999998,2111.0
380.339999998,2113.0
380.340999998,2134.0
380.341999998,2131.0
380.342999998,2138.0
380.343999998,2139.0
380.344999998,2131.0
380.345999998,2135.0
380.346999998,2147.0
380.347999998,2133.0
380.348999998,2142.0
380.349999998,2143.0
380.350999998,2144.0
380.351999998,2137.0
380.352999998,2138.0
380.353999998,2127.0
380.354999998,2148.0
380.355999998,2140.0
380.356999998,2143.0
380.357999998,2143.0
380.358999998,2140.0
380.359999998,2138.0
380.360999998,2137.0
380.361999998,2129.0
380.362999998,2146.0
380.363999998,2137.0
380.364999998,2144.0
380.365999998,2133.0
380.366999998,2133.0
380.367999998,2121.0
380.368999998,2125.0
380.369999998,2123.0
380.370999998,2132.0
380.371999998,2141.0
380.372999998,2135.0
380.373999998,2129.0
380.374999998,2118.0
380.375999998,2112.0
380.376999998,2104.0
380.377999998,2101.0
380.378999998,2103.0
380.379999998,2110.0
380.380999998,2106.0
380.381999998,2097.0
380.382999998,2097.0
380.383999998,2088.0
380.384999998,2085.0
380.385999998,2082.0
380.386999998,2094.0
380.387999998,2088.0
380.388999998,2094.0
380.389999998,2078.0
380.390999998,2084.0
380.391999998,2072.0
380.392999998,2068.0
380.393999998,2070.0
380.394999998,2074.0
380.395999998,2068.0
380.396999998,2071.0
380.397999998,2073.0
380.398999998,2061.0
380.399999998,2055.0
380.400999998,2060.0
380.401999998,2060.0
380.402999998,2062.0
380.403999998,2056.0
380.404999998,2065.0
380.405999998,2058.0
380.406999998,2065.0
380.407999998,2046.0
380.408999998,2050.0
380.409999998,2050.0
380.410999998,2056.0
380.411999998,2058.0
380.412999998,2056.0
380.413999998,2050.0
380.414999998,2045.0
380.415999998,2043.0
380.416999998,2051.0
380.417999998,2053.0
380.418999998,2050.0
380.419999998,2048.0
380.420999998,2050.0
380.421999998,2037.0
380.422999998,2036.0
380.423999998,2041.0
380.424999998,2040.0
380.425999998,2034.0
380.426999998,2043.0
380.427999998,2041.0
380.428999998,2037.0
380.429999998,2031.0
380.430999998,2034.0
380.431999998,2042.0
380.432999998,2046.0
380.433999998,2034.0
380.434999998,2029.0
380.435999998,2032.0
380.436999998,2037.0
380.437999998,2025.0
380.438999998,2026.0
380.439999998,2033.0
380.440999998,2034.0
380.441999998,2032.0
380.442999998,2034.0
380.443999998,2028.0
380.444999998,2031.0
380.445999998,2029.0
380.446999998,2033.0
380.447999998,2029.0
380.448999998,2029.0
380.449999998,2028.0
380.450999998,2029.0
380.451999998,2024.0
380.452999998,2026.0
380.453999998,2021.0
380.454999998,2015.0
380.455999998,2008.0
380.456999998,2017.0
380.457999998,2015.0
380.458999998,2022.0
380.459999998,2021.0
380.460999998,2021.0
380.461999998,2017.0
380.462999998,2026.0
380.463999998,2029.0
380.464999998,2023.0
380.465999998,2015.0
380.466999998,2013.0
380.467999998,2000.0
380.468999998,1994.0
380.469999998,1985.0
380.470999998,1981.0
380.471999998,1979.0
380.472999998,1976.0
380.473999998,1968.0
380.474999998,1963.0
380.475999998,1962.0
380.476999998,1969.0
380.477999998,1972.0
380.478999998,1973.0
380.479999998,1974.0
380.480999998,1987.0
380.481999998,1984.0
380.482999998,1981.0
380.483999998,1982.0
380.484999998,1994.0
380.485999998,1985.0
380.486999998,1991.0
380.487999998,2005.0
380.488999998,2003.0
380.489999998,1996.0
380.490999998,2014.0
380.491999998,2005.0
380.492999998,2013.0
380.493999998,2011.0
380.494999998,2027.0
380.495999998,2045.0
380.496999998,2033.0
380.497999998,2033.0
380.498999998,2032.0
380.499999998,2024.0
380.500999998,2009.0
380.501999998,1994.0
380.502999998,2007.0
380.503999998,2013.0
380.504999998,2018.0
380.505999998,2019.0
380.506999998,2016.0
380.507999998,2004.0
380.508999998,2001.0
380.509999998,2003.0
380.510999998,2010.0
380.511999998,2010.0
380.512999998,2019.0
380.513999998,2023.0
380.514999998,2016.0
380.515999998,2001.0
380.516999998,2003.0
380.517999998,1996.0
380.518999998,1991.0
380.519999998,1993.0
380.520999998,1996.0
380.521999998,1973.0
380.522999998,1947.0
380.523999998,1866.0
380.524999998,1785.0
380.525999998,1669.0
380.526999998,1617.0
380.527999998,1654.0
380.528999998,1877.0
380.529999998,2087.0
380.530999998,2364.0
380.531999998,2518.0
380.532999998,2630.0
380.533999998,2734.0
380.534999998,2787.0
380.535999998,2797.0
380.536999998,2800.0
380.537999998,2716.0
380.538999998,2547.0
380.539999998,2429.0
380.540999998,2376.0
380.541999998,2311.0
380.542999998,2259.0
380.543999998,2211.0
380.544999998,2159.0
380.545999998,2071.0
380.546999998,1989.0
380.547999998,1891.0
380.548999998,1828.0
380.549999998,1785.0
380.550999998,1753.0
380.551999998,1745.0
380.552999998,1748.0
380.553999998,1743.0
380.554999998,1743.0
380.555999998,1733.0
380.556999998,1750.0
380.557999998,1748.0
380.558999998,1755.0
380.559999998,1772.0
380.560999998,1775.0
380.561999998,1772.0
380.562999998,1774.0
380.563999998,1780.0
380.564999998,1785.0
380.565999998,1789.0
380.566999998,1792.0
380.567999998,1793.0
380.568999998,1791.0
380.569999998,1793.0
380.570999998,1787.0
380.571999998,1803.0
380.572999998,1819.0
380.573999998,1818.0
380.574999998,1820.0
380.575999998,1826.0
380.576999998,1832.0
380.577999998,1820.0
380.578999998,1816.0
380.579999998,1811.0
380.580999998,1815.0
380.581999998,1821.0
380.582999998,1823.0
380.583999998,1828.0
380.584999998,1836.0
380.585999998,1824.0
380.586999998,1824.0
380.587999998,1824.0
380.588999998,1820.0
380.589999998,1821.0
380.590999998,1825.0
380.591999998,1822.0
380.592999998,1818.0
380.593999998,1801.0
380.594999998,1806.0
380.595999998,1808.0
380.596999998,1819.0
380.597999998,1816.0
380.598999998,1814.0
380.599999998,1816.0
380.600999998,1829.0
380.601999998,1817.0
380.602999998,1812.0
380.603999998,1816.0
380.604999998,1832.0
380.605999998,1840.0
380.606999998,1842.0
380.607999998,1846.0
380.608999998,1860.0
380.609999998,1854.0
380.610999998,1863.0
380.611999998,1872.0
380.612999998,1891.0
380.613999998,1888.0
380.614999998,1891.0
380.615999998,1909.0
380.616999998,1918.0
380.617999998,1917.0
380.618999998,1950.0
380.619999998,1965.0
380.620999998,1991.0
380.621999998,1999.0
380.622999998,2022.0
380.623999998,2029.0
380.624999998,2045.0
380.625999998,2053.0
380.626999998,2072.0
380.627999998,2091.0
380.628999998,2098.0
380.629999998,2102.0
380.630999998,2116.0
380.631999998,2116.0
380.632999998,2118.0
380.633999998,2108.0
380.634999998,2128.0
380.635999998,2130.0
380.636999998,2131.0
380.637999998,2143.0
380.638999998,2151.0
380.639999998,2148.0
380.640999998,2154.0
380.641999998,2140.0
380.642999998,2137.0
380.643999998,2146.0
380.644999998,2157.0
380.645999998,2152.0
380.646999998,2146.0
380.647999998,2141.0
380.648999998,2141.0
380.649999998,2123.0
380.650999998,2124.0
380.651999998,2137.0
380.652999998,2129.0
380.653999998,2118.0
380.654999998,2135.0
380.655999998,2113.0
380.656999998,2112.0
380.657999998,2108.0
380.658999998,2112.0
380.659999998,2104.0
380.660999998,2116.0
380.661999998,2112.0
380.662999998,2110.0
380.663999998,2111.0
380.664999998,2118.0
380.665999998,2119.0
380.666999998,2115.0
380.667999998,2116.0
380.668999998,2120.0
380.669999998,2111.0
380.670999998,2111.0
380.671999998,2110.0
380.672999998,2117.0
380.673999998,2121.0
380.674999998,2118.0
380.675999998,2111.0
380.676999998,2113.0
380.677999998,2133.0
380.678999998,2106.0
380.679999998,2064.0
380.680999998,2111.0
380.681999998,2093.0
380.682999998,2125.0
380.683999998,2091.0
380.684999998,2114.0
380.685999998,2103.0
380.686999998,2103.0
380.687999998,2095.0
380.688999998,2093.0
380.689999998,2078.0
380.690999998,2063.0
380.691999998,2072.0
380.692999998,2075.0
380.693999998,2064.0
380.694999998,2057.0
380.695999998,2063.0
380.696999998,2052.0
380.697999998,2056.0
380.698999998,2050.0
380.699999998,2060.0
380.700999998,2067.0
380.701999998,2058.0
380.702999998,2044.0
380.703999998,2038.0
380.704999998,2044.0
380.705999998,2041.0
380.706999998,2050.0
380.707999998,2049.0
380.708999998,2057.0
380.709999998,2047.0
380.710999998,2052.0
380.711999998,2044.0
380.712999998,2050.0
380.713999998,2049.0
380.714999998,2058.0
380.715999998,2065.0
380.716999998,2084.0
380.717999998,2074.0
380.718999998,2081.0
380.719999998,2079.0
380.720999998,2092.0
380.721999998,2087.0
380.722999998,2074.0
380.723999998,2075.0
380.724999998,2083.0
380.725999998,2081.0
380.726999998,2069.0
380.727999998,2080.0
380.728999998,2079.0
380.729999998,2079.0
380.730999998,2080.0
380.731999998,2084.0
380.732999998,2082.0
380.733999998,2085.0
380.734999998,2077.0
380.735999998,2068.0
380.736999998,2072.0
380.737999998,2078.0
380.738999998,2069.0
380.739999998,2075.0
380.740999998,2070.0
380.741999998,2063.0
380.742999998,2062.0
380.743999998,2055.0
380.744999998,2075.0
380.745999998,2069.0
380.746999998,2063.0
380.747999998,2074.0
380.748999998,2070.0
380.749999998,2062.0
380.750999998,2047.0
380.751999998,2051.0
380.752999998,2057.0
380.753999998,2061.0
380.754999998,2061.0
380.755999998,2060.0
380.756999998,2065.0
380.757999998,2049.0
380.758999998,2043.0
380.759999998,2057.0
380.760999998,2074.0
380.761999998,2072.0
380.762999998,2062.0
380.763999998,2055.0
380.764999998,2065.0
380.765999998,2055.0
380.766999998,2043.0
380.767999998,2048.0
380.768999998,2049.0
380.769999998,2051.0
380.770999998,2058.0
380.771999998,2052.0
380.772999998,2052.0
380.773999998,2045.0
380.774999998,2040.0
380.775999998,2047.0
380.776999998,2049.0
380.777999998,2050.0
380.778999998,2057.0
380.779999998,2051.0
380.780999998,2051.0
380.781999998,2042.0
380.782999998,2038.0
380.783999998,2041.0
380.784999998,2047.0
380.785999998,2041.0
380.786999998,2055.0
380.787999998,2041.0
380.788999998,2047.0
380.789999998,2038.0
380.790999998,2037.0
380.791999998,2035.0
380.792999998,2024.0
380.793999998,2023.0
380.794999998,2014.0
380.795999998,2018.0
380.796999998,2008.0
380.797999998,2016.0
380.798999998,2011.0
380.799999998,2009.0
380.800999998,2024.0
380.801999998,2024.0
380.802999998,2015.0
380.803999998,2002.0
380.804999998,2003.0
380.805999998,1998.0
380.806999998,2005.0
380.807999998,1993.0
380.808999998,2013.0
380.809999998,2000.0
380.810999998,1988.0
380.811999998,1974.0
380.812999998,1967.0
380.813999998,1974.0
380.814999998,1977.0
380.815999998,1987.0
380.816999998,1993.0
380.817999998,1993.0
380.818999998,1980.0
380.819999998,1981.0
380.820999998,1983.0
380.821999998,1995.0
380.822999998,2013.0
380.823999998,2017.0
380.824999998,2022.0
380.825999998,2020.0
380.826999998,2017.0
380.827999998,2015.0
380.828999998,2011.0
380.829999998,2011.0
380.830999998,2020.0
380.831999998,2016.0
380.832999998,2034.0
380.833999998,2031.0
380.834999998,2026.0
380.835999998,2016.0
380.836999998,2020.0
380.837999998,2024.0
380.838999998,2020.0
380.839999998,2015.0
380.840999998,2018.0
380.841999998,2014.0
380.842999998,2023.0
380.843999998,2018.0
380.844999998,2027.0
380.845999998,2033.0
380.846999998,2051.0
380.847999998,2048.0
380.848999998,2048.0
380.849999998,2043.0
380.850999998,2032.0
380.851999998,2028.0
380.852999998,2036.0
380.853999998,2041.0
380.854999998,2027.0
380.855999998,2027.0
380.856999998,2027.0
380.857999998,2019.0
380.858999998,2017.0
380.859999998,2012.0
380.860999998,2006.0
380.861999998,1976.0
380.862999998,1897.0
380.863999998,1788.0
380.864999998,1700.0
380.865999998,1668.0
380.866999998,1799.0
380.867999998,2006.0
380.868999998,2249.0
380.869999998,2481.0
380.870999998,2596.0
380.871999998,2709.0
380.872999998,2790.0
380.873999998,2817.0
380.874999998,2845.0
380.875999998,2792.0
380.876999998,2675.0
380.877999998,2513.0
380.878999998,2427.0
380.879999998,2356.0
380.880999998,2304.0
380.881999998,2244.0
380.882999998,2185.0
380.883999998,2132.0
380.884999998,2070.0
380.885999998,1983.0
380.886999998,1917.0
380.887999998,1858.0
380.888999998,1821.0
380.889999998,1784.0
380.890999998,1774.0
380.891999998,1768.0
380.892999998,1775.0
380.893999998,1765.0
380.894999998,1768.0
380.895999998,1769.0
380.896999998,1778.0
380.897999998,1779.0
380.898999998,1775.0
380.899999998,1784.0
380.900999998,1802.0
380.901999998,1794.0
380.902999998,1787.0
380.903999998,1790.0
380.904999998,1791.0
380.905999998,1791.0
380.906999998,1792.0
380.907999998,1801.0
380.908999998,1819.0
380.909999998,1811.0
380.910999998,1818.0
380.911999998,1823.0
380.912999998,1816.0
380.913999998,1816.0
380.914999998,1810.0
380.915999998,1808.0
380.916999998,1831.0
380.917999998,1825.0
380.918999998,1832.0
380.919999998,1823.0
380.920999998,1824.0
380.921999998,1815.0
380.922999998,1816.0
380.923999998,1818.0
380.924999998,1836.0
380.925999998,1841.0
380.926999998,1851.0
380.927999998,1840.0
380.928999998,1843.0
380.929999998,1835.0
380.930999998,1820.0
380.931999998,1812.0
380.932999998,1826.0
380.933999998,1822.0
380.934999998,1829.0
380.935999998,1818.0
380.936999998,1822.0
380.937999998,1811.0
380.938999998,1820.0
380.939999998,1825.0
380.940999998,1830.0
380.941999998,1834.0
380.942999998,1851.0
380.943999998,1838.0
380.944999998,1835.0
380.945999998,1842.0
380.946999998,1845.0
380.947999998,1853.0
380.948999998,1868.0
380.949999998,1870.0
380.950999998,1882.0
380.951999998,1887.0
380.952999998,1889.0
380.953999998,1909.0
380.954999998,1938.0
380.955999998,1939.0
380.956999998,1952.0
380.957999998,1965.0
380.958999998,1983.0
380.959999998,1988.0
380.960999998,2002.0
380.961999998,2014.0
380.962999998,2042.0
380.963999998,2052.0
380.964999998,2075.0
380.965999998,2088.0
380.966999998,2093.0
380.967999998,2101.0
380.968999998,2107.0
380.969999998,2101.0
380.970999998,2122.0
380.971999998,2128.0
380.972999998,2137.0
380.973999998,2144.0
380.974999998,2161.0
380.975999998,2158.0
380.976999998,2157.0
380.977999998,2153.0
380.978999998,2170.0
380.979999998,2158.0
380.980999998,2168.0
380.981999998,2170.0
380.982999998,2174.0
380.983999998,2171.0
380.984999998,2169.0
380.985999998,2173.0
380.986999998,2174.0
380.987999998,2164.0
380.988999998,2182.0
380.989999998,2163.0
380.990999998,2165.0
380.991999998,2164.0
380.992999998,2157.0
380.993999998,2163.0
380.994999998,2168.0
380.995999998,2168.0
380.996999998,2168.0
380.997999998,2143.0
380.998999998,2137.0
380.999999998,2142.0
381.000999998,2131.0
381.001999998,2136.0
381.002999998,2149.0
381.003999998,2141.0
381.004999998,2140.0
381.005999998,2128.0
381.006999998,2132.0
381.007999998,2116.0
381.008999998,2125.0
381.009999998,2122.0
381.010999998,2115.0
381.011999998,2114.0
381.012999998,2111.0
381.013999998,2099.0
381.014999998,2109.0
381.015999998,2089.0
381.016999998,2095.0
381.017999998,2097.0
381.018999998,2092.0
381.019999998,2085.0
381.020999998,2089.0
381.021999998,2085.0
381.022999998,2076.0
381.023999998,2072.0
381.024999998,2078.0
381.025999998,2083.0
381.026999998,2080.0
381.027999998,2066.0
381.028999998,2064.0
381.029999998,2061.0
381.030999998,2057.0
381.031999998,2042.0
381.032999998,2047.0
381.033999998,2050.0
381.034999998,2032.0
381.035999998,2053.0
381.036999998,2052.0
381.037999998,2052.0
381.038999998,2035.0
381.039999998,2040.0
381.040999998,2047.0
381.041999998,2055.0
381.042999998,2053.0
381.043999998,2052.0
381.044999998,2044.0
381.045999998,2041.0
381.046999998,2053.0
381.047999998,2045.0
381.048999998,2051.0
381.049999998,2048.0
381.050999998,2051.0
381.051999998,2047.0
381.052999998,2059.0
381.053999998,2052.0
381.054999998,2049.0
381.055999998,2050.0
381.056999998,2061.0
381.057999998,2055.0
381.058999998,2059.0
381.059999998,2057.0
381.060999998,2053.0
381.061999998,2045.0
381.062999998,2051.0
381.063999998,2053.0
381.064999998,2065.0
381.065999998,2059.0
381.066999998,2069.0
381.067999998,2054.0
381.068999998,2052.0
381.069999998,2050.0
381.070999998,2049.0
381.071999998,2047.0
381.072999998,2056.0
381.073999998,2054.0
381.074999998,2065.0
381.075999998,2051.0
381.076999998,2053.0
381.077999998,2043.0
381.078999998,2042.0
381.079999998,2037.0
381.080999998,2041.0
381.081999998,2041.0
381.082999998,2049.0
381.083999998,2037.0
381.084999998,2036.0
381.085999998,2032.0
381.086999998,2035.0
381.087999998,2029.0
381.088999998,2036.0
381.089999998,2027.0
381.090999998,2032.0
381.091999998,2033.0
381.092999998,2027.0
381.093999998,2024.0
381.094999998,2038.0
381.095999998,2039.0
381.096999998,2049.0
381.097999998,2036.0
381.098999998,2034.0
381.099999998,2032.0
381.100999998,2032.0
381.101999998,2023.0
381.102999998,2030.0
381.103999998,2022.0
381.104999998,2023.0
381.105999998,2020.0
381.106999998,2030.0
381.107999998,2016.0
381.108999998,2024.0
381.109999998,2031.0
381.110999998,2033.0
381.111999998,2016.0
381.112999998,2014.0
381.113999998,2016.0
381.114999998,2023.0
381.115999998,2007.0
381.116999998,2012.0
381.117999998,1993.0
381.118999998,2019.0
381.119999998,2008.0
381.120999998,2009.0
381.121999998,2011.0
381.122999998,2019.0
381.123999998,1998.0
381.124999998,1995.0
381.125999998,2007.0
381.126999998,2025.0
381.127999998,2009.0
381.128999998,2024.0
381.129999998,2013.0
381.130999998,2013.0
381.131999998,1997.0
381.132999998,1988.0
381.133999998,1991.0
381.134999998,2001.0
381.135999998,1988.0
381.136999998,1996.0
381.137999998,1999.0
381.138999998,1993.0
381.139999998,1991.0
381.140999998,1960.0
381.141999998,2000.0
381.142999998,2008.0
381.143999998,2012.0
381.144999998,2010.0
381.145999998,1981.0
381.146999998,2000.0
381.147999998,1987.0
381.148999998,1989.0
381.149999998,2007.0
381.150999998,2005.0
381.151999998,2011.0
381.152999998,2011.0
381.153999998,2011.0
381.154999998,2008.0
381.155999998,2000.0
381.156999998,2010.0
381.157999998,2004.0
381.158999998,2006.0
381.159999998,2008.0
381.160999998,2007.0
381.161999998,2001.0
381.162999998,2001.0
381.163999998,1999.0
381.164999998,1994.0
381.165999998,1996.0
381.166999998,2002.0
381.167999998,1997.0
381.168999998,2007.0
381.169999998,2006.0
381.170999998,2014.0
381.171999998,1988.0
381.172999998,2004.0
381.173999998,2010.0
381.174999998,2012.0
381.175999998,2005.0
381.176999998,2005.0
381.177999998,2004.0
381.178999998,2006.0
381.179999998,2003.0
381.180999998,2012.0
381.181999998,2018.0
381.182999998,2019.0
381.183999998,2014.0
381.184999998,2005.0
381.185999998,2001.0
381.186999998,2002.0
381.187999998,1998.0
381.188999998,2006.0
381.189999998,2004.0
381.190999998,2008.0
381.191999998,1999.0
381.192999998,2008.0
381.193999998,2002.0
381.194999998,1998.0
381.195999998,1992.0
381.196999998,1995.0
381.197999998,1986.0
381.198999998,1997.0
381.199999998,1989.0
381.200999998,1994.0
381.201999998,1987.0
381.202999998,1984.0
381.203999998,1967.0
381.204999998,1972.0
381.205999998,1972.0
381.206999998,1986.0
381.207999998,1974.0
381.208999998,1990.0
381.209999998,1993.0
381.210999998,1992.0
381.211999998,1979.0
381.212999998,1974.0
381.213999998,1979.0
381.214999998,1989.0
381.215999998,1984.0
381.216999998,1995.0
381.217999998,1995.0
381.218999998,1999.0
381.219999998,1998.0
381.220999998,2003.0
381.221999998,2005.0
381.222999998,2026.0
381.223999998,2029.0
381.224999998,2023.0
381.225999998,2011.0
381.226999998,2012.0
381.227999998,2022.0
381.228999998,2015.0
381.229999998,2012.0
381.230999998,2006.0
381.231999998,2002.0
381.232999998,2005.0
381.233999998,1986.0
381.234999998,1998.0
381.235999998,1996.0
381.236999998,2007.0
381.237999998,2005.0
381.238999998,2008.0
381.239999998,2013.0
381.240999998,2011.0
381.241999998,2012.0
381.242999998,2008.0
381.243999998,2006.0
381.244999998,2009.0
381.245999998,2006.0
381.246999998,2006.0
381.247999998,1993.0
381.248999998,2001.0
381.249999998,1988.0
381.250999998,2004.0
381.251999998,1994.0
381.252999998,1980.0
381.253999998,1935.0
381.254999998,1864.0
381.255999998,1742.0
381.256999998,1676.0
381.257999998,1671.0
381.258999998,1863.0
381.259999998,2094.0
381.260999998,2335.0
381.261999998,2516.0
381.262999998,2632.0
381.263999998,2732.0
381.264999998,2814.0
381.265999998,2815.0
381.266999998,2848.0
381.267999998,2776.0
381.268999998,2642.0
381.269999998,2478.0
381.270999998,2393.0
381.271999998,2330.0
381.272999998,2274.0
381.273999998,2225.0
381.274999998,2182.0
381.275999998,2109.0
381.276999998,2059.0
381.277999998,1972.0
381.278999998,1899.0
381.279999998,1847.0
381.280999998,1809.0
381.281999998,1776.0
381.282999998,1777.0
381.283999998,1770.0
381.284999998,1778.0
381.285999998,1780.0
381.286999998,1776.0
381.287999998,1784.0
381.288999998,1789.0
381.289999998,1785.0
381.290999998,1801.0
381.291999998,1801.0
381.292999998,1809.0
381.293999998,1811.0
381.294999998,1809.0
381.295999998,1806.0
381.296999998,1817.0
381.297999998,1818.0
381.298999998,1830.0
381.299999998,1834.0
381.300999998,1836.0
381.301999998,1838.0
381.302999998,1845.0
381.303999998,1832.0
381.304999998,1852.0
381.305999998,1846.0
381.306999998,1863.0
381.307999998,1864.0
381.308999998,1858.0
381.309999998,1854.0
381.310999998,1853.0
381.311999998,1845.0
381.312999998,1847.0
381.313999998,1854.0
381.314999998,1868.0
381.315999998,1867.0
381.316999998,1874.0
381.317999998,1876.0
381.318999998,1867.0
381.319999998,1855.0
381.320999998,1840.0
381.321999998,1853.0
381.322999998,1860.0
381.323999998,1856.0
381.324999998,1860.0
381.325999998,1848.0
381.326999998,1855.0
381.327999998,1845.0
381.328999998,1848.0
381.329999998,1866.0
381.330999998,1874.0
381.331999998,1870.0
381.332999998,1857.0
381.333999998,1866.0
381.334999998,1862.0
381.335999998,1862.0
381.336999998,1860.0
381.337999998,1873.0
381.338999998,1889.0
381.339999998,1890.0
381.340999998,1901.0
381.341999998,1908.0
381.342999998,1914.0
381.343999998,1926.0
381.344999998,1930.0
381.345999998,1935.0
381.346999998,1952.0
381.347999998,1964.0
381.348999998,1977.0
381.349999998,1984.0
381.350999998,2001.0
381.351999998,2012.0
381.352999998,2026.0
381.353999998,2042.0
381.354999998,2070.0
381.355999998,2083.0
381.356999998,2093.0
381.357999998,2100.0
381.358999998,2111.0
381.359999998,2123.0
381.360999998,2138.0
381.361999998,2143.0
381.362999998,2155.0
381.363999998,2166.0
381.364999998,2163.0
381.365999998,2155.0
381.366999998,2150.0
381.367999998,2164.0
381.368999998,2162.0
381.369999998,2167.0
381.370999998,2177.0
381.371999998,2178.0
381.372999998,2180.0
381.373999998,2174.0
381.374999998,2180.0
381.375999998,2171.0
381.376999998,2178.0
381.377999998,2175.0
381.378999998,2180.0
381.379999998,2186.0
381.380999998,2179.0
381.381999998,2170.0
381.382999998,2180.0
381.383999998,2166.0
381.384999998,2169.0
381.385999998,2169.0
381.386999998,2174.0
381.387999998,2163.0
381.388999998,2151.0
381.389999998,2143.0
381.390999998,2149.0
381.391999998,2163.0
381.392999998,2151.0
381.393999998,2140.0
381.394999998,2148.0
381.395999998,2140.0
381.396999998,2137.0
381.397999998,2132.0
381.398999998,2120.0
381.399999998,2124.0
381.400999998,2124.0
381.401999998,2117.0
381.402999998,2113.0
381.403999998,2115.0
381.404999998,2101.0
381.405999998,2090.0
381.406999998,2099.0
381.407999998,2109.0
381.408999998,2102.0
381.409999998,2099.0
381.410999998,2106.0
381.411999998,2105.0
381.412999998,2096.0
381.413999998,2092.0
381.414999998,2101.0
381.415999998,2092.0
381.416999998,2083.0
381.417999998,2076.0
381.418999998,2083.0
381.419999998,2076.0
381.420999998,2070.0
381.421999998,2058.0
381.422999998,2084.0
381.423999998,2080.0
381.424999998,2080.0
381.425999998,2084.0
381.426999998,2076.0
381.427999998,2073.0
381.428999998,2067.0
381.429999998,2065.0
381.430999998,2086.0
381.431999998,2088.0
381.432999998,2094.0
381.433999998,2081.0
381.434999998,2080.0
381.435999998,2072.0
381.436999998,2075.0
381.437999998,2078.0
381.438999998,2081.0
381.439999998,2077.0
381.440999998,2081.0
381.441999998,2075.0
381.442999998,2078.0
381.443999998,2069.0
381.444999998,2076.0
381.445999998,2078.0
381.446999998,2081.0
381.447999998,2080.0
381.448999998,2090.0
381.449999998,2084.0
381.450999998,2090.0
381.451999998,2073.0
381.452999998,2071.0
381.453999998,2076.0
381.454999998,2090.0
381.455999998,2083.0
381.456999998,2088.0
381.457999998,2090.0
381.458999998,2098.0
381.459999998,2089.0
381.460999998,2090.0
381.461999998,2088.0
381.462999998,2095.0
381.463999998,2098.0
381.464999998,2095.0
381.465999998,2093.0
381.466999998,2094.0
381.467999998,2086.0
381.468999998,2094.0
381.469999998,2090.0
381.470999998,2102.0
381.471999998,2104.0
381.472999998,2104.0
381.473999998,2102.0
381.474999998,2106.0
381.475999998,2093.0
381.476999998,2102.0
381.477999998,2097.0
381.478999998,2105.0
381.479999998,2099.0
381.480999998,2098.0
381.481999998,2097.0
381.482999998,2100.0
381.483999998,2089.0
381.484999998,2102.0
381.485999998,2095.0
381.486999998,2105.0
381.487999998,2099.0
381.488999998,2089.0
381.489999998,2088.0
381.490999998,2084.0
381.491999998,2080.0
381.492999998,2093.0
381.493999998,2093.0
381.494999998,2113.0
381.495999998,2107.0
381.496999998,2103.0
381.497999998,2090.0
381.498999998,2084.0
381.499999998,2078.0
381.500999998,2083.0
381.501999998,2074.0
381.502999998,2089.0
381.503999998,2077.0
381.504999998,2075.0
381.505999998,2070.0
381.506999998,2034.0
381.507999998,2066.0
381.508999998,2077.0
381.509999998,2064.0
381.510999998,2072.0
381.511999998,2073.0
381.512999998,2080.0
381.513999998,2070.0
381.514999998,2073.0
381.515999998,2068.0
381.516999998,2079.0
381.517999998,2080.0
381.518999998,2084.0
381.519999998,2078.0
381.520999998,2060.0
381.521999998,2058.0
381.522999998,2044.0
381.523999998,2058.0
381.524999998,2060.0
381.525999998,2060.0
381.526999998,2061.0
381.527999998,2062.0
381.528999998,2073.0
381.529999998,2052.0
381.530999998,2053.0
381.531999998,2055.0
381.532999998,2063.0
381.533999998,2052.0
381.534999998,2067.0
381.535999998,2065.0
381.536999998,2059.0
381.537999998,2049.0
381.538999998,2050.0
381.539999998,2047.0
381.540999998,2058.0
381.541999998,2055.0
381.542999998,2066.0
381.543999998,2064.0
381.544999998,2069.0
381.545999998,2065.0
381.546999998,2062.0
381.547999998,2057.0
381.548999998,2069.0
381.549999998,2056.0
381.550999998,2063.0
381.551999998,2050.0
381.552999998,2053.0
381.553999998,2037.0
381.554999998,2050.0
381.555999998,2049.0
381.556999998,2053.0
381.557999998,2052.0
381.558999998,2058.0
381.559999998,2049.0
381.560999998,2058.0
381.561999998,2056.0
381.562999998,2058.0
381.563999998,2030.0
381.564999998,2062.0
381.565999998,2054.0
381.566999998,2056.0
381.567999998,2043.0
381.568999998,2042.0
381.569999998,2037.0
381.570999998,2049.0
381.571999998,2038.0
381.572999998,2052.0
381.573999998,2046.0
381.574999998,2053.0
381.575999998,2039.0
381.576999998,2047.0
381.577999998,2046.0
381.578999998,2046.0
381.579999998,2059.0
381.580999998,2054.0
381.581999998,2051.0
381.582999998,2055.0
381.583999998,2056.0
381.584999998,2049.0
381.585999998,2039.0
381.586999998,2048.0
381.587999998,2059.0
381.588999998,2062.0
381.589999998,2049.0
381.590999998,2047.0
381.591999998,2077.0
381.592999998,2049.0
381.593999998,2043.0
381.594999998,2043.0
381.595999998,2037.0
381.596999998,2017.0
381.597999998,2027.0
381.598999998,2042.0
381.599999998,2045.0
381.600999998,2020.0
381.601999998,2019.0
381.602999998,2060.0
381.603999998,2045.0
381.604999998,2044.0
381.605999998,2040.0
381.606999998,2045.0
381.607999998,2035.0
381.608999998,2038.0
381.609999998,2030.0
381.610999998,2046.0
381.611999998,2047.0
381.612999998,2058.0
381.613999998,2061.0
381.614999998,2052.0
381.615999998,2052.0
381.616999998,2056.0
381.617999998,2062.0
381.618999998,2070.0
381.619999998,2076.0
381.620999998,2073.0
381.621999998,2078.0
381.622999998,2074.0
381.623999998,2071.0
381.624999998,2071.0
381.625999998,2066.0
381.626999998,2070.0
381.627999998,2057.0
381.628999998,2063.0
381.629999998,2048.0
381.630999998,2044.0
381.631999998,2044.0
381.632999998,2046.0
381.633999998,2054.0
381.634999998,2044.0
381.635999998,2060.0
381.636999998,2060.0
381.637999998,2049.0
381.638999998,2050.0
381.639999998,2044.0
381.640999998,2050.0
381.641999998,2049.0
381.642999998,2043.0
381.643999998,2037.0
381.644999998,2037.0
381.645999998,2028.0
381.646999998,2032.0
381.647999998,2031.0
381.648999998,2018.0
381.649999998,1998.0
381.650999998,1925.0
381.651999998,1833.0
381.652999998,1738.0
381.653999998,1678.0
381.654999998,1722.0
381.655999998,1919.0
381.656999998,2151.0
381.657999998,2396.0
381.658999998,2573.0
381.659999998,2670.0
381.660999998,2765.0
381.661999998,2823.0
381.662999998,2832.0
381.663999998,2836.0
381.664999998,2748.0
381.665999998,2603.0
381.666999998,2460.0
381.667999998,2379.0
381.668999998,2332.0
381.669999998,2270.0
381.670999998,2220.0
381.671999998,2175.0
381.672999998,2128.0
381.673999998,2061.0
381.674999998,1980.0
381.675999998,1912.0
381.676999998,1864.0
381.677999998,1829.0
381.678999998,1796.0
381.679999998,1793.0
381.680999998,1798.0
381.681999998,1788.0
381.682999998,1798.0
381.683999998,1795.0
381.684999998,1814.0
381.685999998,1807.0
381.686999998,1804.0
381.687999998,1804.0
381.688999998,1817.0
381.689999998,1814.0
381.690999998,1827.0
381.691999998,1818.0
381.692999998,1833.0
381.693999998,1820.0
381.694999998,1821.0
381.695999998,1830.0
381.696999998,1846.0
381.697999998,1853.0
381.698999998,1868.0
381.699999998,1866.0
381.700999998,1861.0
381.701999998,1854.0
381.702999998,1852.0
381.703999998,1857.0
381.704999998,1866.0
381.705999998,1872.0
381.706999998,1873.0
381.707999998,1861.0
381.708999998,1864.0
381.709999998,1860.0
381.710999998,1863.0
381.711999998,1868.0
381.712999998,1921.0
381.713999998,1883.0
381.714999998,1882.0
381.715999998,1867.0
381.716999998,1869.0
381.717999998,1859.0
381.718999998,1868.0
381.719999998,1863.0
381.720999998,1865.0
381.721999998,1864.0
381.722999998,1879.0
381.723999998,1866.0
381.724999998,1862.0
381.725999998,1857.0
381.726999998,1864.0
