392.153999998,4080.0
392.154999998,4075.0
392.155999998,4079.0
392.156999998,4083.0
392.157999998,4085.0
392.158999998,4078.0
392.159999998,4081.0
392.160999998,4076.0
392.161999998,4079.0
392.162999998,4077.0
392.163999998,4080.0
392.164999998,4074.0
392.165999998,4082.0
392.166999998,4075.0
392.167999998,4073.0
392.168999998,4073.0
392.169999998,4081.0
392.170999998,4079.0
392.171999998,4074.0
392.172999998,4079.0
392.173999998,4077.0
392.174999998,4082.0
392.175999998,4076.0
392.176999998,4074.0
392.177999998,4080.0
392.178999998,4081.0
392.179999998,4074.0
392.180999998,4076.0
392.181999998,4079.0
392.182999998,4081.0
392.183999998,4074.0
392.184999998,4083.0
392.185999998,4085.0
392.186999998,4084.0
392.187999998,4076.0
392.188999998,4081.0
392.189999998,4080.0
392.190999998,4075.0
392.191999998,4075.0
392.192999998,4083.0
392.193999998,4083.0
392.194999998,4077.0
392.195999998,4079.0
392.196999998,4081.0
392.197999998,4078.0
392.198999998,4084.0
392.199999998,4078.0
392.200999998,4074.0
392.201999998,4079.0
392.202999998,4084.0
392.203999998,4078.0
392.204999998,4078.0
392.205999998,4074.0
392.206999998,4081.0
392.207999998,3999.0
392.208999998,2456.0
392.209999998,2066.0
392.210999998,1633.0
392.211999998,1010.0
392.212999998,25.0
392.213999998,15.0
392.214999998,11.0
392.215999998,20.0
392.216999998,20.0
392.217999998,21.0
392.218999998,15.0
392.219999998,14.0
392.220999998,21.0
392.221999998,23.0
392.222999998,13.0
392.223999998,12.0
392.224999998,13.0
392.225999998,11.0
392.226999998,14.0
392.227999998,16.0
392.228999998,18.0
392.229999998,20.0
392.230999998,19.0
392.231999998,13.0
392.232999998,11.0
392.233999998,17.0
392.234999998,17.0
392.235999998,19.0
392.236999998,12.0
392.237999998,12.0
392.238999998,14.0
392.239999998,8.0
392.240999998,19.0
392.241999998,9.0
392.242999998,5.0
392.243999998,9.0
392.244999998,9.0
392.245999998,9.0
392.246999998,13.0
392.247999998,9.0
392.248999998,8.0
392.249999998,8.0
392.250999998,14.0
392.251999998,10.0
392.252999998,5.0
392.253999998,9.0
392.254999998,7.0
392.255999998,17.0
392.256999998,7.0
392.257999998,15.0
392.258999998,4.0
392.259999998,18.0
392.260999998,28.0
392.261999998,16.0
392.262999998,25.0
392.263999998,5.0
392.264999998,17.0
392.265999998,22.0
392.266999998,15.0
392.267999998,26.0
392.268999998,20.0
392.269999998,4.0
392.270999998,6.0
392.271999998,10.0
392.272999998,4.0
392.273999998,7.0
392.274999998,13.0
392.275999998,13.0
392.276999998,0.0
392.277999998,0.0
392.278999998,13.0
392.279999998,9.0
392.280999998,12.0
392.281999998,5.0
392.282999998,92.0
392.283999998,1346.0
392.284999998,2752.0
392.285999998,3527.0
392.286999998,4067.0
392.287999998,4069.0
392.288999998,4061.0
392.289999998,4068.0
392.290999998,4071.0
392.291999998,4069.0
392.292999998,4065.0
392.293999998,4071.0
392.294999998,4069.0
392.295999998,4072.0
392.296999998,4073.0
392.297999998,4070.0
392.298999998,4071.0
392.299999998,4069.0
392.300999998,3038.0
392.301999998,1885.0
392.302999998,1072.0
392.303999998,1093.0
392.304999998,1538.0
392.305999998,2255.0
392.306999998,2088.0
392.307999998,2257.0
392.308999998,2302.0
392.309999998,1627.0
392.310999998,2123.0
392.311999998,2910.0
392.312999998,3120.0
392.313999998,3204.0
392.314999998,3284.0
392.315999998,3417.0
392.316999998,3226.0
392.317999998,3440.0
392.318999998,4068.0
392.319999998,4071.0
392.320999998,4070.0
392.321999998,4071.0
392.322999998,4066.0
392.323999998,4071.0
392.324999998,4068.0
392.325999998,4073.0
392.326999998,4064.0
392.327999998,4064.0
392.328999998,4073.0
392.329999998,4068.0
392.330999998,4076.0
392.331999998,4067.0
392.332999998,4070.0
392.333999998,3847.0
392.334999998,3237.0
392.335999998,1622.0
392.336999998,652.0
392.337999998,447.0
392.338999998,119.0
392.339999998,128.0
392.340999998,116.0
392.341999998,123.0
392.342999998,414.0
392.343999998,13.0
392.344999998,17.0
392.345999998,8.0
392.346999998,9.0
392.347999998,17.0
392.348999998,10.0
392.349999998,18.0
392.350999998,11.0
392.351999998,8.0
392.352999998,14.0
392.353999998,16.0
392.354999998,11.0
392.355999998,9.0
392.356999998,17.0
392.357999998,14.0
392.358999998,14.0
392.359999998,14.0
392.360999998,14.0
392.361999998,16.0
392.362999998,11.0
392.363999998,16.0
392.364999998,16.0
392.365999998,6.0
392.366999998,12.0
392.367999998,15.0
392.368999998,8.0
392.369999998,12.0
392.370999998,17.0
392.371999998,11.0
392.372999998,5.0
392.373999998,15.0
392.374999998,13.0
392.375999998,5.0
392.376999998,5.0
392.377999998,5.0
392.378999998,11.0
392.379999998,14.0
392.380999998,1768.0
392.381999998,4071.0
392.382999998,4066.0
392.383999998,4067.0
392.384999998,4062.0
392.385999998,4066.0
392.386999998,4065.0
392.387999998,4072.0
392.388999998,4066.0
392.389999998,4073.0
392.390999998,4071.0
392.391999998,4072.0
392.392999998,4068.0
392.393999998,4075.0
392.394999998,4068.0
392.395999998,4073.0
392.396999998,4070.0
392.397999998,4075.0
392.398999998,4061.0
392.399999998,4075.0
392.400999998,4076.0
392.401999998,4071.0
392.402999998,4073.0
392.403999998,4074.0
392.404999998,4072.0
392.405999998,4068.0
392.406999998,4067.0
392.407999998,4072.0
392.408999998,4071.0
392.409999998,4068.0
392.410999998,4068.0
392.411999998,4068.0
392.412999998,4078.0
392.413999998,4071.0
392.414999998,4069.0
392.415999998,4069.0
392.416999998,4080.0
392.417999998,4070.0
392.418999998,4068.0
392.419999998,4074.0
392.420999998,4079.0
392.421999998,4070.0
392.422999998,4079.0
392.423999998,4068.0
392.424999998,4069.0
392.425999998,4068.0
392.426999998,4066.0
392.427999998,4071.0
392.428999998,4068.0
392.429999998,4069.0
392.430999998,4075.0
392.431999998,4074.0
392.432999998,4077.0
392.433999998,4072.0
392.434999998,4077.0
392.435999998,4075.0
392.436999998,4073.0
392.437999998,4074.0
392.438999998,4071.0
392.439999998,4079.0
392.440999998,2822.0
392.441999998,102.0
392.442999998,18.0
392.443999998,14.0
392.444999998,21.0
392.445999998,16.0
392.446999998,12.0
392.447999998,11.0
392.448999998,12.0
392.449999998,18.0
392.450999998,16.0
392.451999998,11.0
392.452999998,18.0
392.453999998,19.0
392.454999998,10.0
392.455999998,8.0
392.456999998,17.0
392.457999998,17.0
392.458999998,17.0
392.459999998,12.0
392.460999998,18.0
392.461999998,16.0
392.462999998,11.0
392.463999998,9.0
392.464999998,10.0
392.465999998,17.0
392.466999998,10.0
392.467999998,7.0
392.468999998,10.0
392.469999998,17.0
392.470999998,8.0
392.471999998,7.0
392.472999998,12.0
392.473999998,16.0
392.474999998,17.0
392.475999998,14.0
392.476999998,10.0
392.477999998,13.0
392.478999998,14.0
392.479999998,15.0
392.480999998,16.0
392.481999998,10.0
392.482999998,7.0
392.483999998,13.0
392.484999998,10.0
392.485999998,6.0
392.486999998,12.0
392.487999998,4.0
392.488999998,6.0
392.489999998,5.0
392.490999998,15.0
392.491999998,4.0
392.492999998,8.0
392.493999998,8.0
392.494999998,8.0
392.495999998,7.0
392.496999998,14.0
392.497999998,10.0
392.498999998,10.0
392.499999998,7.0
392.500999998,7.0
392.501999998,6.0
392.502999998,3.0
392.503999998,5.0
392.504999998,11.0
392.505999998,5.0
392.506999998,3.0
392.507999998,10.0
392.508999998,4.0
392.509999998,5.0
392.510999998,7.0
392.511999998,4.0
392.512999998,13.0
392.513999998,14.0
392.514999998,11.0
392.515999998,0.0
392.516999998,12.0
392.517999998,1.0
392.518999998,4.0
392.519999998,7.0
392.520999998,2.0
392.521999998,3.0
392.522999998,12.0
392.523999998,11.0
392.524999998,4.0
392.525999998,12.0
392.526999998,7.0
392.527999998,9.0
392.528999998,4.0
392.529999998,2550.0
392.530999998,4093.0
392.531999998,4084.0
392.532999998,4049.0
392.533999998,4062.0
392.534999998,4058.0
392.535999998,4068.0
392.536999998,4061.0
392.537999998,4062.0
392.538999998,4065.0
392.539999998,4064.0
392.540999998,4072.0
392.541999998,4071.0
392.542999998,4073.0
392.543999998,4069.0
392.544999998,4065.0
392.545999998,4068.0
392.546999998,4063.0
392.547999998,4074.0
392.548999998,4070.0
392.549999998,4070.0
392.550999998,4065.0
392.551999998,4071.0
392.552999998,4065.0
392.553999998,4064.0
392.554999998,4075.0
392.555999998,4072.0
392.556999998,4076.0
392.557999998,4069.0
392.558999998,4072.0
392.559999998,4065.0
392.560999998,4070.0
392.561999998,4066.0
392.562999998,4066.0
392.563999998,4074.0
392.564999998,4066.0
392.565999998,4069.0
392.566999998,2848.0
392.567999998,931.0
392.568999998,2338.0
392.569999998,4075.0
392.570999998,4072.0
392.571999998,4074.0
392.572999998,3009.0
392.573999998,838.0
392.574999998,8.0
392.575999998,6.0
392.576999998,16.0
392.577999998,11.0
392.578999998,15.0
392.579999998,13.0
392.580999998,7.0
392.581999998,7.0
392.582999998,8.0
392.583999998,6.0
392.584999998,13.0
392.585999998,9.0
392.586999998,1652.0
392.587999998,4040.0
392.588999998,4078.0
392.589999998,2891.0
392.590999998,1196.0
392.591999998,1149.0
392.592999998,2483.0
392.593999998,4075.0
392.594999998,4067.0
392.595999998,4066.0
392.596999998,4070.0
392.597999998,4064.0
392.598999998,4068.0
392.599999998,4078.0
392.600999998,4062.0
392.601999998,4070.0
392.602999998,4068.0
392.603999998,4077.0
392.604999998,4068.0
392.605999998,4066.0
392.606999998,4079.0
392.607999998,4067.0
392.608999998,4074.0
392.609999998,4078.0
392.610999998,4074.0
392.611999998,4076.0
392.612999998,4066.0
392.613999998,4068.0
392.614999998,4065.0
392.615999998,4072.0
392.616999998,4068.0
392.617999998,4080.0
392.618999998,4076.0
392.619999998,4070.0
392.620999998,4080.0
392.621999998,4075.0
392.622999998,4074.0
392.623999998,4078.0
392.624999998,4067.0
392.625999998,4077.0
392.626999998,4076.0
392.627999998,4078.0
392.628999998,4069.0
392.629999998,4075.0
392.630999998,4075.0
392.631999998,4067.0
392.632999998,4071.0
392.633999998,4074.0
392.634999998,4074.0
392.635999998,4072.0
392.636999998,4084.0
392.637999998,4076.0
392.638999998,4077.0
392.639999998,4077.0
392.640999998,4079.0
392.641999998,4075.0
392.642999998,4072.0
392.643999998,4071.0
392.644999998,4078.0
392.645999998,4077.0
392.646999998,4072.0
392.647999998,4075.0
392.648999998,4069.0
392.649999998,4076.0
392.650999998,4081.0
392.651999998,4081.0
392.652999998,4073.0
392.653999998,4072.0
392.654999998,4073.0
392.655999998,4081.0
392.656999998,4076.0
392.657999998,4082.0
392.658999998,4073.0
392.659999998,2361.0
392.660999998,25.0
392.661999998,13.0
392.662999998,13.0
392.663999998,24.0
392.664999998,14.0
392.665999998,19.0
392.666999998,15.0
392.667999998,22.0
392.668999998,12.0
392.669999998,18.0
392.670999998,11.0
392.671999998,11.0
392.672999998,17.0
392.673999998,13.0
392.674999998,10.0
392.675999998,11.0
392.676999998,15.0
392.677999998,19.0
392.678999998,19.0
392.679999998,9.0
392.680999998,19.0
392.681999998,11.0
392.682999998,17.0
392.683999998,19.0
392.684999998,17.0
392.685999998,7.0
392.686999998,10.0
392.687999998,6.0
392.688999998,14.0
392.689999998,16.0
392.690999998,8.0
392.691999998,8.0
392.692999998,17.0
392.693999998,8.0
392.694999998,15.0
392.695999998,16.0
392.696999998,12.0
392.697999998,15.0
392.698999998,12.0
392.699999998,17.0
392.700999998,14.0
392.701999998,10.0
392.702999998,7.0
392.703999998,5.0
392.704999998,17.0
392.705999998,2.0
392.706999998,9.0
392.707999998,2.0
392.708999998,48.0
392.709999998,8.0
392.710999998,7.0
392.711999998,8.0
392.712999998,7.0
392.713999998,12.0
392.714999998,7.0
392.715999998,3.0
392.716999998,7.0
392.717999998,12.0
392.718999998,1323.0
392.719999998,4061.0
392.720999998,4095.0
392.721999998,4095.0
392.722999998,3180.0
392.723999998,1477.0
392.724999998,2010.0
392.725999998,3164.0
392.726999998,4095.0
392.727999998,4072.0
392.728999998,4067.0
392.729999998,4048.0
392.730999998,4070.0
392.731999998,3349.0
392.732999998,3597.0
392.733999998,4070.0
392.734999998,4072.0
392.735999998,4064.0
392.736999998,4067.0
392.737999998,4074.0
392.738999998,4067.0
392.739999998,3635.0
392.740999998,4064.0
392.741999998,4066.0
392.742999998,4073.0
392.743999998,4065.0
392.744999998,4065.0
392.745999998,4042.0
392.746999998,1275.0
392.747999998,282.0
392.748999998,734.0
392.749999998,2432.0
392.750999998,4071.0
392.751999998,3720.0
392.752999998,2060.0
392.753999998,10.0
392.754999998,15.0
392.755999998,8.0
392.756999998,9.0
392.757999998,12.0
392.758999998,781.0
392.759999998,9.0
392.760999998,9.0
392.761999998,16.0
392.762999998,16.0
392.763999998,15.0
392.764999998,9.0
392.765999998,13.0
392.766999998,16.0
392.767999998,15.0
392.768999998,14.0
392.769999998,8.0
392.770999998,8.0
392.771999998,17.0
392.772999998,11.0
392.773999998,16.0
392.774999998,14.0
392.775999998,11.0
392.776999998,14.0
392.777999998,12.0
392.778999998,3.0
392.779999998,17.0
392.780999998,10.0
392.781999998,14.0
392.782999998,5.0
392.783999998,4.0
392.784999998,6.0
392.785999998,13.0
392.786999998,5.0
392.787999998,5.0
392.788999998,13.0
392.789999998,4.0
392.790999998,8.0
392.791999998,11.0
392.792999998,10.0
392.793999998,12.0
392.794999998,13.0
392.795999998,7.0
392.796999998,13.0
392.797999998,7.0
392.798999998,9.0
392.799999998,12.0
392.800999998,10.0
392.801999998,13.0
392.802999998,11.0
392.803999998,10.0
392.804999998,6.0
392.805999998,12.0
392.806999998,3.0
392.807999998,13.0
392.808999998,4.0
392.809999998,11.0
392.810999998,13.0
392.811999998,10.0
392.812999998,10.0
392.813999998,12.0
392.814999998,3.0
392.815999998,11.0
392.816999998,4.0
392.817999998,11.0
392.818999998,12.0
392.819999998,8.0
392.820999998,9.0
392.821999998,6.0
392.822999998,4.0
392.823999998,6.0
392.824999998,5.0
392.825999998,1.0
392.826999998,6.0
392.827999998,1.0
392.828999998,10.0
392.829999998,7.0
392.830999998,11.0
392.831999998,9.0
392.832999998,2.0
392.833999998,7.0
392.834999998,5.0
392.835999998,3.0
392.836999998,12.0
392.837999998,2.0
392.838999998,8.0
392.839999998,1.0
392.840999998,1.0
392.841999998,11.0
392.842999998,2.0
392.843999998,7.0
392.844999998,5.0
392.845999998,0.0
392.846999998,10.0
392.847999998,10.0
392.848999998,1.0
392.849999998,9.0
392.850999998,7.0
392.851999998,97.0
392.852999998,1865.0
392.853999998,3831.0
392.854999998,4059.0
392.855999998,3324.0
392.856999998,3966.0
392.857999998,4062.0
392.858999998,4070.0
392.859999998,4067.0
392.860999998,4070.0
392.861999998,4066.0
392.862999998,4061.0
392.863999998,1334.0
392.864999998,40.0
392.865999998,7.0
392.866999998,1311.0
392.867999998,3145.0
392.868999998,2014.0
392.869999998,2489.0
392.870999998,1764.0
392.871999998,12.0
392.872999998,11.0
392.873999998,8.0
392.874999998,6.0
392.875999998,6.0
392.876999998,14.0
392.877999998,6.0
392.878999998,5.0
392.879999998,12.0
392.880999998,4.0
392.881999998,10.0
392.882999998,9.0
392.883999998,3.0
392.884999998,9.0
392.885999998,6.0
392.886999998,7.0
392.887999998,14.0
392.888999998,14.0
392.889999998,1765.0
392.890999998,4060.0
392.891999998,4062.0
392.892999998,4064.0
392.893999998,4065.0
392.894999998,4069.0
392.895999998,4071.0
392.896999998,4067.0
392.897999998,4071.0
392.898999998,4067.0
392.899999998,4070.0
392.900999998,4064.0
392.901999998,4062.0
392.902999998,4063.0
392.903999998,4065.0
392.904999998,4062.0
392.905999998,4071.0
392.906999998,4064.0
392.907999998,4063.0
392.908999998,4070.0
392.909999998,4073.0
392.910999998,4073.0
392.911999998,4065.0
392.912999998,4069.0
392.913999998,4068.0
392.914999998,4066.0
392.915999998,4072.0
392.916999998,4064.0
392.917999998,4067.0
392.918999998,4066.0
392.919999998,4067.0
392.920999998,4068.0
392.921999998,4070.0
392.922999998,4075.0
392.923999998,1425.0
392.924999998,11.0
392.925999998,10.0
392.926999998,18.0
392.927999998,15.0
392.928999998,17.0
392.929999998,15.0
392.930999998,10.0
392.931999998,6.0
392.932999998,13.0
392.933999998,12.0
392.934999998,8.0
392.935999998,17.0
392.936999998,15.0
392.937999998,8.0
392.938999998,13.0
392.939999998,12.0
392.940999998,10.0
392.941999998,17.0
392.942999998,6.0
392.943999998,7.0
392.944999998,12.0
392.945999998,11.0
392.946999998,12.0
392.947999998,5.0
392.948999998,7.0
392.949999998,14.0
392.950999998,14.0
392.951999998,4.0
392.952999998,12.0
392.953999998,7.0
392.954999998,13.0
392.955999998,10.0
392.956999998,7.0
392.957999998,6.0
392.958999998,12.0
392.959999998,2046.0
392.960999998,4062.0
392.961999998,4061.0
392.962999998,4071.0
392.963999998,4067.0
392.964999998,4071.0
392.965999998,4062.0
392.966999998,4065.0
392.967999998,4071.0
392.968999998,4068.0
392.969999998,4066.0
392.970999998,4074.0
392.971999998,4064.0
392.972999998,4070.0
392.973999998,4073.0
392.974999998,4072.0
392.975999998,4073.0
392.976999998,4072.0
392.977999998,4065.0
392.978999998,4076.0
392.979999998,4072.0
392.980999998,4069.0
392.981999998,4068.0
392.982999998,4072.0
392.983999998,4072.0
392.984999998,4070.0
392.985999998,4076.0
392.986999998,4069.0
392.987999998,4072.0
392.988999998,4074.0
392.989999998,4073.0
392.990999998,4076.0
392.991999998,4066.0
392.992999998,4065.0
392.993999998,4078.0
392.994999998,4066.0
392.995999998,4070.0
392.996999998,4078.0
392.997999998,4072.0
392.998999998,4071.0
392.999999998,4070.0
393.000999998,4070.0
393.001999998,4069.0
393.002999998,4071.0
393.003999998,4069.0
393.004999998,4074.0
393.005999998,4072.0
393.006999998,4071.0
393.007999998,4077.0
393.008999998,4068.0
393.009999998,4068.0
393.010999998,4079.0
393.011999998,4074.0
393.012999998,4072.0
393.013999998,4067.0
393.014999998,4069.0
393.015999998,4070.0
393.016999998,4074.0
393.017999998,4070.0
393.018999998,4069.0
393.019999998,4070.0
393.020999998,4076.0
393.021999998,4072.0
393.022999998,4079.0
393.023999998,4079.0
393.024999998,4070.0
393.025999998,4076.0
393.026999998,4074.0
393.027999998,4079.0
393.028999998,4070.0
393.029999998,4072.0
393.030999998,4081.0
393.031999998,4069.0
393.032999998,4075.0
393.033999998,4072.0
393.034999998,4071.0
393.035999998,4074.0
393.036999998,4080.0
393.037999998,4079.0
393.038999998,4079.0
393.039999998,4073.0
393.040999998,4079.0
393.041999998,4075.0
393.042999998,4077.0
393.043999998,4074.0
393.044999998,4082.0
393.045999998,4080.0
393.046999998,4074.0
393.047999998,4072.0
393.048999998,4081.0
393.049999998,4076.0
393.050999998,4081.0
393.051999998,4073.0
393.052999998,4071.0
393.053999998,4079.0
393.054999998,4071.0
393.055999998,4077.0
393.056999998,4079.0
393.057999998,4073.0
393.058999998,4070.0
393.059999998,4083.0
393.060999998,4083.0
393.061999998,4075.0
393.062999998,4083.0
393.063999998,4077.0
393.064999998,4077.0
393.065999998,4075.0
393.066999998,4074.0
393.067999998,4082.0
393.068999998,4071.0
393.069999998,4083.0
393.070999998,4078.0
393.071999998,4081.0
393.072999998,4074.0
393.073999998,4077.0
393.074999998,4085.0
393.075999998,4083.0
393.076999998,4077.0
393.077999998,4075.0
393.078999998,4080.0
393.079999998,4074.0
393.080999998,4083.0
393.081999998,3467.0
393.082999998,1380.0
393.083999998,25.0
393.084999998,28.0
393.085999998,22.0
393.086999998,12.0
393.087999998,13.0
393.088999998,18.0
393.089999998,18.0
393.090999998,22.0
393.091999998,16.0
393.092999998,18.0
393.093999998,30.0
393.094999998,15.0
393.095999998,6.0
393.096999998,17.0
393.097999998,13.0
393.098999998,23.0
393.099999998,11.0
393.100999998,12.0
393.101999998,11.0
393.102999998,10.0
393.103999998,13.0
393.104999998,15.0
393.105999998,15.0
393.106999998,21.0
393.107999998,9.0
393.108999998,15.0
393.109999998,18.0
393.110999998,8.0
393.111999998,22.0
393.112999998,15.0
393.113999998,12.0
393.114999998,12.0
393.115999998,11.0
393.116999998,13.0
393.117999998,21.0
393.118999998,8.0
393.119999998,12.0
393.120999998,15.0
393.121999998,13.0
393.122999998,17.0
393.123999998,6.0
393.124999998,8.0
393.125999998,14.0
393.126999998,9.0
393.127999998,3.0
393.128999998,46.0
393.129999998,2276.0
393.130999998,4068.0
393.131999998,4067.0
393.132999998,4063.0
393.133999998,4072.0
393.134999998,4063.0
393.135999998,4066.0
393.136999998,4065.0
393.137999998,4065.0
393.138999998,4067.0
393.139999998,4063.0
393.140999998,4064.0
393.141999998,4070.0
393.142999998,4073.0
393.143999998,4076.0
393.144999998,4064.0
393.145999998,4076.0
393.146999998,4071.0
393.147999998,4068.0
393.148999998,4074.0
393.149999998,4068.0
393.150999998,4078.0
393.151999998,4068.0
393.152999998,4077.0
393.153999998,4070.0
393.154999998,4072.0
393.155999998,4067.0
393.156999998,4073.0
393.157999998,4071.0
393.158999998,4068.0
393.159999998,4069.0
393.160999998,4079.0
393.161999998,4086.0
393.162999998,4078.0
393.163999998,4079.0
393.164999998,4070.0
393.165999998,4069.0
393.166999998,4077.0
393.167999998,4076.0
393.168999998,4071.0
393.169999998,4074.0
393.170999998,4069.0
393.171999998,4070.0
393.172999998,4074.0
393.173999998,4070.0
393.174999998,4079.0
393.175999998,4079.0
393.176999998,4079.0
393.177999998,4075.0
393.178999998,4076.0
393.179999998,4078.0
393.180999998,4032.0
393.181999998,4076.0
393.182999998,4079.0
393.183999998,4068.0
393.184999998,4067.0
393.185999998,4071.0
393.186999998,4077.0
393.187999998,4044.0
393.188999998,4067.0
393.189999998,4043.0
393.190999998,4068.0
393.191999998,4075.0
393.192999998,4073.0
393.193999998,4076.0
393.194999998,4074.0
393.195999998,4074.0
393.196999998,4072.0
393.197999998,4070.0
393.198999998,4077.0
393.199999998,4070.0
393.200999998,4080.0
393.201999998,4072.0
393.202999998,4072.0
393.203999998,4079.0
393.204999998,4072.0
393.205999998,4079.0
393.206999998,4073.0
393.207999998,4072.0
393.208999998,4075.0
393.209999998,4079.0
393.210999998,4076.0
393.211999998,4081.0
393.212999998,4081.0
393.213999998,4074.0
393.214999998,4072.0
393.215999998,4073.0
393.216999998,4076.0
393.217999998,4073.0
393.218999998,4076.0
393.219999998,4076.0
393.220999998,4073.0
393.221999998,4082.0
393.222999998,4074.0
393.223999998,4079.0
393.224999998,4080.0
393.225999998,4081.0
393.226999998,4072.0
393.227999998,4081.0
393.228999998,4081.0
393.229999998,4080.0
393.230999998,4080.0
393.231999998,4083.0
393.232999998,4080.0
393.233999998,4082.0
393.234999998,4074.0
393.235999998,4074.0
393.236999998,4074.0
393.237999998,4080.0
393.238999998,4080.0
393.239999998,4080.0
393.240999998,4078.0
393.241999998,4082.0
393.242999998,4083.0
393.243999998,4082.0
393.244999998,4074.0
393.245999998,4073.0
393.246999998,4083.0
393.247999998,4082.0
393.248999998,4082.0
393.249999998,4077.0
393.250999998,4076.0
393.251999998,4079.0
393.252999998,4074.0
393.253999998,4075.0
393.254999998,4079.0
393.255999998,4074.0
393.256999998,4085.0
393.257999998,4083.0
393.258999998,4082.0
393.259999998,4075.0
393.260999998,4073.0
393.261999998,4074.0
393.262999998,4076.0
393.263999998,4076.0
393.264999998,4083.0
393.265999998,4082.0
393.266999998,4078.0
393.267999998,4077.0
393.268999998,4076.0
393.269999998,4082.0
393.270999998,4085.0
393.271999998,4076.0
393.272999998,4081.0
393.273999998,4080.0
393.274999998,4072.0
393.275999998,4075.0
393.276999998,4081.0
393.277999998,4082.0
393.278999998,4082.0
393.279999998,4078.0
393.280999998,4078.0
393.281999998,4084.0
393.282999998,4073.0
393.283999998,4078.0
393.284999998,4082.0
393.285999998,3976.0
393.286999998,3682.0
393.287999998,3321.0
393.288999998,3056.0
393.289999998,2747.0
393.290999998,2622.0
393.291999998,2422.0
393.292999998,2244.0
393.293999998,2138.0
393.294999998,1958.0
393.295999998,1918.0
393.296999998,1862.0
393.297999998,1692.0
393.298999998,1482.0
393.299999998,1300.0
393.300999998,1221.0
393.301999998,1224.0
393.302999998,1305.0
393.303999998,1358.0
393.304999998,1357.0
393.305999998,1369.0
393.306999998,1445.0
393.307999998,1479.0
393.308999998,1554.0
393.309999998,1663.0
393.310999998,1753.0
393.311999998,1823.0
393.312999998,1844.0
393.313999998,1839.0
393.314999998,1822.0
393.315999998,1783.0
393.316999998,1807.0
393.317999998,1852.0
393.318999998,1868.0
393.319999998,1874.0
393.320999998,1831.0
393.321999998,1802.0
393.322999998,1775.0
393.323999998,1748.0
393.324999998,1779.0
393.325999998,1831.0
393.326999998,1901.0
393.327999998,1924.0
393.328999998,1913.0
393.329999998,1900.0
393.330999998,1891.0
393.331999998,1914.0
393.332999998,1965.0
393.333999998,2027.0
393.334999998,2055.0
393.335999998,2081.0
393.336999998,2096.0
393.337999998,2070.0
393.338999998,2033.0
393.339999998,2047.0
393.340999998,2050.0
393.341999998,2068.0
393.342999998,2102.0
393.343999998,2084.0
393.344999998,2034.0
393.345999998,1992.0
393.346999998,1962.0
393.347999998,1957.0
393.348999998,2003.0
393.349999998,2054.0
393.350999998,2086.0
393.351999998,2061.0
393.352999998,2016.0
393.353999998,1974.0
393.354999998,1898.0
393.355999998,1901.0
393.356999998,1939.0
393.357999998,1944.0
393.358999998,1913.0
393.359999998,1875.0
393.360999998,1816.0
393.361999998,1767.0
393.362999998,1804.0
393.363999998,1923.0
393.364999998,2037.0
393.365999998,2138.0
393.366999998,2201.0
393.367999998,2203.0
393.368999998,2193.0
393.369999998,2160.0
393.370999998,2166.0
393.371999998,2215.0
393.372999998,2228.0
393.373999998,2246.0
393.374999998,2250.0
393.375999998,2241.0
393.376999998,2214.0
393.377999998,2191.0
393.378999998,2205.0
393.379999998,2247.0
393.380999998,2253.0
393.381999998,2253.0
393.382999998,2200.0
393.383999998,2123.0
393.384999998,2046.0
393.385999998,1905.0
393.386999998,1866.0
393.387999998,1846.0
393.388999998,1767.0
393.389999998,1673.0
393.390999998,1654.0
393.391999998,1667.0
393.392999998,1741.0
393.393999998,1805.0
393.394999998,1888.0
393.395999998,1985.0
393.396999998,2035.0
393.397999998,2075.0
393.398999998,2073.0
393.399999998,2035.0
393.400999998,1951.0
393.401999998,1872.0
393.402999998,1866.0
393.403999998,1856.0
393.404999998,1827.0
393.405999998,1804.0
393.406999998,1734.0
393.407999998,1670.0
393.408999998,1613.0
393.409999998,1570.0
393.410999998,1565.0
393.411999998,1527.0
393.412999998,1472.0
393.413999998,1268.0
393.414999998,1223.0
393.415999998,1197.0
393.416999998,1156.0
393.417999998,1131.0
393.418999998,1143.0
393.419999998,1134.0
393.420999998,1105.0
393.421999998,1063.0
393.422999998,1095.0
393.423999998,1029.0
393.424999998,972.0
393.425999998,978.0
393.426999998,979.0
393.427999998,970.0
393.428999998,959.0
393.429999998,937.0
393.430999998,889.0
393.431999998,859.0
393.432999998,815.0
393.433999998,809.0
393.434999998,832.0
393.435999998,833.0
393.436999998,829.0
393.437999998,812.0
393.438999998,788.0
393.439999998,756.0
393.440999998,737.0
393.441999998,743.0
393.442999998,756.0
393.443999998,774.0
393.444999998,772.0
393.445999998,747.0
393.446999998,731.0
393.447999998,725.0
393.448999998,691.0
393.449999998,726.0
393.450999998,751.0
393.451999998,776.0
393.452999998,763.0
393.453999998,740.0
393.454999998,732.0
393.455999998,699.0
393.456999998,692.0
393.457999998,732.0
393.458999998,750.0
393.459999998,771.0
393.460999998,754.0
393.461999998,727.0
393.462999998,707.0
393.463999998,671.0
393.464999998,685.0
393.465999998,710.0
393.466999998,701.0
393.467999998,729.0
393.468999998,728.0
393.469999998,697.0
393.470999998,684.0
393.471999998,647.0
393.472999998,663.0
393.473999998,676.0
393.474999998,684.0
393.475999998,691.0
393.476999998,669.0
393.477999998,647.0
393.478999998,630.0
393.479999998,616.0
393.480999998,635.0
393.481999998,641.0
393.482999998,661.0
393.483999998,670.0
393.484999998,647.0
393.485999998,633.0
393.486999998,594.0
393.487999998,582.0
393.488999998,603.0
393.489999998,614.0
393.490999998,646.0
393.491999998,658.0
393.492999998,625.0
393.493999998,590.0
393.494999998,566.0
393.495999998,560.0
393.496999998,583.0
393.497999998,604.0
393.498999998,612.0
393.499999998,606.0
393.500999998,593.0
393.501999998,570.0
393.502999998,534.0
393.503999998,537.0
393.504999998,550.0
393.505999998,570.0
393.506999998,586.0
393.507999998,575.0
393.508999998,551.0
393.509999998,541.0
393.510999998,522.0
393.511999998,548.0
393.512999998,562.0
393.513999998,578.0
393.514999998,596.0
393.515999998,578.0
393.516999998,536.0
393.517999998,530.0
393.518999998,529.0
393.519999998,532.0
393.520999998,559.0
393.521999998,580.0
393.522999998,588.0
393.523999998,571.0
393.524999998,550.0
393.525999998,521.0
393.526999998,525.0
393.527999998,543.0
393.528999998,551.0
393.529999998,574.0
393.530999998,581.0
393.531999998,561.0
393.532999998,551.0
393.533999998,515.0
393.534999998,517.0
393.535999998,549.0
393.536999998,561.0
393.537999998,594.0
393.538999998,589.0
393.539999998,576.0
393.540999998,590.0
393.541999998,533.0
393.542999998,550.0
393.543999998,574.0
393.544999998,603.0
393.545999998,627.0
393.546999998,621.0
393.547999998,606.0
393.548999998,591.0
393.549999998,567.0
393.550999998,577.0
393.551999998,622.0
393.552999998,629.0
393.553999998,654.0
393.554999998,646.0
393.555999998,632.0
393.556999998,619.0
393.557999998,604.0
393.558999998,628.0
393.559999998,674.0
393.560999998,691.0
393.561999998,707.0
393.562999998,696.0
393.563999998,683.0
393.564999998,666.0
393.565999998,639.0
393.566999998,678.0
393.567999998,706.0
393.568999998,734.0
393.569999998,740.0
393.570999998,733.0
393.571999998,721.0
393.572999998,707.0
393.573999998,698.0
393.574999998,738.0
393.575999998,757.0
393.576999998,785.0
393.577999998,799.0
393.578999998,794.0
393.579999998,797.0
393.580999998,735.0
393.581999998,796.0
393.582999998,833.0
393.583999998,873.0
393.584999998,897.0
393.585999998,894.0
393.586999998,888.0
393.587999998,884.0
393.588999998,875.0
393.589999998,876.0
393.590999998,898.0
393.591999998,927.0
393.592999998,948.0
393.593999998,951.0
393.594999998,946.0
393.595999998,926.0
393.596999998,931.0
393.597999998,955.0
393.598999998,1001.0
393.599999998,1044.0
393.600999998,1073.0
393.601999998,1066.0
393.602999998,1058.0
393.603999998,1050.0
393.604999998,1059.0
393.605999998,1078.0
393.606999998,1100.0
393.607999998,1143.0
393.608999998,1171.0
393.609999998,1164.0
393.610999998,1171.0
393.611999998,1163.0
393.612999998,1177.0
393.613999998,1212.0
393.614999998,1246.0
393.615999998,1290.0
393.616999998,1312.0
393.617999998,1309.0
393.618999998,1314.0
393.619999998,1330.0
393.620999998,1350.0
393.621999998,1388.0
393.622999998,1425.0
393.623999998,1467.0
393.624999998,1482.0
393.625999998,1483.0
393.626999998,1485.0
393.627999998,1490.0
393.628999998,1524.0
393.629999998,1540.0
393.630999998,1592.0
393.631999998,1641.0
393.632999998,1648.0
393.633999998,1651.0
393.634999998,1659.0
393.635999998,1655.0
393.636999998,1695.0
393.637999998,1724.0
393.638999998,1725.0
393.639999998,1761.0
393.640999998,1758.0
393.641999998,1719.0
393.642999998,1705.0
393.643999998,1727.0
393.644999998,1775.0
393.645999998,1752.0
393.646999998,1784.0
393.647999998,1784.0
393.648999998,1764.0
393.649999998,1752.0
393.650999998,1726.0
393.651999998,1727.0
393.652999998,1752.0
393.653999998,1754.0
393.654999998,1772.0
393.655999998,1779.0
393.656999998,1762.0
393.657999998,1760.0
393.658999998,1749.0
393.659999998,1768.0
393.660999998,1805.0
393.661999998,1819.0
393.662999998,1822.0
393.663999998,1807.0
393.664999998,1757.0
393.665999998,1705.0
393.666999998,1635.0
393.667999998,1585.0
393.668999998,1558.0
393.669999998,1487.0
393.670999998,1444.0
393.671999998,1407.0
393.672999998,1380.0
393.673999998,1419.0
393.674999998,1481.0
393.675999998,1564.0
393.676999998,1668.0
393.677999998,1767.0
393.678999998,1818.0
393.679999998,1847.0
393.680999998,1857.0
393.681999998,1835.0
393.682999998,1825.0
393.683999998,1839.0
393.684999998,1834.0
393.685999998,1826.0
393.686999998,1830.0
393.687999998,1806.0
393.688999998,1783.0
393.689999998,1760.0
393.690999998,1757.0
393.691999998,1786.0
393.692999998,1792.0
393.693999998,1791.0
393.694999998,1786.0
393.695999998,1777.0
393.696999998,1753.0
393.697999998,1732.0
393.698999998,1737.0
393.699999998,1768.0
393.700999998,1782.0
393.701999998,1781.0
393.702999998,1768.0
393.703999998,1753.0
393.704999998,1728.0
393.705999998,1715.0
393.706999998,1724.0
393.707999998,1751.0
393.708999998,1764.0
393.709999998,1766.0
393.710999998,1758.0
393.711999998,1758.0
393.712999998,1745.0
393.713999998,1733.0
393.714999998,1758.0
393.715999998,1767.0
393.716999998,1775.0
393.717999998,1772.0
393.718999998,1760.0
393.719999998,1750.0
393.720999998,1735.0
393.721999998,1728.0
393.722999998,1740.0
393.723999998,1756.0
393.724999998,1766.0
393.725999998,1768.0
393.726999998,1764.0
393.727999998,1757.0
393.728999998,1745.0
393.729999998,1755.0
393.730999998,1771.0
393.731999998,1799.0
393.732999998,1829.0
393.733999998,1813.0
393.734999998,1794.0
393.735999998,1799.0
393.736999998,1765.0
393.737999998,1781.0
393.738999998,1804.0
393.739999998,1818.0
393.740999998,1828.0
393.741999998,1816.0
393.742999998,1800.0
393.743999998,1782.0
393.744999998,1768.0
393.745999998,1768.0
393.746999998,1776.0
393.747999998,1784.0
393.748999998,1793.0
393.749999998,1767.0
393.750999998,1734.0
393.751999998,1733.0
393.752999998,1730.0
393.753999998,1738.0
393.754999998,1738.0
393.755999998,1752.0
393.756999998,1752.0
393.757999998,1733.0
393.758999998,1724.0
393.759999998,1704.0
393.760999998,1706.0
393.761999998,1715.0
393.762999998,1735.0
393.763999998,1743.0
393.764999998,1755.0
393.765999998,1733.0
393.766999998,1734.0
393.767999998,1710.0
393.768999998,1715.0
393.769999998,1740.0
393.770999998,1737.0
393.771999998,1756.0
393.772999998,1761.0
393.773999998,1747.0
393.774999998,1741.0
393.775999998,1725.0
393.776999998,1744.0
393.777999998,1771.0
393.778999998,1789.0
393.779999998,1798.0
393.780999998,1793.0
393.781999998,1780.0
393.782999998,1767.0
393.783999998,1759.0
393.784999998,1777.0
393.785999998,1785.0
393.786999998,1803.0
393.787999998,1798.0
393.788999998,1798.0
393.789999998,1789.0
393.790999998,1758.0
393.791999998,1756.0
393.792999998,1767.0
393.793999998,1765.0
393.794999998,1784.0
393.795999998,1783.0
393.796999998,1769.0
393.797999998,1768.0
393.798999998,1740.0
393.799999998,1751.0
393.800999998,1761.0
393.801999998,1768.0
393.802999998,1788.0
393.803999998,1783.0
393.804999998,1774.0
393.805999998,1765.0
393.806999998,1735.0
393.807999998,1735.0
393.808999998,1761.0
393.809999998,1764.0
393.810999998,1774.0
393.811999998,1764.0
393.812999998,1740.0
393.813999998,1727.0
393.814999998,1704.0
393.815999998,1714.0
393.816999998,1731.0
393.817999998,1735.0
393.818999998,1742.0
393.819999998,1737.0
393.820999998,1732.0
393.821999998,1715.0
393.822999998,1701.0
393.823999998,1714.0
393.824999998,1736.0
393.825999998,1745.0
393.826999998,1753.0
393.827999998,1749.0
393.828999998,1730.0
393.829999998,1723.0
393.830999998,1701.0
393.831999998,1721.0
393.832999998,1728.0
393.833999998,1744.0
393.834999998,1746.0
393.835999998,1725.0
393.836999998,1716.0
393.837999998,1705.0
393.838999998,1688.0
393.839999998,1710.0
393.840999998,1725.0
393.841999998,1737.0
393.842999998,1735.0
393.843999998,1729.0
393.844999998,1725.0
393.845999998,1705.0
393.846999998,1698.0
393.847999998,1725.0
393.848999998,1736.0
393.849999998,1755.0
393.850999998,1751.0
393.851999998,1744.0
393.852999998,1742.0
393.853999998,1727.0
393.854999998,1730.0
393.855999998,1747.0
393.856999998,1746.0
393.857999998,1760.0
393.858999998,1764.0
393.859999998,1750.0
393.860999998,1737.0
393.861999998,1724.0
393.862999998,1723.0
393.863999998,1735.0
393.864999998,1758.0
393.865999998,1752.0
393.866999998,1753.0
393.867999998,1729.0
393.868999998,1719.0
393.869999998,1717.0
393.870999998,1711.0
393.871999998,1740.0
393.872999998,1744.0
393.873999998,1762.0
393.874999998,1759.0
393.875999998,1742.0
393.876999998,1741.0
393.877999998,1740.0
393.878999998,1753.0
393.879999998,1774.0
393.880999998,1796.0
393.881999998,1801.0
393.882999998,1795.0
393.883999998,1784.0
393.884999998,1768.0
393.885999998,1773.0
393.886999998,1775.0
393.887999998,1784.0
393.888999998,1807.0
393.889999998,1809.0
393.890999998,1797.0
393.891999998,1785.0
393.892999998,1769.0
393.893999998,1782.0
393.894999998,1794.0
393.895999998,1791.0
393.896999998,1805.0
393.897999998,1797.0
393.898999998,1802.0
393.899999998,1780.0
393.900999998,1785.0
393.901999998,1797.0
393.902999998,1806.0
393.903999998,1825.0
393.904999998,1843.0
393.905999998,1836.0
393.906999998,1827.0
393.907999998,1814.0
393.908999998,1800.0
393.909999998,1820.0
393.910999998,1821.0
393.911999998,1842.0
393.912999998,1843.0
393.913999998,1849.0
393.914999998,1833.0
393.915999998,1812.0
393.916999998,1798.0
393.917999998,1823.0
393.918999998,1825.0
393.919999998,1841.0
393.920999998,1842.0
393.921999998,1840.0
393.922999998,1826.0
393.923999998,1807.0
393.924999998,1811.0
393.925999998,1833.0
393.926999998,1845.0
393.927999998,1859.0
393.928999998,1882.0
393.929999998,1868.0
393.930999998,1863.0
393.931999998,1851.0
393.932999998,1845.0
393.933999998,1843.0
393.934999998,1813.0
393.935999998,1763.0
393.936999998,1697.0
393.937999998,1631.0
393.938999998,1562.0
393.939999998,1475.0
393.940999998,1451.0
393.941999998,1453.0
393.942999998,1488.0
393.943999998,1565.0
393.944999998,1614.0
393.945999998,1682.0
393.946999998,1756.0
393.947999998,1811.0
393.948999998,1861.0
393.949999998,1900.0
393.950999998,1915.0
393.951999998,1916.0
393.952999998,1896.0
393.953999998,1870.0
393.954999998,1853.0
393.955999998,1831.0
393.956999998,1836.0
393.957999998,1846.0
393.958999998,1859.0
393.959999998,1861.0
393.960999998,1856.0
393.961999998,1851.0
393.962999998,1829.0
393.963999998,1829.0
393.964999998,1856.0
393.965999998,1866.0
393.966999998,1879.0
393.967999998,1878.0
393.968999998,1868.0
393.969999998,1866.0
393.970999998,1847.0
393.971999998,1848.0
393.972999998,1872.0
393.973999998,1883.0
393.974999998,1883.0
393.975999998,1877.0
393.976999998,1878.0
393.977999998,1865.0
393.978999998,1852.0
393.979999998,1861.0
393.980999998,1884.0
393.981999998,1895.0
393.982999998,1903.0
393.983999998,1897.0
393.984999998,1894.0
393.985999998,1887.0
393.986999998,1874.0
393.987999998,1883.0
393.988999998,1891.0
393.989999998,1911.0
393.990999998,1908.0
393.991999998,1889.0
393.992999998,1890.0
393.993999998,1879.0
393.994999998,1869.0
393.995999998,1883.0
393.996999998,1893.0
393.997999998,1908.0
393.998999998,1915.0
393.999999998,1899.0
394.000999998,1902.0
394.001999998,1884.0
394.002999998,1889.0
394.003999998,1901.0
394.004999998,1905.0
394.005999998,1920.0
394.006999998,1913.0
394.007999998,1897.0
394.008999998,1893.0
394.009999998,1870.0
394.010999998,1875.0
394.011999998,1889.0
394.012999998,1899.0
394.013999998,1907.0
394.014999998,1907.0
394.015999998,1882.0
394.016999998,1867.0
394.017999998,1860.0
394.018999998,1866.0
394.019999998,1880.0
394.020999998,1882.0
394.021999998,1884.0
394.022999998,1883.0
394.023999998,1862.0
394.024999998,1833.0
394.025999998,1831.0
394.026999998,1837.0
394.027999998,1843.0
394.028999998,1860.0
394.029999998,1869.0
394.030999998,1857.0
394.031999998,1841.0
394.032999998,1831.0
394.033999998,1832.0
394.034999998,1855.0
394.035999998,1867.0
394.036999998,1880.0
394.037999998,1884.0
394.038999998,1871.0
394.039999998,1854.0
394.040999998,1842.0
394.041999998,1855.0
394.042999998,1878.0
394.043999998,1879.0
394.044999998,1900.0
394.045999998,1899.0
394.046999998,1888.0
394.047999998,1868.0
394.048999998,1864.0
394.049999998,1874.0
394.050999998,1899.0
394.051999998,1899.0
394.052999998,1910.0
394.053999998,1914.0
394.054999998,1899.0
394.055999998,1879.0
394.056999998,1879.0
394.057999998,1889.0
394.058999998,1905.0
394.059999998,1913.0
394.060999998,1913.0
394.061999998,1913.0
394.062999998,1902.0
394.063999998,1881.0
394.064999998,1879.0
394.065999998,1893.0
394.066999998,1914.0
394.067999998,1916.0
394.068999998,1915.0
394.069999998,1943.0
394.070999998,1899.0
394.071999998,1876.0
394.072999998,1859.0
394.073999998,1898.0
394.074999998,1898.0
394.075999998,1910.0
394.076999998,1923.0
394.077999998,1900.0
394.078999998,1896.0
394.079999998,1874.0
394.080999998,1876.0
394.081999998,1904.0
394.082999998,1888.0
394.083999998,1926.0
394.084999998,1925.0
394.085999998,1912.0
394.086999998,1907.0
394.087999998,1871.0
394.088999998,1895.0
394.089999998,1905.0
394.090999998,1888.0
394.091999998,1929.0
394.092999998,1931.0
394.093999998,1914.0
394.094999998,1878.0
394.095999998,1891.0
394.096999998,1915.0
394.097999998,1920.0
394.098999998,1960.0
394.099999998,1945.0
394.100999998,1925.0
394.101999998,1946.0
394.102999998,1921.0
394.103999998,1900.0
394.104999998,1934.0
394.105999998,1937.0
394.106999998,1947.0
394.107999998,1952.0
394.108999998,1946.0
394.109999998,1941.0
394.110999998,1929.0
394.111999998,1923.0
394.112999998,1951.0
394.113999998,1960.0
394.114999998,1965.0
394.115999998,1964.0
394.116999998,1952.0
394.117999998,1952.0
394.118999998,1937.0
394.119999998,1936.0
394.120999998,1951.0
394.121999998,1956.0
394.122999998,1968.0
394.123999998,1958.0
394.124999998,1950.0
394.125999998,1926.0
394.126999998,1900.0
394.127999998,1912.0
394.128999998,1933.0
394.129999998,1942.0
394.130999998,1951.0
394.131999998,1941.0
394.132999998,1928.0
394.133999998,1913.0
394.134999998,1909.0
394.135999998,1907.0
394.136999998,1935.0
394.137999998,1951.0
394.138999998,1953.0
394.139999998,1944.0
394.140999998,1930.0
394.141999998,1923.0
394.142999998,1925.0
394.143999998,1929.0
394.144999998,1944.0
394.145999998,1954.0
394.146999998,1969.0
394.147999998,1955.0
394.148999998,1941.0
394.149999998,1930.0
394.150999998,1936.0
394.151999998,1938.0
394.152999998,1957.0
394.153999998,1967.0
394.154999998,1966.0
394.155999998,1954.0
394.156999998,1947.0
394.157999998,1938.0
394.158999998,1938.0
394.159999998,1943.0
394.160999998,1956.0
394.161999998,1974.0
394.162999998,1972.0
394.163999998,1956.0
394.164999998,1948.0
394.165999998,1921.0
394.166999998,1938.0
394.167999998,1944.0
394.168999998,1950.0
394.169999998,1978.0
394.170999998,1972.0
394.171999998,1959.0
394.172999998,1926.0
394.173999998,1931.0
394.174999998,1948.0
394.175999998,1959.0
394.176999998,1963.0
394.177999998,1962.0
394.178999998,1951.0
394.179999998,1952.0
394.180999998,1936.0
394.181999998,1928.0
394.182999998,1941.0
394.183999998,1956.0
394.184999998,1971.0
394.185999998,1968.0
394.186999998,1956.0
394.187999998,1948.0
394.188999998,1935.0
394.189999998,1926.0
394.190999998,1949.0
394.191999998,1957.0
394.192999998,1962.0
394.193999998,1956.0
394.194999998,1941.0
394.195999998,1938.0
394.196999998,1926.0
394.197999998,1936.0
394.198999998,1938.0
394.199999998,1932.0
394.200999998,1949.0
394.201999998,1944.0
394.202999998,1941.0
394.203999998,1927.0
394.204999998,1924.0
394.205999998,1948.0
394.206999998,1967.0
394.207999998,1980.0
394.208999998,1982.0
394.209999998,1967.0
394.210999998,1922.0
394.211999998,1866.0
394.212999998,1787.0
394.213999998,1748.0
394.214999998,1716.0
394.215999998,1644.0
394.216999998,1591.0
394.217999998,1564.0
394.218999998,1555.0
394.219999998,1608.0
394.220999998,1665.0
394.221999998,1734.0
394.222999998,1854.0
394.223999998,1956.0
394.224999998,1996.0
394.225999998,2024.0
394.226999998,2030.0
394.227999998,2025.0
394.228999998,2018.0
394.229999998,2023.0
394.230999998,2012.0
394.231999998,2014.0
394.232999998,1989.0
394.233999998,1990.0
394.234999998,1970.0
394.235999998,1953.0
394.236999998,1950.0
394.237999998,1970.0
394.238999998,1982.0
394.239999998,1984.0
394.240999998,1978.0
394.241999998,1973.0
394.242999998,1966.0
394.243999998,1952.0
394.244999998,1962.0
394.245999998,1981.0
394.246999998,1985.0
394.247999998,1992.0
394.248999998,1977.0
394.249999998,1977.0
394.250999998,1960.0
394.251999998,1953.0
394.252999998,1950.0
394.253999998,1969.0
394.254999998,1974.0
394.255999998,1978.0
394.256999998,1963.0
394.257999998,1957.0
394.258999998,1952.0
394.259999998,1933.0
394.260999998,1949.0
394.261999998,1966.0
394.262999998,1974.0
394.263999998,1969.0
394.264999998,1940.0
394.265999998,1939.0
394.266999998,1919.0
394.267999998,1912.0
394.268999998,1927.0
394.269999998,1944.0
394.270999998,1951.0
394.271999998,1950.0
394.272999998,1925.0
394.273999998,1929.0
394.274999998,1921.0
394.275999998,1925.0
394.276999998,1937.0
394.277999998,1941.0
394.278999998,1953.0
394.279999998,1959.0
394.280999998,1948.0
394.281999998,1940.0
394.282999998,1930.0
394.283999998,1939.0
394.284999998,1952.0
394.285999998,1963.0
394.286999998,1974.0
394.287999998,1967.0
394.288999998,1943.0
394.289999998,1936.0
394.290999998,1937.0
394.291999998,1951.0
394.292999998,1951.0
394.293999998,1958.0
394.294999998,1968.0
394.295999998,1949.0
394.296999998,1931.0
394.297999998,1918.0
394.298999998,1907.0
394.299999998,1916.0
394.300999998,1914.0
394.301999998,1922.0
394.302999998,1928.0
394.303999998,1928.0
394.304999998,1904.0
394.305999998,1889.0
394.306999998,1890.0
394.307999998,1897.0
394.308999998,1905.0
394.309999998,1922.0
394.310999998,1928.0
394.311999998,1911.0
394.312999998,1894.0
394.313999998,1895.0
394.314999998,1903.0
394.315999998,1913.0
394.316999998,1916.0
394.317999998,1933.0
394.318999998,1932.0
394.319999998,1923.0
394.320999998,1915.0
394.321999998,1917.0
394.322999998,1930.0
394.323999998,1945.0
394.324999998,2005.0
394.325999998,1954.0
394.326999998,1963.0
394.327999998,1957.0
394.328999998,1941.0
394.329999998,1943.0
394.330999998,1954.0
394.331999998,1975.0
394.332999998,1983.0
394.333999998,1989.0
394.334999998,1988.0
394.335999998,1975.0
394.336999998,1952.0
394.337999998,1961.0
394.338999998,1983.0
394.339999998,1981.0
394.340999998,1995.0
394.341999998,1999.0
394.342999998,2005.0
394.343999998,1974.0
394.344999998,1948.0
394.345999998,1954.0
394.346999998,1968.0
394.347999998,1974.0
394.348999998,1981.0
394.349999998,1987.0
394.350999998,1959.0
394.351999998,1966.0
394.352999998,1939.0
394.353999998,1952.0
394.354999998,1965.0
394.355999998,1967.0
394.356999998,1981.0
394.357999998,1978.0
394.358999998,1968.0
394.359999998,1958.0
394.360999998,1935.0
394.361999998,1939.0
394.362999998,1947.0
394.363999998,1959.0
394.364999998,1959.0
394.365999998,1948.0
394.366999998,1937.0
394.367999998,1926.0
394.368999998,1913.0
394.369999998,1932.0
394.370999998,1941.0
394.371999998,1945.0
394.372999998,1955.0
394.373999998,1948.0
394.374999998,1943.0
394.375999998,1946.0
394.376999998,1929.0
394.377999998,1939.0
394.378999998,1968.0
394.379999998,1971.0
394.380999998,1981.0
394.381999998,1973.0
394.382999998,1973.0
394.383999998,1949.0
394.384999998,1947.0
394.385999998,1963.0
394.386999998,1979.0
394.387999998,1984.0
394.388999998,1987.0
394.389999998,1973.0
394.390999998,1969.0
394.391999998,1968.0
394.392999998,1961.0
394.393999998,1971.0
394.394999998,1986.0
394.395999998,1992.0
394.396999998,1991.0
394.397999998,1986.0
394.398999998,1972.0
394.399999998,1961.0
394.400999998,1969.0
394.401999998,1975.0
394.402999998,1979.0
394.403999998,1995.0
394.404999998,1996.0
394.405999998,1986.0
394.406999998,1975.0
394.407999998,1961.0
394.408999998,1974.0
394.409999998,1971.0
394.410999998,1980.0
394.411999998,1985.0
394.412999998,1988.0
394.413999998,1977.0
394.414999998,1966.0
394.415999998,1965.0
394.416999998,1972.0
394.417999998,1973.0
394.418999998,1982.0
394.419999998,1990.0
394.420999998,1987.0
394.421999998,1983.0
394.422999998,1958.0
394.423999998,1965.0
394.424999998,1973.0
394.425999998,1979.0
394.426999998,1993.0
394.427999998,2002.0
394.428999998,1987.0
394.429999998,1982.0
394.430999998,1966.0
394.431999998,1986.0
394.432999998,2000.0
394.433999998,1993.0
394.434999998,2007.0
394.435999998,2007.0
394.436999998,1993.0
394.437999998,1989.0
394.438999998,1984.0
394.439999998,2000.0
394.440999998,1992.0
394.441999998,2006.0
394.442999998,2021.0
394.443999998,2020.0
394.444999998,2012.0
394.445999998,2014.0
394.446999998,2012.0
394.447999998,2022.0
394.448999998,2025.0
394.449999998,2043.0
394.450999998,2043.0
394.451999998,2031.0
394.452999998,2012.0
394.453999998,1992.0
394.454999998,1990.0
394.455999998,1993.0
394.456999998,1985.0
394.457999998,1990.0
394.458999998,2008.0
394.459999998,1992.0
394.460999998,1978.0
394.461999998,1966.0
394.462999998,1970.0
394.463999998,1977.0
394.464999998,1979.0
394.465999998,1985.0
394.466999998,1982.0
394.467999998,1970.0
394.468999998,1951.0
394.469999998,1912.0
394.470999998,1906.0
394.471999998,1932.0
394.472999998,1933.0
394.473999998,1936.0
394.474999998,1942.0
394.475999998,1935.0
394.476999998,1919.0
394.477999998,1898.0
394.478999998,1908.0
394.479999998,1921.0
394.480999998,1922.0
394.481999998,1900.0
394.482999998,1899.0
394.483999998,1912.0
394.484999998,1902.0
394.485999998,1888.0
394.486999998,1900.0
394.487999998,1899.0
394.488999998,1909.0
394.489999998,1899.0
394.490999998,1906.0
394.491999998,1897.0
394.492999998,1890.0
394.493999998,1885.0
394.494999998,1908.0
394.495999998,1917.0
394.496999998,1934.0
394.497999998,1948.0
394.498999998,1944.0
394.499999998,1926.0
394.500999998,1881.0
394.501999998,1849.0
394.502999998,1827.0
394.503999998,1755.0
394.504999998,1730.0
394.505999998,1678.0
394.506999998,1617.0
394.507999998,1571.0
394.508999998,1556.0
394.509999998,1609.0
394.510999998,1688.0
394.511999998,1780.0
394.512999998,1896.0
394.513999998,1986.0
394.514999998,2031.0
394.515999998,2062.0
394.516999998,2080.0
394.517999998,2101.0
394.518999998,2123.0
394.519999998,2124.0
394.520999998,2119.0
394.521999998,2094.0
394.522999998,2066.0
394.523999998,2060.0
394.524999998,2054.0
394.525999998,2048.0
394.526999998,2070.0
394.527999998,2070.0
394.528999998,2079.0
394.529999998,2051.0
394.530999998,2043.0
394.531999998,2017.0
394.532999998,1989.0
394.533999998,2012.0
394.534999998,2021.0
394.535999998,2040.0
394.536999998,2042.0
394.537999998,2033.0
394.538999998,2047.0
394.539999998,2038.0
394.540999998,2040.0
394.541999998,2043.0
394.542999998,2041.0
394.543999998,2054.0
394.544999998,2040.0
394.545999998,2005.0
394.546999998,1989.0
394.547999998,1962.0
394.548999998,1953.0
394.549999998,1956.0
394.550999998,1947.0
394.551999998,1944.0
394.552999998,1920.0
394.553999998,1867.0
394.554999998,1825.0
394.555999998,1859.0
394.556999998,1849.0
394.557999998,1816.0
394.558999998,1839.0
394.559999998,1833.0
394.560999998,1843.0
394.561999998,1784.0
394.562999998,1803.0
394.563999998,1799.0
394.564999998,1805.0
394.565999998,1810.0
394.566999998,1841.0
394.567999998,1837.0
394.568999998,1836.0
394.569999998,1814.0
394.570999998,1798.0
394.571999998,1801.0
394.572999998,1807.0
394.573999998,1810.0
394.574999998,1813.0
394.575999998,1844.0
394.576999998,1835.0
394.577999998,1844.0
394.578999998,1851.0
394.579999998,1870.0
394.580999998,1882.0
394.581999998,1899.0
394.582999998,1919.0
394.583999998,1925.0
394.584999998,1921.0
394.585999998,1923.0
394.586999998,1927.0
394.587999998,1930.0
394.588999998,1934.0
394.589999998,1925.0
394.590999998,1913.0
394.591999998,1910.0
394.592999998,1894.0
394.593999998,1861.0
394.594999998,1850.0
394.595999998,1862.0
394.596999998,1882.0
394.597999998,1904.0
394.598999998,1923.0
394.599999998,1895.0
394.600999998,1879.0
394.601999998,1865.0
394.602999998,1809.0
394.603999998,1796.0
394.604999998,1735.0
394.605999998,1707.0
394.606999998,1719.0
394.607999998,1698.0
394.608999998,1704.0
394.609999998,1702.0
394.610999998,1722.0
394.611999998,1736.0
394.612999998,1722.0
394.613999998,1733.0
394.614999998,1760.0
394.615999998,1788.0
394.616999998,1803.0
394.617999998,1799.0
394.618999998,1800.0
394.619999998,1835.0
394.620999998,1856.0
394.621999998,1883.0
394.622999998,1904.0
394.623999998,1919.0
394.624999998,1922.0
394.625999998,1922.0
394.626999998,1946.0
394.627999998,1987.0
394.628999998,2004.0
394.629999998,2010.0
394.630999998,2019.0
394.631999998,2022.0
394.632999998,2035.0
394.633999998,1986.0
394.634999998,2001.0
394.635999998,2036.0
394.636999998,2027.0
394.637999998,2028.0
394.638999998,2019.0
394.639999998,1995.0
394.640999998,1993.0
394.641999998,1965.0
394.642999998,1956.0
394.643999998,1968.0
394.644999998,1952.0
394.645999998,1938.0
394.646999998,1932.0
394.647999998,1910.0
394.648999998,1898.0
394.649999998,1869.0
394.650999998,1875.0
394.651999998,1862.0
394.652999998,1857.0
394.653999998,1834.0
394.654999998,1800.0
394.655999998,1810.0
394.656999998,1781.0
394.657999998,1751.0
394.658999998,1765.0
394.659999998,1747.0
394.660999998,1740.0
394.661999998,1703.0
394.662999998,1661.0
394.663999998,1643.0
394.664999998,1632.0
394.665999998,1633.0
394.666999998,1620.0
394.667999998,1620.0
394.668999998,1618.0
394.669999998,1607.0
394.670999998,1612.0
394.671999998,1593.0
394.672999998,1582.0
394.673999998,1588.0
394.674999998,1615.0
394.675999998,1634.0
394.676999998,1636.0
394.677999998,1614.0
394.678999998,1591.0
394.679999998,1530.0
394.680999998,1511.0
394.681999998,1428.0
394.682999998,1364.0
394.683999998,1332.0
394.684999998,1281.0
394.685999998,1247.0
394.686999998,1171.0
394.687999998,1127.0
394.688999998,997.0
394.689999998,781.0
394.690999998,346.0
394.691999998,14.0
394.692999998,11.0
394.693999998,7.0
394.694999998,14.0
394.695999998,8.0
394.696999998,15.0
394.697999998,10.0
394.698999998,18.0
394.699999998,12.0
394.700999998,11.0
394.701999998,6.0
394.702999998,17.0
394.703999998,12.0
394.704999998,13.0
394.705999998,5.0
394.706999998,11.0
394.707999998,7.0
394.708999998,8.0
394.709999998,9.0
394.710999998,4.0
394.711999998,5.0
394.712999998,10.0
394.713999998,7.0
394.714999998,13.0
394.715999998,12.0
394.716999998,13.0
394.717999998,7.0
394.718999998,9.0
394.719999998,5.0
394.720999998,11.0
394.721999998,2.0
394.722999998,10.0
394.723999998,3.0
394.724999998,7.0
394.725999998,11.0
394.726999998,7.0
394.727999998,4.0
394.728999998,12.0
394.729999998,13.0
394.730999998,11.0
394.731999998,3.0
394.732999998,6.0
394.733999998,12.0
394.734999998,5.0
394.735999998,5.0
394.736999998,8.0
394.737999998,5.0
394.738999998,14.0
394.739999998,214.0
394.740999998,554.0
394.741999998,845.0
394.742999998,1272.0
394.743999998,1704.0
394.744999998,2160.0
394.745999998,2575.0
394.746999998,2845.0
394.747999998,2988.0
394.748999998,2884.0
394.749999998,2614.0
394.750999998,2446.0
394.751999998,1842.0
394.752999998,1276.0
394.753999998,1056.0
394.754999998,388.0
394.755999998,14.0
394.756999998,10.0
394.757999998,11.0
394.758999998,6.0
394.759999998,11.0
394.760999998,7.0
394.761999998,3.0
394.762999998,8.0
394.763999998,3.0
394.764999998,6.0
394.765999998,11.0
394.766999998,11.0
394.767999998,12.0
394.768999998,11.0
394.769999998,7.0
394.770999998,3.0
394.771999998,5.0
394.772999998,4.0
394.773999998,0.0
394.774999998,2.0
394.775999998,7.0
394.776999998,2.0
394.777999998,11.0
394.778999998,9.0
394.779999998,0.0
394.780999998,7.0
394.781999998,7.0
394.782999998,12.0
394.783999998,10.0
394.784999998,2.0
394.785999998,5.0
394.786999998,10.0
394.787999998,2.0
394.788999998,4.0
394.789999998,10.0
394.790999998,2.0
394.791999998,8.0
394.792999998,2.0
394.793999998,9.0
394.794999998,0.0
394.795999998,2.0
394.796999998,0.0
394.797999998,4.0
394.798999998,14.0
394.799999998,7.0
394.800999998,6.0
394.801999998,12.0
394.802999998,5.0
394.803999998,1.0
394.804999998,6.0
394.805999998,11.0
394.806999998,2.0
394.807999998,9.0
394.808999998,5.0
394.809999998,1.0
394.810999998,19.0
394.811999998,0.0
394.812999998,5.0
394.813999998,8.0
394.814999998,4.0
394.815999998,0.0
394.816999998,8.0
394.817999998,71.0
394.818999998,555.0
394.819999998,1108.0
394.820999998,1646.0
394.821999998,2188.0
394.822999998,2575.0
394.823999998,3009.0
394.824999998,3380.0
394.825999998,3796.0
394.826999998,4066.0
394.827999998,4064.0
394.828999998,4063.0
394.829999998,4067.0
394.830999998,4070.0
394.831999998,4072.0
394.832999998,4062.0
394.833999998,4061.0
394.834999998,4070.0
394.835999998,4072.0
394.836999998,4075.0
394.837999998,4065.0
394.838999998,4067.0
394.839999998,4066.0
394.840999998,4068.0
394.841999998,4061.0
394.842999998,4072.0
394.843999998,4063.0
394.844999998,4070.0
394.845999998,4063.0
394.846999998,4073.0
394.847999998,4067.0
394.848999998,4068.0
394.849999998,4069.0
394.850999998,4067.0
394.851999998,4066.0
394.852999998,4069.0
394.853999998,4066.0
394.854999998,4074.0
394.855999998,4072.0
394.856999998,4075.0
394.857999998,4063.0
394.858999998,4064.0
394.859999998,4068.0
394.860999998,4075.0
394.861999998,4073.0
394.862999998,4066.0
394.863999998,4076.0
394.864999998,4078.0
394.865999998,4072.0
394.866999998,4072.0
394.867999998,4068.0
394.868999998,4072.0
394.869999998,4075.0
394.870999998,4066.0
394.871999998,4077.0
394.872999998,4070.0
394.873999998,4075.0
394.874999998,4075.0
394.875999998,4081.0
394.876999998,4076.0
394.877999998,4068.0
394.878999998,4068.0
394.879999998,4065.0
394.880999998,4075.0
394.881999998,4075.0
394.882999998,4074.0
394.883999998,4075.0
394.884999998,4076.0
394.885999998,4067.0
394.886999998,4077.0
394.887999998,4073.0
394.888999998,4078.0
394.889999998,4074.0
394.890999998,4079.0
394.891999998,4070.0
394.892999998,4068.0
394.893999998,4071.0
394.894999998,4079.0
394.895999998,4076.0
394.896999998,4075.0
394.897999998,4072.0
394.898999998,4073.0
394.899999998,4083.0
394.900999998,4071.0
394.901999998,4070.0
394.902999998,4080.0
394.903999998,4075.0
394.904999998,4075.0
394.905999998,4075.0
394.906999998,4071.0
394.907999998,4078.0
394.908999998,4071.0
394.909999998,4079.0
394.910999998,4077.0
394.911999998,4072.0
394.912999998,4081.0
394.913999998,4077.0
394.914999998,4072.0
394.915999998,4080.0
394.916999998,4074.0
394.917999998,4074.0
394.918999998,4079.0
394.919999998,4075.0
394.920999998,4072.0
394.921999998,4080.0
394.922999998,4075.0
394.923999998,4078.0
394.924999998,4076.0
394.925999998,4083.0
394.926999998,4077.0
394.927999998,4071.0
394.928999998,4074.0
394.929999998,4081.0
394.930999998,4075.0
394.931999998,4074.0
394.932999998,4075.0
394.933999998,4073.0
394.934999998,4075.0
394.935999998,4081.0
394.936999998,4081.0
394.937999998,4071.0
394.938999998,4071.0
394.939999998,3255.0
394.940999998,2724.0
394.941999998,4074.0
394.942999998,4079.0
394.943999998,4082.0
394.944999998,4073.0
394.945999998,4076.0
394.946999998,4076.0
394.947999998,4074.0
394.948999998,4078.0
394.949999998,4073.0
394.950999998,4072.0
394.951999998,4071.0
394.952999998,4074.0
394.953999998,4071.0
394.954999998,4073.0
394.955999998,4082.0
394.956999998,4082.0
394.957999998,4085.0
394.958999998,4077.0
394.959999998,4077.0
394.960999998,4081.0
394.961999998,4080.0
394.962999998,4073.0
394.963999998,4073.0
394.964999998,4078.0
394.965999998,4073.0
394.966999998,4079.0
394.967999998,4078.0
394.968999998,4078.0
394.969999998,4072.0
394.970999998,4080.0
394.971999998,4079.0
394.972999998,4073.0
394.973999998,4078.0
394.974999998,4078.0
394.975999998,4080.0
394.976999998,4078.0
394.977999998,4074.0
394.978999998,4078.0
394.979999998,4082.0
394.980999998,4080.0
394.981999998,4084.0
394.982999998,4075.0
394.983999998,4082.0
394.984999998,4081.0
394.985999998,4074.0
394.986999998,4077.0
394.987999998,4058.0
394.988999998,4078.0
394.989999998,4074.0
394.990999998,4080.0
394.991999998,4079.0
394.992999998,4067.0
394.993999998,4078.0
394.994999998,4080.0
394.995999998,4073.0
394.996999998,4081.0
394.997999998,4074.0
394.998999998,4072.0
394.999999998,4080.0
395.000999998,4074.0
395.001999998,4095.0
395.002999998,4076.0
395.003999998,4083.0
395.004999998,4095.0
395.005999998,4080.0
395.006999998,4075.0
395.007999998,4083.0
395.008999998,4074.0
395.009999998,4085.0
395.010999998,4074.0
395.011999998,4080.0
395.012999998,4095.0
395.013999998,4070.0
395.014999998,4074.0
395.015999998,4083.0
395.016999998,4073.0
395.017999998,4082.0
395.018999998,4082.0
395.019999998,4082.0
395.020999998,4085.0
395.021999998,4080.0
395.022999998,4074.0
395.023999998,4081.0
395.024999998,4076.0
395.025999998,4077.0
395.026999998,4076.0
395.027999998,4078.0
395.028999998,4046.0
395.029999998,4073.0
395.030999998,4081.0
395.031999998,4077.0
395.032999998,4068.0
395.033999998,4011.0
395.034999998,3940.0
395.035999998,3885.0
395.036999998,3801.0
395.037999998,3715.0
395.038999998,3652.0
395.039999998,3562.0
395.040999998,3496.0
395.041999998,3452.0
395.042999998,3384.0
395.043999998,3299.0
395.044999998,3223.0
395.045999998,3160.0
395.046999998,3087.0
395.047999998,3029.0
395.048999998,2979.0
395.049999998,2930.0
395.050999998,2859.0
395.051999998,2797.0
395.052999998,2720.0
395.053999998,2653.0
395.054999998,2581.0
395.055999998,2510.0
395.056999998,2458.0
395.057999998,2408.0
395.058999998,2348.0
395.059999998,2295.0
395.060999998,2227.0
395.061999998,2156.0
395.062999998,2093.0
395.063999998,2052.0
395.064999998,2032.0
395.065999998,1986.0
395.066999998,1951.0
395.067999998,1901.0
395.068999998,1856.0
395.069999998,1807.0
395.070999998,1769.0
395.071999998,1746.0
395.072999998,1733.0
395.073999998,1712.0
395.074999998,1674.0
395.075999998,1643.0
395.076999998,1606.0
395.077999998,1564.0
395.078999998,1546.0
395.079999998,1523.0
395.080999998,1506.0
395.081999998,1492.0
395.082999998,1482.0
395.083999998,1449.0
395.084999998,1419.0
395.085999998,1382.0
395.086999998,1360.0
395.087999998,1360.0
395.088999998,1345.0
395.089999998,1331.0
395.090999998,1319.0
395.091999998,1302.0
395.092999998,1271.0
395.093999998,1247.0
395.094999998,1233.0
395.095999998,1228.0
395.096999998,1209.0
395.097999998,1205.0
395.098999998,1198.0
395.099999998,1167.0
395.100999998,1154.0
395.101999998,1136.0
395.102999998,1130.0
395.103999998,1123.0
395.104999998,1125.0
395.105999998,1116.0
395.106999998,1095.0
395.107999998,1081.0
395.108999998,1058.0
395.109999998,1047.0
395.110999998,1040.0
395.111999998,1041.0
395.112999998,1041.0
395.113999998,1053.0
395.114999998,1049.0
395.115999998,1059.0
395.116999998,1058.0
395.117999998,1065.0
395.118999998,1073.0
395.119999998,1066.0
395.120999998,1060.0
395.121999998,1029.0
395.122999998,960.0
395.123999998,880.0
395.124999998,827.0
395.125999998,791.0
395.126999998,742.0
395.127999998,691.0
395.128999998,689.0
395.129999998,707.0
395.130999998,783.0
395.131999998,849.0
395.132999998,909.0
395.133999998,1006.0
395.134999998,1087.0
395.135999998,1120.0
395.136999998,1143.0
395.137999998,1147.0
395.138999998,1158.0
395.139999998,1129.0
395.140999998,1106.0
395.141999998,1106.0
395.142999998,1091.0
395.143999998,1085.0
395.144999998,1094.0
395.145999998,1085.0
395.146999998,1069.0
395.147999998,1052.0
395.148999998,1050.0
395.149999998,1063.0
395.150999998,1081.0
395.151999998,1080.0
395.152999998,1081.0
395.153999998,1085.0
395.154999998,1085.0
395.155999998,1078.0
395.156999998,1088.0
395.157999998,1106.0
395.158999998,1102.0
395.159999998,1100.0
395.160999998,1114.0
395.161999998,1115.0
395.162999998,1114.0
395.163999998,1091.0
395.164999998,1081.0
395.165999998,1091.0
395.166999998,1092.0
395.167999998,1102.0
395.168999998,1099.0
395.169999998,1097.0
395.170999998,1091.0
395.171999998,1082.0
395.172999998,1085.0
395.173999998,1102.0
395.174999998,1102.0
395.175999998,1118.0
395.176999998,1113.0
395.177999998,1115.0
395.178999998,1116.0
395.179999998,1098.0
395.180999998,1111.0
395.181999998,1124.0
395.182999998,1136.0
395.183999998,1135.0
395.184999998,1150.0
395.185999998,1154.0
395.186999998,1148.0
395.187999998,1146.0
395.188999998,1164.0
395.189999998,1178.0
395.190999998,1185.0
395.191999998,1199.0
395.192999998,1196.0
395.193999998,1206.0
395.194999998,1213.0
395.195999998,1207.0
395.196999998,1231.0
395.197999998,1232.0
395.198999998,1256.0
395.199999998,1267.0
395.200999998,1264.0
395.201999998,1274.0
395.202999998,1282.0
395.203999998,1280.0
395.204999998,1284.0
395.205999998,1298.0
395.206999998,1313.0
395.207999998,1313.0
395.208999998,1319.0
395.209999998,1314.0
395.210999998,1307.0
395.211999998,1318.0
395.212999998,1318.0
395.213999998,1332.0
395.214999998,1337.0
395.215999998,1342.0
395.216999998,1342.0
395.217999998,1339.0
395.218999998,1355.0
395.219999998,1362.0
395.220999998,1377.0
395.221999998,1392.0
395.222999998,1414.0
395.223999998,1416.0
395.224999998,1425.0
395.225999998,1449.0
395.226999998,1463.0
395.227999998,1477.0
395.228999998,1485.0
395.229999998,1511.0
395.230999998,1531.0
395.231999998,1530.0
395.232999998,1542.0
395.233999998,1558.0
395.234999998,1560.0
395.235999998,1583.0
395.236999998,1593.0
395.237999998,1611.0
395.238999998,1619.0
395.239999998,1633.0
395.240999998,1640.0
395.241999998,1625.0
395.242999998,1623.0
395.243999998,1633.0
395.244999998,1641.0
395.245999998,1660.0
395.246999998,1665.0
395.247999998,1671.0
395.248999998,1666.0
395.249999998,1660.0
395.250999998,1669.0
395.251999998,1670.0
395.252999998,1670.0
395.253999998,1669.0
395.254999998,1683.0
395.255999998,1685.0
395.256999998,1681.0
395.257999998,1668.0
395.258999998,1677.0
395.259999998,1696.0
395.260999998,1679.0
395.261999998,1694.0
395.262999998,1696.0
395.263999998,1686.0
395.264999998,1690.0
395.265999998,1691.0
395.266999998,1699.0
395.267999998,1711.0
395.268999998,1714.0
395.269999998,1720.0
395.270999998,1725.0
395.271999998,1709.0
395.272999998,1707.0
395.273999998,1710.0
395.274999998,1718.0
395.275999998,1714.0
395.276999998,1717.0
395.277999998,1713.0
395.278999998,1718.0
395.279999998,1707.0
395.280999998,1707.0
395.281999998,1716.0
395.282999998,1722.0
395.283999998,1728.0
395.284999998,1734.0
395.285999998,1739.0
395.286999998,1724.0
395.287999998,1716.0
395.288999998,1724.0
395.289999998,1735.0
395.290999998,1749.0
395.291999998,1751.0
395.292999998,1761.0
395.293999998,1765.0
395.294999998,1770.0
395.295999998,1764.0
395.296999998,1764.0
395.297999998,1760.0
395.298999998,1770.0
395.299999998,1772.0
395.300999998,1776.0
395.301999998,1770.0
395.302999998,1774.0
395.303999998,1767.0
395.304999998,1773.0
395.305999998,1793.0
395.306999998,1793.0
395.307999998,1800.0
395.308999998,1799.0
395.309999998,1796.0
395.310999998,1803.0
395.311999998,1795.0
395.312999998,1809.0
395.313999998,1819.0
395.314999998,1821.0
395.315999998,1829.0
395.316999998,1832.0
395.317999998,1824.0
395.318999998,1815.0
395.319999998,1814.0
395.320999998,1824.0
395.321999998,1832.0
395.322999998,1848.0
395.323999998,1853.0
395.324999998,1856.0
395.325999998,1849.0
395.326999998,1845.0
395.327999998,1842.0
395.328999998,1850.0
395.329999998,1859.0
395.330999998,1864.0
395.331999998,1873.0
395.332999998,1860.0
395.333999998,1855.0
395.334999998,1854.0
395.335999998,1854.0
395.336999998,1870.0
395.337999998,1881.0
395.338999998,1877.0
395.339999998,1886.0
395.340999998,1877.0
395.341999998,1881.0
395.342999998,1874.0
395.343999998,1874.0
395.344999998,1863.0
395.345999998,1884.0
395.346999998,1883.0
395.347999998,1897.0
395.348999998,1905.0
395.349999998,1892.0
395.350999998,1886.0
395.351999998,1891.0
395.352999998,1898.0
395.353999998,1905.0
395.354999998,1910.0
395.355999998,1920.0
395.356999998,1911.0
395.357999998,1914.0
395.358999998,1913.0
395.359999998,1919.0
395.360999998,1922.0
395.361999998,1927.0
395.362999998,1933.0
395.363999998,1938.0
395.364999998,1918.0
395.365999998,1913.0
395.366999998,1906.0
395.367999998,1909.0
395.368999998,1918.0
395.369999998,1923.0
395.370999998,1935.0
395.371999998,1930.0
395.372999998,1910.0
395.373999998,1909.0
395.374999998,1915.0
395.375999998,1919.0
395.376999998,1930.0
395.377999998,1935.0
395.378999998,1937.0
395.379999998,1948.0
395.380999998,1931.0
395.381999998,1920.0
395.382999998,1940.0
395.383999998,1947.0
395.384999998,1942.0
395.385999998,1948.0
395.386999998,1970.0
395.387999998,1956.0
395.388999998,1947.0
395.389999998,1946.0
395.390999998,1953.0
395.391999998,1960.0
395.392999998,1963.0
395.393999998,1978.0
395.394999998,1963.0
395.395999998,1959.0
395.396999998,1946.0
395.397999998,1942.0
395.398999998,1951.0
395.399999998,1950.0
395.400999998,1960.0
395.401999998,1969.0
395.402999998,1958.0
395.403999998,1951.0
395.404999998,1957.0
395.405999998,1953.0
395.406999998,1973.0
395.407999998,1995.0
395.408999998,2011.0
395.409999998,2019.0
395.410999998,2012.0
395.411999998,1992.0
395.412999998,1957.0
395.413999998,1900.0
395.414999998,1844.0
395.415999998,1791.0
395.416999998,1745.0
395.417999998,1695.0
395.418999998,1628.0
395.419999998,1605.0
395.420999998,1607.0
395.421999998,1665.0
395.422999998,1765.0
395.423999998,1848.0
395.424999998,1936.0
395.425999998,2020.0
395.426999998,2049.0
395.427999998,2076.0
395.428999998,2081.0
395.429999998,2077.0
395.430999998,2091.0
395.431999998,2084.0
395.432999998,2063.0
395.433999998,2054.0
395.434999998,2030.0
395.435999998,2021.0
395.436999998,2003.0
395.437999998,2029.0
395.438999998,2047.0
395.439999998,2062.0
395.440999998,2071.0
395.441999998,2067.0
395.442999998,2061.0
395.443999998,2061.0
395.444999998,2062.0
395.445999998,2059.0
395.446999998,2070.0
395.447999998,2101.0
395.448999998,2102.0
395.449999998,2117.0
395.450999998,2137.0
395.451999998,2133.0
395.452999998,2118.0
395.453999998,2127.0
395.454999998,2148.0
395.455999998,2162.0
395.456999998,2173.0
395.457999998,2203.0
395.458999998,2140.0
395.459999998,2140.0
395.460999998,2121.0
395.461999998,2119.0
395.462999998,2094.0
395.463999998,2082.0
395.464999998,2067.0
395.465999998,2030.0
395.466999998,2018.0
395.467999998,2017.0
395.468999998,2016.0
395.469999998,1991.0
395.470999998,2015.0
395.471999998,1968.0
395.472999998,1961.0
395.473999998,1982.0
395.474999998,1941.0
395.475999998,1958.0
395.476999998,1945.0
395.477999998,1931.0
395.478999998,1934.0
395.479999998,1940.0
395.480999998,1931.0
395.481999998,1928.0
395.482999998,1914.0
395.483999998,1907.0
395.484999998,1919.0
395.485999998,1922.0
395.486999998,1920.0
395.487999998,1914.0
395.488999998,1905.0
395.489999998,1897.0
395.490999998,1886.0
395.491999998,1878.0
395.492999998,1880.0
395.493999998,1880.0
395.494999998,1887.0
395.495999998,1872.0
395.496999998,1872.0
395.497999998,1855.0
395.498999998,1845.0
395.499999998,1855.0
395.500999998,1862.0
395.501999998,1858.0
395.502999998,1865.0
395.503999998,1866.0
395.504999998,1854.0
395.505999998,1846.0
395.506999998,1836.0
395.507999998,1842.0
395.508999998,1855.0
395.509999998,1862.0
395.510999998,1875.0
395.511999998,1896.0
395.512999998,1898.0
395.513999998,1885.0
395.514999998,1884.0
395.515999998,1895.0
395.516999998,1909.0
395.517999998,1914.0
395.518999998,1927.0
395.519999998,1925.0
395.520999998,1923.0
395.521999998,1936.0
395.522999998,1918.0
395.523999998,1928.0
395.524999998,1928.0
395.525999998,1923.0
395.526999998,1938.0
395.527999998,1946.0
395.528999998,1939.0
395.529999998,1932.0
395.530999998,1928.0
395.531999998,1939.0
395.532999998,1949.0
395.533999998,1944.0
395.534999998,1952.0
395.535999998,1945.0
395.536999998,1954.0
395.537999998,1939.0
395.538999998,1928.0
395.539999998,1937.0
395.540999998,1935.0
395.541999998,1910.0
395.542999998,1936.0
395.543999998,1969.0
395.544999998,1934.0
395.545999998,1921.0
395.546999998,1928.0
395.547999998,1941.0
395.548999998,1940.0
395.549999998,1944.0
395.550999998,1941.0
395.551999998,1943.0
395.552999998,1934.0
395.553999998,1933.0
395.554999998,1936.0
395.555999998,1940.0
395.556999998,1955.0
395.557999998,1953.0
395.558999998,1962.0
395.559999998,1948.0
395.560999998,1941.0
395.561999998,1939.0
395.562999998,1942.0
395.563999998,1957.0
395.564999998,1959.0
395.565999998,1963.0
395.566999998,1958.0
395.567999998,1951.0
395.568999998,1941.0
395.569999998,1944.0
395.570999998,1955.0
395.571999998,1974.0
395.572999998,1973.0
395.573999998,1975.0
395.574999998,1962.0
395.575999998,1958.0
395.576999998,1956.0
395.577999998,1950.0
395.578999998,1944.0
395.579999998,1944.0
395.580999998,1951.0
395.581999998,1936.0
395.582999998,1937.0
395.583999998,1932.0
395.584999998,1918.0
395.585999998,1910.0
395.586999998,1912.0
395.587999998,1928.0
395.588999998,1930.0
395.589999998,1936.0
395.590999998,1915.0
395.591999998,1909.0
395.592999998,1916.0
395.593999998,1924.0
395.594999998,1929.0
395.595999998,1935.0
395.596999998,1930.0
395.597999998,1931.0
395.598999998,1928.0
395.599999998,1922.0
395.600999998,1911.0
395.601999998,1917.0
395.602999998,1929.0
395.603999998,1934.0
395.604999998,1942.0
395.605999998,1957.0
395.606999998,1928.0
395.607999998,1932.0
395.608999998,1928.0
395.609999998,1932.0
395.610999998,1950.0
395.611999998,1959.0
395.612999998,1960.0
395.613999998,1958.0
395.614999998,1953.0
395.615999998,1936.0
395.616999998,1936.0
395.617999998,1943.0
395.618999998,1955.0
395.619999998,1959.0
395.620999998,1969.0
395.621999998,1968.0
395.622999998,1967.0
395.623999998,1969.0
395.624999998,1956.0
395.625999998,1971.0
395.626999998,1970.0
395.627999998,1982.0
395.628999998,1982.0
395.629999998,1977.0
395.630999998,1968.0
395.631999998,1969.0
395.632999998,1955.0
395.633999998,1965.0
395.634999998,1966.0
395.635999998,1971.0
395.636999998,1972.0
395.637999998,1964.0
395.638999998,1957.0
395.639999998,1945.0
395.640999998,1957.0
395.641999998,1965.0
395.642999998,1969.0
395.643999998,1969.0
395.644999998,1980.0
395.645999998,1974.0
395.646999998,1968.0
395.647999998,1965.0
395.648999998,1975.0
395.649999998,1985.0
395.650999998,1996.0
395.651999998,1999.0
395.652999998,1989.0
395.653999998,1984.0
395.654999998,1985.0
395.655999998,1988.0
395.656999998,1991.0
395.657999998,2008.0
395.658999998,2014.0
395.659999998,2013.0
395.660999998,2010.0
395.661999998,2007.0
395.662999998,1993.0
395.663999998,1988.0
395.664999998,2001.0
395.665999998,2004.0
395.666999998,1990.0
395.667999998,2010.0
395.668999998,1996.0
395.669999998,1985.0
395.670999998,1973.0
395.671999998,1981.0
395.672999998,1988.0
395.673999998,1998.0
395.674999998,1999.0
395.675999998,2002.0
395.676999998,1998.0
395.677999998,1990.0
395.678999998,1984.0
395.679999998,2001.0
395.680999998,2016.0
395.681999998,2003.0
395.682999998,2017.0
395.683999998,2018.0
395.684999998,2026.0
395.685999998,2017.0
395.686999998,2008.0
395.687999998,2002.0
395.688999998,2030.0
395.689999998,2003.0
395.690999998,2014.0
395.691999998,2020.0
395.692999998,2009.0
395.693999998,2006.0
395.694999998,1998.0
395.695999998,2007.0
395.696999998,2005.0
395.697999998,2024.0
395.698999998,2020.0
395.699999998,1999.0
395.700999998,2002.0
395.701999998,2006.0
395.702999998,1984.0
395.703999998,2004.0
395.704999998,2004.0
395.705999998,2032.0
395.706999998,2054.0
395.707999998,2055.0
395.708999998,2061.0
395.709999998,2045.0
395.710999998,2033.0
395.711999998,2004.0
395.712999998,1967.0
395.713999998,1897.0
395.714999998,1842.0
395.715999998,1788.0
395.716999998,1719.0
395.717999998,1660.0
395.718999998,1633.0
395.719999998,1645.0
395.720999998,1714.0
395.721999998,1805.0
395.722999998,1860.0
395.723999998,1944.0
395.724999998,2031.0
395.725999998,2069.0
395.726999998,2092.0
395.727999998,2114.0
395.728999998,2129.0
395.729999998,2123.0
395.730999998,2105.0
395.731999998,2089.0
395.732999998,2056.0
395.733999998,2055.0
395.734999998,2042.0
395.735999998,2037.0
395.736999998,2040.0
395.737999998,2032.0
395.738999998,2030.0
395.739999998,2024.0
395.740999998,2027.0
395.741999998,2032.0
395.742999998,2024.0
395.743999998,2021.0
395.744999998,2030.0
395.745999998,2041.0
395.746999998,2026.0
395.747999998,2014.0
395.748999998,2008.0
395.749999998,2005.0
395.750999998,2012.0
395.751999998,2019.0
395.752999998,2026.0
395.753999998,2028.0
395.754999998,2011.0
395.755999998,2002.0
395.756999998,2004.0
395.757999998,2029.0
395.758999998,2025.0
395.759999998,2020.0
395.760999998,2025.0
395.761999998,2023.0
395.762999998,2017.0
395.763999998,2008.0
395.764999998,2000.0
395.765999998,2004.0
395.766999998,2001.0
395.767999998,2013.0
395.768999998,2033.0
395.769999998,2032.0
395.770999998,2029.0
395.771999998,2020.0
395.772999998,2026.0
395.773999998,2027.0
395.774999998,2037.0
395.775999998,2046.0
395.776999998,2059.0
395.777999998,2057.0
395.778999998,2067.0
395.779999998,2060.0
395.780999998,2068.0
395.781999998,2075.0
395.782999998,2069.0
395.783999998,2066.0
395.784999998,2071.0
395.785999998,2067.0
395.786999998,2067.0
395.787999998,2066.0
395.788999998,2111.0
395.789999998,2155.0
395.790999998,2146.0
395.791999998,2147.0
395.792999998,2162.0
395.793999998,2149.0
395.794999998,2140.0
395.795999998,2128.0
395.796999998,2146.0
395.797999998,2158.0
395.798999998,2148.0
395.799999998,2145.0
395.800999998,2135.0
395.801999998,2110.0
395.802999998,2108.0
395.803999998,2102.0
395.804999998,2120.0
395.805999998,2117.0
395.806999998,2104.0
395.807999998,2114.0
395.808999998,2124.0
395.809999998,2107.0
395.810999998,2109.0
395.811999998,2096.0
395.812999998,2102.0
395.813999998,2123.0
395.814999998,2123.0
395.815999998,2126.0
395.816999998,2144.0
395.817999998,2142.0
395.818999998,2134.0
395.819999998,2144.0
395.820999998,2153.0
395.821999998,2165.0
395.822999998,2154.0
395.823999998,2159.0
395.824999998,2166.0
395.825999998,2159.0
395.826999998,2153.0
395.827999998,2153.0
395.828999998,2155.0
395.829999998,2168.0
395.830999998,2176.0
395.831999998,2167.0
395.832999998,2172.0
395.833999998,2191.0
395.834999998,2193.0
395.835999998,2205.0
395.836999998,2207.0
395.837999998,2208.0
395.838999998,2201.0
395.839999998,2200.0
395.840999998,2193.0
395.841999998,2173.0
395.842999998,2175.0
395.843999998,2181.0
395.844999998,2190.0
395.845999998,2192.0
395.846999998,2194.0
395.847999998,2177.0
395.848999998,2176.0
395.849999998,2172.0
395.850999998,2163.0
395.851999998,2165.0
395.852999998,2167.0
395.853999998,2160.0
395.854999998,2167.0
395.855999998,2152.0
395.856999998,2148.0
395.857999998,2130.0
395.858999998,2124.0
395.859999998,2148.0
395.860999998,2146.0
395.861999998,2152.0
395.862999998,2151.0
395.863999998,2125.0
395.864999998,2132.0
395.865999998,2114.0
395.866999998,2115.0
395.867999998,2113.0
395.868999998,2120.0
395.869999998,2122.0
395.870999998,2113.0
395.871999998,2104.0
395.872999998,2098.0
395.873999998,2082.0
395.874999998,2081.0
395.875999998,2076.0
395.876999998,2087.0
395.877999998,2084.0
395.878999998,2083.0
395.879999998,2076.0
395.880999998,2078.0
395.881999998,2067.0
395.882999998,2073.0
395.883999998,2073.0
395.884999998,2090.0
395.885999998,2090.0
395.886999998,2086.0
395.887999998,2078.0
395.888999998,2079.0
395.889999998,2089.0
395.890999998,2088.0
395.891999998,2082.0
395.892999998,2096.0
395.893999998,2098.0
395.894999998,2088.0
395.895999998,2086.0
395.896999998,2071.0
395.897999998,2070.0
395.898999998,2082.0
395.899999998,2098.0
395.900999998,2102.0
395.901999998,2095.0
395.902999998,2094.0
395.903999998,2078.0
395.904999998,2065.0
395.905999998,2107.0
395.906999998,2074.0
395.907999998,2076.0
395.908999998,2086.0
395.909999998,2077.0
395.910999998,2065.0
395.911999998,2052.0
395.912999998,2059.0
395.913999998,2063.0
395.914999998,2064.0
395.915999998,2032.0
395.916999998,2066.0
395.917999998,2074.0
395.918999998,2040.0
395.919999998,2028.0
395.920999998,2016.0
395.921999998,2023.0
395.922999998,2026.0
395.923999998,2014.0
395.924999998,2007.0
395.925999998,2002.0
395.926999998,1987.0
395.927999998,1978.0
395.928999998,2014.0
395.929999998,1990.0
395.930999998,1980.0
395.931999998,1961.0
395.932999998,1947.0
395.933999998,1988.0
395.934999998,1973.0
395.935999998,1953.0
395.936999998,1952.0
395.937999998,1947.0
395.938999998,1959.0
395.939999998,1962.0
395.940999998,1979.0
395.941999998,1957.0
395.942999998,1956.0
395.943999998,1939.0
395.944999998,1951.0
395.945999998,1951.0
395.946999998,1944.0
395.947999998,1941.0
395.948999998,1949.0
395.949999998,1937.0
395.950999998,1936.0
395.951999998,1925.0
395.952999998,1938.0
395.953999998,1941.0
395.954999998,1926.0
395.955999998,1931.0
395.956999998,1925.0
395.957999998,1911.0
395.958999998,1921.0
395.959999998,1914.0
395.960999998,1910.0
395.961999998,1914.0
395.962999998,1908.0
395.963999998,1918.0
395.964999998,1902.0
395.965999998,1887.0
395.966999998,1887.0
395.967999998,1864.0
395.968999998,1873.0
395.969999998,1889.0
395.970999998,1893.0
395.971999998,1897.0
395.972999998,1894.0
395.973999998,1885.0
395.974999998,1886.0
395.975999998,1869.0
395.976999998,1877.0
395.977999998,1888.0
395.978999998,1876.0
395.979999998,1868.0
395.980999998,1874.0
395.981999998,1869.0
395.982999998,1861.0
395.983999998,1866.0
395.984999998,1856.0
395.985999998,1864.0
395.986999998,1877.0
395.987999998,1886.0
395.988999998,1875.0
395.989999998,1868.0
395.990999998,1861.0
395.991999998,1870.0
395.992999998,1880.0
395.993999998,1887.0
395.994999998,1897.0
395.995999998,1901.0
395.996999998,1890.0
395.997999998,1886.0
395.998999998,1881.0
395.999999998,1893.0
396.000999998,1902.0
396.001999998,1902.0
396.002999998,1914.0
396.003999998,1913.0
396.004999998,1918.0
396.005999998,1918.0
396.006999998,1914.0
396.007999998,1923.0
396.008999998,1931.0
396.009999998,1935.0
396.010999998,1934.0
396.011999998,1926.0
396.012999998,1924.0
396.013999998,1928.0
396.014999998,1939.0
396.015999998,1957.0
396.016999998,1983.0
396.017999998,2004.0
396.018999998,1997.0
396.019999998,1997.0
396.020999998,1980.0
396.021999998,1944.0
396.022999998,1914.0
396.023999998,1882.0
396.024999998,1814.0
396.025999998,1771.0
396.026999998,1708.0
396.027999998,1635.0
396.028999998,1574.0
396.029999998,1561.0
396.030999998,1611.0
396.031999998,1694.0
396.032999998,1775.0
396.033999998,1850.0
396.034999998,1933.0
396.035999998,1997.0
396.036999998,2039.0
396.037999998,2065.0
396.038999998,2093.0
396.039999998,2093.0
396.040999998,2098.0
396.041999998,2085.0
396.042999998,2069.0
396.043999998,2061.0
396.044999998,2041.0
396.045999998,2028.0
396.046999998,2028.0
396.047999998,2024.0
396.048999998,2028.0
396.049999998,2015.0
396.050999998,2011.0
396.051999998,2006.0
396.052999998,2003.0
396.053999998,2006.0
396.054999998,2018.0
396.055999998,2023.0
396.056999998,2027.0
396.057999998,2029.0
396.058999998,2015.0
396.059999998,2027.0
396.060999998,2012.0
396.061999998,2009.0
396.062999998,2020.0
396.063999998,2026.0
396.064999998,2029.0
396.065999998,2034.0
396.066999998,2029.0
396.067999998,2030.0
396.068999998,2015.0
396.069999998,2026.0
396.070999998,2044.0
396.071999998,2041.0
396.072999998,2042.0
396.073999998,2047.0
396.074999998,2030.0
396.075999998,2032.0
396.076999998,2033.0
396.077999998,2036.0
396.078999998,2045.0
396.079999998,2044.0
396.080999998,2046.0
396.081999998,2036.0
396.082999998,2027.0
396.083999998,2020.0
396.084999998,2011.0
396.085999998,2022.0
396.086999998,2023.0
396.087999998,2033.0
396.088999998,2020.0
396.089999998,2007.0
396.090999998,1990.0
396.091999998,1990.0
396.092999998,2006.0
396.093999998,2019.0
396.094999998,2021.0
396.095999998,2013.0
396.096999998,2021.0
396.097999998,2011.0
396.098999998,2009.0
396.099999998,1988.0
396.100999998,1988.0
396.101999998,1991.0
396.102999998,1996.0
396.103999998,2005.0
396.104999998,2000.0
396.105999998,1982.0
396.106999998,1974.0
396.107999998,1966.0
396.108999998,1974.0
396.109999998,1998.0
396.110999998,2008.0
396.111999998,2014.0
396.112999998,1994.0
396.113999998,1994.0
396.114999998,1998.0
396.115999998,1992.0
396.116999998,1994.0
396.117999998,2006.0
396.118999998,2010.0
396.119999998,2014.0
396.120999998,2031.0
396.121999998,2036.0
396.122999998,2016.0
396.123999998,2033.0
396.124999998,2038.0
396.125999998,2046.0
396.126999998,2058.0
396.127999998,2077.0
396.128999998,2072.0
396.129999998,2080.0
396.130999998,2074.0
396.131999998,2077.0
396.132999998,2089.0
396.133999998,2094.0
396.134999998,2099.0
396.135999998,2093.0
396.136999998,2086.0
396.137999998,2075.0
396.138999998,2063.0
396.139999998,2053.0
396.140999998,2055.0
396.141999998,2077.0
396.142999998,2090.0
396.143999998,2078.0
396.144999998,2082.0
396.145999998,2061.0
396.146999998,2065.0
396.147999998,2071.0
396.148999998,2083.0
396.149999998,2087.0
396.150999998,2086.0
396.151999998,2080.0
396.152999998,2075.0
396.153999998,2067.0
396.154999998,2068.0
396.155999998,2057.0
396.156999998,2064.0
396.157999998,2053.0
396.158999998,2067.0
396.159999998,2053.0
396.160999998,2044.0
396.161999998,2038.0
396.162999998,2042.0
396.163999998,2048.0
396.164999998,2053.0
396.165999998,2050.0
396.166999998,2062.0
396.167999998,2060.0
396.168999998,2065.0
396.169999998,2047.0
396.170999998,2040.0
396.171999998,2061.0
396.172999998,2044.0
396.173999998,2055.0
396.174999998,2043.0
396.175999998,2043.0
396.176999998,2045.0
396.177999998,2027.0
396.178999998,2030.0
396.179999998,2035.0
396.180999998,2039.0
396.181999998,2039.0
396.182999998,2036.0
396.183999998,2008.0
396.184999998,1996.0
396.185999998,1996.0
396.186999998,2012.0
396.187999998,2016.0
396.188999998,2024.0
396.189999998,2025.0
396.190999998,2025.0
396.191999998,2017.0
396.192999998,2007.0
396.193999998,2011.0
396.194999998,2011.0
396.195999998,2020.0
396.196999998,2015.0
396.197999998,2016.0
396.198999998,2027.0
396.199999998,2014.0
396.200999998,2011.0
396.201999998,2016.0
396.202999998,2030.0
396.203999998,2037.0
396.204999998,2021.0
396.205999998,2028.0
396.206999998,2011.0
396.207999998,2016.0
396.208999998,2011.0
396.209999998,2011.0
396.210999998,2017.0
396.211999998,2017.0
396.212999998,2024.0
396.213999998,2014.0
396.214999998,2010.0
396.215999998,2024.0
396.216999998,2023.0
396.217999998,2021.0
396.218999998,2027.0
396.219999998,2034.0
396.220999998,2031.0
396.221999998,2022.0
396.222999998,2024.0
396.223999998,2028.0
396.224999998,2017.0
396.225999998,2033.0
396.226999998,2039.0
396.227999998,2036.0
396.228999998,2043.0
396.229999998,2033.0
396.230999998,2042.0
396.231999998,2040.0
396.232999998,2027.0
396.233999998,2031.0
396.234999998,2052.0
396.235999998,2040.0
396.236999998,2052.0
396.237999998,2038.0
396.238999998,2026.0
396.239999998,2027.0
396.240999998,2027.0
396.241999998,2040.0
396.242999998,2054.0
396.243999998,2056.0
396.244999998,2054.0
396.245999998,2049.0
396.246999998,2057.0
396.247999998,2052.0
396.248999998,2039.0
396.249999998,2041.0
396.250999998,2050.0
396.251999998,2048.0
396.252999998,2060.0
396.253999998,2048.0
396.254999998,2050.0
396.255999998,2043.0
396.256999998,2038.0
396.257999998,2062.0
396.258999998,2060.0
396.259999998,2063.0
396.260999998,2056.0
396.261999998,2042.0
396.262999998,2054.0
396.263999998,2040.0
396.264999998,2029.0
396.265999998,2042.0
396.266999998,2056.0
396.267999998,2063.0
396.268999998,2056.0
396.269999998,2051.0
396.270999998,2047.0
396.271999998,2043.0
396.272999998,2043.0
396.273999998,2049.0
396.274999998,2050.0
396.275999998,2061.0
396.276999998,2064.0
396.277999998,2062.0
396.278999998,2069.0
396.279999998,2068.0
396.280999998,2070.0
396.281999998,2069.0
396.282999998,2067.0
396.283999998,2075.0
396.284999998,2056.0
396.285999998,2052.0
396.286999998,2053.0
396.287999998,2049.0
396.288999998,2050.0
396.289999998,2057.0
396.290999998,2053.0
396.291999998,2050.0
396.292999998,2043.0
396.293999998,2039.0
396.294999998,2041.0
396.295999998,2038.0
396.296999998,2039.0
396.297999998,2042.0
396.298999998,2059.0
396.299999998,2042.0
396.300999998,2045.0
396.301999998,2007.0
396.302999998,1973.0
396.303999998,1988.0
396.304999998,1972.0
396.305999998,1948.0
396.306999998,1942.0
396.307999998,1933.0
396.308999998,1925.0
396.309999998,1910.0
396.310999998,1911.0
396.311999998,1952.0
396.312999998,1961.0
396.313999998,1968.0
396.314999998,1987.0
396.315999998,2000.0
396.316999998,1991.0
396.317999998,1989.0
396.318999998,2005.0
396.319999998,2025.0
396.320999998,2024.0
396.321999998,2038.0
396.322999998,2039.0
396.323999998,2041.0
396.324999998,2047.0
396.325999998,2031.0
396.326999998,2046.0
396.327999998,2051.0
396.328999998,2047.0
396.329999998,2055.0
396.330999998,2060.0
396.331999998,2054.0
396.332999998,2043.0
396.333999998,2049.0
396.334999998,2051.0
396.335999998,2074.0
396.336999998,2066.0
396.337999998,2049.0
396.338999998,2043.0
396.339999998,2047.0
396.340999998,2039.0
396.341999998,2030.0
396.342999998,2052.0
396.343999998,2069.0
396.344999998,2069.0
396.345999998,2075.0
396.346999998,2089.0
396.347999998,2088.0
396.348999998,2099.0
396.349999998,2081.0
396.350999998,2069.0
396.351999998,2041.0
396.352999998,1988.0
396.353999998,1926.0
396.354999998,1882.0
396.355999998,1832.0
396.356999998,1747.0
396.357999998,1683.0
396.358999998,1682.0
396.359999998,1715.0
396.360999998,1791.0
396.361999998,1862.0
396.362999998,1910.0
396.363999998,1995.0
396.364999998,2070.0
396.365999998,2088.0
396.366999998,2120.0
396.367999998,2147.0
396.368999998,2175.0
396.369999998,2172.0
396.370999998,2148.0
396.371999998,2132.0
396.372999998,2121.0
396.373999998,2073.0
396.374999998,2100.0
396.375999998,2109.0
396.376999998,2117.0
396.377999998,2107.0
396.378999998,2094.0
396.379999998,2104.0
396.380999998,2093.0
396.381999998,2081.0
396.382999998,2094.0
396.383999998,2095.0
396.384999998,2106.0
396.385999998,2064.0
396.386999998,2091.0
396.387999998,2081.0
396.388999998,2045.0
396.389999998,2086.0
396.390999998,2097.0
396.391999998,2114.0
396.392999998,2100.0
396.393999998,2078.0
396.394999998,2099.0
396.395999998,2095.0
396.396999998,2092.0
396.397999998,2100.0
396.398999998,2093.0
396.399999998,2096.0
396.400999998,2103.0
396.401999998,2079.0
396.402999998,2088.0
396.403999998,2077.0
396.404999998,2073.0
396.405999998,2074.0
396.406999998,2083.0
396.407999998,2084.0
396.408999998,2094.0
396.409999998,2071.0
396.410999998,2080.0
396.411999998,2077.0
396.412999998,2080.0
396.413999998,2062.0
396.414999998,2074.0
396.415999998,2077.0
396.416999998,2074.0
396.417999998,2053.0
396.418999998,2054.0
396.419999998,2045.0
396.420999998,2048.0
396.421999998,2051.0
396.422999998,2062.0
396.423999998,2067.0
396.424999998,2054.0
396.425999998,2044.0
396.426999998,2018.0
396.427999998,2012.0
396.428999998,2001.0
396.429999998,2001.0
396.430999998,2011.0
396.431999998,2021.0
396.432999998,2018.0
396.433999998,2004.0
396.434999998,1999.0
396.435999998,1999.0
396.436999998,2003.0
396.437999998,2007.0
396.438999998,2001.0
396.439999998,2010.0
396.440999998,2009.0
396.441999998,2006.0
396.442999998,2006.0
396.443999998,2020.0
396.444999998,2016.0
396.445999998,2023.0
396.446999998,2039.0
396.447999998,2037.0
396.448999998,2048.0
396.449999998,2045.0
396.450999998,2029.0
396.451999998,2045.0
396.452999998,2081.0
396.453999998,2086.0
396.454999998,2086.0
396.455999998,2096.0
396.456999998,2082.0
396.457999998,2075.0
396.458999998,2082.0
396.459999998,2093.0
396.460999998,2105.0
396.461999998,2103.0
396.462999998,2116.0
396.463999998,2124.0
396.464999998,2112.0
396.465999998,2101.0
396.466999998,2107.0
396.467999998,2127.0
396.468999998,2132.0
396.469999998,2129.0
396.470999998,2129.0
396.471999998,2130.0
396.472999998,2119.0
396.473999998,2118.0
396.474999998,2116.0
396.475999998,2118.0
396.476999998,2125.0
396.477999998,2128.0
396.478999998,2130.0
396.479999998,2127.0
396.480999998,2117.0
396.481999998,2106.0
396.482999998,2101.0
396.483999998,2100.0
396.484999998,2107.0
396.485999998,2113.0
396.486999998,2126.0
396.487999998,2094.0
396.488999998,2094.0
396.489999998,2091.0
396.490999998,2079.0
396.491999998,2091.0
396.492999998,2079.0
396.493999998,2089.0
396.494999998,2100.0
396.495999998,2101.0
396.496999998,2093.0
396.497999998,2078.0
396.498999998,2075.0
396.499999998,2090.0
396.500999998,2107.0
396.501999998,2109.0
396.502999998,2108.0
396.503999998,2098.0
396.504999998,2085.0
396.505999998,2071.0
396.506999998,2075.0
396.507999998,2091.0
396.508999998,2099.0
396.509999998,2087.0
396.510999998,2082.0
396.511999998,2078.0
396.512999998,2074.0
396.513999998,2072.0
396.514999998,2070.0
396.515999998,2065.0
396.516999998,2076.0
396.517999998,2087.0
396.518999998,2091.0
396.519999998,2080.0
396.520999998,2069.0
396.521999998,2075.0
396.522999998,2077.0
396.523999998,2099.0
396.524999998,2091.0
396.525999998,2092.0
396.526999998,2075.0
396.527999998,2071.0
396.528999998,2072.0
396.529999998,2063.0
396.530999998,2072.0
396.531999998,2086.0
396.532999998,2084.0
396.533999998,2078.0
396.534999998,2062.0
396.535999998,2049.0
396.536999998,2049.0
396.537999998,2059.0
396.538999998,2062.0
396.539999998,2070.0
396.540999998,2063.0
396.541999998,2036.0
396.542999998,2013.0
396.543999998,2000.0
396.544999998,1996.0
396.545999998,1999.0
396.546999998,1999.0
396.547999998,1996.0
396.548999998,2000.0
396.549999998,1990.0
396.550999998,1986.0
396.551999998,1984.0
396.552999998,1990.0
396.553999998,1981.0
396.554999998,1976.0
396.555999998,1988.0
396.556999998,2001.0
396.557999998,1999.0
396.558999998,1996.0
396.559999998,1987.0
396.560999998,1992.0
396.561999998,2000.0
396.562999998,2006.0
396.563999998,2018.0
396.564999998,2014.0
396.565999998,2008.0
396.566999998,2011.0
396.567999998,2002.0
396.568999998,2002.0
396.569999998,2004.0
396.570999998,2007.0
396.571999998,2017.0
396.572999998,2013.0
396.573999998,2014.0
396.574999998,2013.0
396.575999998,2004.0
396.576999998,2014.0
396.577999998,2028.0
396.578999998,2024.0
396.579999998,2027.0
396.580999998,2027.0
396.581999998,2022.0
396.582999998,2018.0
396.583999998,2003.0
396.584999998,2020.0
396.585999998,2036.0
396.586999998,2036.0
396.587999998,2037.0
396.588999998,2018.0
396.589999998,2037.0
396.590999998,2022.0
396.591999998,2031.0
396.592999998,2053.0
396.593999998,2050.0
396.594999998,2056.0
396.595999998,2054.0
396.596999998,2061.0
396.597999998,2055.0
396.598999998,2053.0
396.599999998,2051.0
396.600999998,2052.0
396.601999998,2054.0
396.602999998,2052.0
396.603999998,2060.0
396.604999998,2049.0
396.605999998,2043.0
396.606999998,2026.0
396.607999998,2018.0
396.608999998,2036.0
396.609999998,2031.0
396.610999998,2032.0
396.611999998,2030.0
396.612999998,2028.0
396.613999998,2023.0
396.614999998,2018.0
396.615999998,2023.0
396.616999998,2042.0
396.617999998,2045.0
396.618999998,2039.0
396.619999998,2038.0
396.620999998,2018.0
396.621999998,2015.0
396.622999998,2017.0
396.623999998,2019.0
396.624999998,2024.0
396.625999998,2033.0
396.626999998,2031.0
396.627999998,2057.0
396.628999998,2036.0
396.629999998,2022.0
396.630999998,2004.0
396.631999998,2006.0
396.632999998,2017.0
396.633999998,2028.0
396.634999998,2024.0
396.635999998,2002.0
396.636999998,2015.0
396.637999998,2007.0
396.638999998,1999.0
396.639999998,2008.0
396.640999998,2012.0
396.641999998,2011.0
396.642999998,1996.0
396.643999998,2003.0
396.644999998,2014.0
396.645999998,2018.0
396.646999998,2018.0
396.647999998,2038.0
396.648999998,2039.0
396.649999998,2038.0
396.650999998,2033.0
396.651999998,2021.0
396.652999998,2015.0
396.653999998,1987.0
396.654999998,1992.0
396.655999998,1987.0
396.656999998,1994.0
396.657999998,1988.0
396.658999998,1987.0
396.659999998,1978.0
396.660999998,1987.0
396.661999998,1978.0
396.662999998,1981.0
396.663999998,1982.0
396.664999998,1986.0
396.665999998,1983.0
396.666999998,1964.0
396.667999998,1959.0
396.668999998,1947.0
396.669999998,1954.0
396.670999998,1964.0
396.671999998,1962.0
396.672999998,1987.0
396.673999998,1993.0
396.674999998,1982.0
396.675999998,1979.0
396.676999998,1973.0
396.677999998,1976.0
396.678999998,1978.0
396.679999998,1984.0
396.680999998,1994.0
396.681999998,2004.0
396.682999998,1993.0
396.683999998,1991.0
396.684999998,1985.0
396.685999998,2005.0
396.686999998,2002.0
396.687999998,2010.0
396.688999998,2014.0
396.689999998,2014.0
396.690999998,1995.0
396.691999998,1995.0
396.692999998,1998.0
396.693999998,2018.0
396.694999998,2032.0
396.695999998,2049.0
396.696999998,2047.0
396.697999998,2048.0
396.698999998,2033.0
396.699999998,1983.0
396.700999998,1934.0
396.701999998,1874.0
396.702999998,1818.0
396.703999998,1769.0
396.704999998,1715.0
396.705999998,1635.0
396.706999998,1593.0
396.707999998,1588.0
396.708999998,1640.0
396.709999998,1725.0
396.710999998,1791.0
396.711999998,1857.0
396.712999998,1953.0
396.713999998,2003.0
396.714999998,2032.0
396.715999998,2052.0
396.716999998,2072.0
396.717999998,2067.0
396.718999998,2058.0
396.719999998,2050.0
396.720999998,2048.0
396.721999998,2026.0
396.722999998,2012.0
396.723999998,1996.0
396.724999998,2006.0
396.725999998,2026.0
396.726999998,2032.0
396.727999998,2039.0
396.728999998,2034.0
396.729999998,2041.0
396.730999998,2041.0
396.731999998,2038.0
396.732999998,2045.0
396.733999998,2052.0
396.734999998,2049.0
396.735999998,2046.0
396.736999998,2049.0
396.737999998,2055.0
396.738999998,2032.0
396.739999998,2033.0
396.740999998,2037.0
396.741999998,2045.0
396.742999998,2060.0
396.743999998,2060.0
396.744999998,2064.0
396.745999998,2049.0
396.746999998,2038.0
396.747999998,2031.0
396.748999998,2045.0
396.749999998,2049.0
396.750999998,2039.0
396.751999998,2049.0
396.752999998,2057.0
396.753999998,2051.0
396.754999998,2035.0
396.755999998,2029.0
396.756999998,2049.0
396.757999998,2043.0
396.758999998,2046.0
396.759999998,2048.0
396.760999998,2057.0
396.761999998,2040.0
396.762999998,2023.0
396.763999998,2015.0
396.764999998,2034.0
396.765999998,2034.0
396.766999998,2044.0
396.767999998,2042.0
396.768999998,2033.0
396.769999998,2011.0
396.770999998,2008.0
396.771999998,2018.0
396.772999998,2034.0
396.773999998,2015.0
396.774999998,2026.0
396.775999998,2010.0
396.776999998,1997.0
396.777999998,2005.0
396.778999998,2002.0
396.779999998,2011.0
396.780999998,2018.0
396.781999998,2008.0
396.782999998,2010.0
396.783999998,1992.0
396.784999998,1998.0
396.785999998,1995.0
396.786999998,1997.0
396.787999998,2012.0
396.788999998,2025.0
396.789999998,2023.0
396.790999998,2025.0
396.791999998,2018.0
396.792999998,2027.0
396.793999998,2031.0
396.794999998,2017.0
396.795999998,2026.0
396.796999998,2035.0
396.797999998,2039.0
396.798999998,2037.0
396.799999998,2037.0
396.800999998,2034.0
396.801999998,2045.0
396.802999998,2050.0
396.803999998,2048.0
396.804999998,2063.0
396.805999998,2091.0
396.806999998,2096.0
396.807999998,2078.0
396.808999998,2077.0
396.809999998,2080.0
396.810999998,2074.0
396.811999998,2089.0
396.812999998,2098.0
396.813999998,2099.0
396.814999998,2100.0
396.815999998,2089.0
396.816999998,2088.0
396.817999998,2095.0
396.818999998,2117.0
396.819999998,2117.0
396.820999998,2121.0
396.821999998,2123.0
396.822999998,2117.0
396.823999998,2116.0
396.824999998,2122.0
396.825999998,2116.0
396.826999998,2138.0
396.827999998,2130.0
396.828999998,2135.0
396.829999998,2139.0
396.830999998,2137.0
396.831999998,2144.0
396.832999998,2124.0
396.833999998,2138.0
396.834999998,2148.0
396.835999998,2144.0
396.836999998,2149.0
396.837999998,2148.0
396.838999998,2151.0
396.839999998,2159.0
396.840999998,2133.0
396.841999998,2135.0
396.842999998,2126.0
396.843999998,2121.0
396.844999998,2135.0
396.845999998,2127.0
396.846999998,2117.0
396.847999998,2114.0
396.848999998,2111.0
396.849999998,2109.0
396.850999998,2140.0
396.851999998,2127.0
396.852999998,2123.0
396.853999998,2116.0
396.854999998,2119.0
396.855999998,2114.0
396.856999998,2106.0
396.857999998,2116.0
396.858999998,2122.0
396.859999998,2108.0
396.860999998,2125.0
396.861999998,2107.0
396.862999998,2100.0
396.863999998,2088.0
396.864999998,2096.0
396.865999998,2100.0
396.866999998,2111.0
396.867999998,2109.0
396.868999998,2097.0
396.869999998,2086.0
396.870999998,2078.0
396.871999998,2073.0
396.872999998,2074.0
396.873999998,2084.0
396.874999998,2076.0
396.875999998,2077.0
396.876999998,2086.0
396.877999998,2073.0
396.878999998,2071.0
396.879999998,2067.0
396.880999998,2072.0
396.881999998,2081.0
396.882999998,2074.0
396.883999998,2066.0
396.884999998,2060.0
396.885999998,2068.0
396.886999998,2061.0
396.887999998,2055.0
396.888999998,2068.0
396.889999998,2076.0
396.890999998,2076.0
396.891999998,2091.0
396.892999998,2087.0
396.893999998,2076.0
396.894999998,2076.0
396.895999998,2079.0
396.896999998,2077.0
396.897999998,2086.0
396.898999998,2098.0
396.899999998,2091.0
396.900999998,2097.0
396.901999998,2089.0
396.902999998,2078.0
396.903999998,2082.0
396.904999998,2099.0
396.905999998,2088.0
396.906999998,2040.0
396.907999998,2096.0
396.908999998,2096.0
396.909999998,2094.0
396.910999998,2090.0
396.911999998,2094.0
396.912999998,2093.0
396.913999998,2136.0
396.914999998,2072.0
396.915999998,2077.0
396.916999998,2074.0
396.917999998,2064.0
396.918999998,2074.0
396.919999998,2045.0
396.920999998,2052.0
396.921999998,2062.0
396.922999998,2071.0
396.923999998,2058.0
396.924999998,2067.0
396.925999998,2017.0
396.926999998,2034.0
396.927999998,2029.0
396.928999998,2040.0
396.929999998,2043.0
396.930999998,2048.0
396.931999998,2044.0
396.932999998,2031.0
396.933999998,2032.0
396.934999998,2027.0
396.935999998,2028.0
396.936999998,2035.0
396.937999998,2046.0
396.938999998,2045.0
396.939999998,2041.0
396.940999998,2035.0
396.941999998,2035.0
396.942999998,2035.0
396.943999998,2041.0
396.944999998,2046.0
396.945999998,2041.0
396.946999998,2039.0
396.947999998,2036.0
396.948999998,2019.0
396.949999998,2020.0
396.950999998,2024.0
396.951999998,2030.0
396.952999998,2028.0
396.953999998,2037.0
396.954999998,2030.0
396.955999998,2035.0
396.956999998,2032.0
396.957999998,2031.0
396.958999998,2017.0
396.959999998,2021.0
396.960999998,2031.0
396.961999998,2034.0
396.962999998,2037.0
396.963999998,2030.0
396.964999998,2032.0
396.965999998,2023.0
396.966999998,2024.0
396.967999998,2022.0
396.968999998,2027.0
396.969999998,2029.0
396.970999998,2040.0
396.971999998,2040.0
396.972999998,2020.0
396.973999998,2023.0
396.974999998,2022.0
396.975999998,2028.0
396.976999998,2043.0
396.977999998,2045.0
396.978999998,2061.0
396.979999998,2044.0
396.980999998,2044.0
396.981999998,2045.0
396.982999998,2054.0
396.983999998,2061.0
396.984999998,2059.0
396.985999998,2063.0
396.986999998,2059.0
396.987999998,2054.0
396.988999998,2033.0
396.989999998,2035.0
396.990999998,2041.0
396.991999998,2033.0
396.992999998,2036.0
396.993999998,2020.0
396.994999998,2007.0
396.995999998,1998.0
396.996999998,1978.0
396.997999998,1979.0
396.998999998,1981.0
396.999999998,1981.0
397.000999998,1985.0
397.001999998,1980.0
397.002999998,1975.0
397.003999998,1962.0
397.004999998,1961.0
397.005999998,1961.0
397.006999998,1965.0
397.007999998,1975.0
397.008999998,1981.0
397.009999998,1976.0
397.010999998,1973.0
397.011999998,1961.0
397.012999998,1947.0
397.013999998,1951.0
397.014999998,1949.0
397.015999998,1954.0
397.016999998,1954.0
397.017999998,1951.0
397.018999998,1941.0
397.019999998,1924.0
397.020999998,1915.0
397.021999998,1926.0
397.022999998,1936.0
397.023999998,1932.0
397.024999998,1951.0
397.025999998,1942.0
397.026999998,1937.0
397.027999998,1950.0
397.028999998,1950.0
397.029999998,1960.0
397.030999998,1967.0
397.031999998,1967.0
397.032999998,1962.0
397.033999998,1974.0
397.034999998,1979.0
397.035999998,1970.0
397.036999998,1973.0
397.037999998,2008.0
397.038999998,2019.0
397.039999998,2031.0
397.040999998,2034.0
397.041999998,2013.0
397.042999998,1978.0
397.043999998,1926.0
397.044999998,1882.0
397.045999998,1824.0
397.046999998,1795.0
397.047999998,1735.0
397.048999998,1653.0
397.049999998,1606.0
397.050999998,1595.0
397.051999998,1638.0
397.052999998,1721.0
397.053999998,1808.0
397.054999998,1889.0
397.055999998,1985.0
397.056999998,2063.0
397.057999998,2097.0
397.058999998,2102.0
397.059999998,2125.0
397.060999998,2135.0
397.061999998,2119.0
397.062999998,2110.0
397.063999998,2099.0
397.064999998,2089.0
397.065999998,2076.0
397.066999998,2069.0
397.067999998,2052.0
397.068999998,2052.0
397.069999998,2070.0
397.070999998,2073.0
397.071999998,2068.0
397.072999998,2045.0
397.073999998,2036.0
397.074999998,2028.0
397.075999998,2025.0
397.076999998,2024.0
397.077999998,2016.0
397.078999998,2013.0
397.079999998,2025.0
397.080999998,2004.0
397.081999998,2001.0
397.082999998,1995.0
397.083999998,2004.0
397.084999998,1998.0
397.085999998,2006.0
397.086999998,2004.0
397.087999998,2000.0
397.088999998,1997.0
397.089999998,1995.0
397.090999998,2014.0
397.091999998,2010.0
397.092999998,2008.0
397.093999998,2012.0
397.094999998,2009.0
397.095999998,1999.0
397.096999998,1990.0
397.097999998,1996.0
397.098999998,1993.0
397.099999998,2007.0
397.100999998,2000.0
397.101999998,2007.0
397.102999998,2005.0
397.103999998,1999.0
397.104999998,1996.0
397.105999998,1996.0
397.106999998,1994.0
397.107999998,1996.0
397.108999998,1999.0
397.109999998,2007.0
397.110999998,2011.0
397.111999998,1994.0
397.112999998,1983.0
397.113999998,1981.0
397.114999998,1987.0
397.115999998,1986.0
397.116999998,1986.0
397.117999998,1999.0
397.118999998,2008.0
397.119999998,2006.0
397.120999998,1983.0
397.121999998,1964.0
397.122999998,1975.0
397.123999998,1978.0
397.124999998,1992.0
397.125999998,1983.0
397.126999998,1991.0
397.127999998,1984.0
397.128999998,1979.0
397.129999998,1975.0
397.130999998,1987.0
397.131999998,1986.0
397.132999998,1989.0
397.133999998,1995.0
397.134999998,1988.0
397.135999998,1993.0
397.136999998,1991.0
397.137999998,1994.0
397.138999998,1999.0
397.139999998,2006.0
397.140999998,1995.0
397.141999998,2012.0
397.142999998,2014.0
397.143999998,2028.0
397.144999998,2035.0
397.145999998,2035.0
397.146999998,2052.0
397.147999998,2073.0
397.148999998,2064.0
397.149999998,2083.0
397.150999998,2078.0
397.151999998,2090.0
397.152999998,2084.0
