380.372999998,2135.0
380.373999998,2129.0
380.374999998,2118.0
380.375999998,2112.0
380.376999998,2104.0
380.377999998,2101.0
380.378999998,2103.0
380.379999998,2110.0
380.380999998,2106.0
380.381999998,2097.0
380.382999998,2097.0
380.383999998,2088.0
380.384999998,2085.0
380.385999998,2082.0
380.386999998,2094.0
380.387999998,2088.0
380.388999998,2094.0
380.389999998,2078.0
380.390999998,2084.0
380.391999998,2072.0
380.392999998,2068.0
380.393999998,2070.0
380.394999998,2074.0
380.395999998,2068.0
380.396999998,2071.0
380.397999998,2073.0
380.398999998,2061.0
380.399999998,2055.0
380.400999998,2060.0
380.401999998,2060.0
380.402999998,2062.0
380.403999998,2056.0
380.404999998,2065.0
380.405999998,2058.0
380.406999998,2065.0
380.407999998,2046.0
380.408999998,2050.0
380.409999998,2050.0
380.410999998,2056.0
380.411999998,2058.0
380.412999998,2056.0
380.413999998,2050.0
380.414999998,2045.0
380.415999998,2043.0
380.416999998,2051.0
380.417999998,2053.0
380.418999998,2050.0
380.419999998,2048.0
380.420999998,2050.0
380.421999998,2037.0
380.422999998,2036.0
380.423999998,2041.0
380.424999998,2040.0
380.425999998,2034.0
380.426999998,2043.0
380.427999998,2041.0
380.428999998,2037.0
380.429999998,2031.0
380.430999998,2034.0
380.431999998,2042.0
380.432999998,2046.0
380.433999998,2034.0
380.434999998,2029.0
380.435999998,2032.0
380.436999998,2037.0
380.437999998,2025.0
380.438999998,2026.0
380.439999998,2033.0
380.440999998,2034.0
380.441999998,2032.0
380.442999998,2034.0
380.443999998,2028.0
380.444999998,2031.0
380.445999998,2029.0
380.446999998,2033.0
380.447999998,2029.0
380.448999998,2029.0
380.449999998,2028.0
380.450999998,2029.0
380.451999998,2024.0
380.452999998,2026.0
380.453999998,2021.0
380.454999998,2015.0
380.455999998,2008.0
380.456999998,2017.0
380.457999998,2015.0
380.458999998,2022.0
380.459999998,2021.0
380.460999998,2021.0
380.461999998,2017.0
380.462999998,2026.0
380.463999998,2029.0
380.464999998,2023.0
380.465999998,2015.0
380.466999998,2013.0
380.467999998,2000.0
380.468999998,1994.0
380.469999998,1985.0
380.470999998,1981.0
380.471999998,1979.0
380.472999998,1976.0
380.473999998,1968.0
380.474999998,1963.0
380.475999998,1962.0
380.476999998,1969.0
380.477999998,1972.0
380.478999998,1973.0
380.479999998,1974.0
380.480999998,1987.0
380.481999998,1984.0
380.482999998,1981.0
380.483999998,1982.0
380.484999998,1994.0
380.485999998,1985.0
380.486999998,1991.0
380.487999998,2005.0
380.488999998,2003.0
380.489999998,1996.0
380.490999998,2014.0
380.491999998,2005.0
380.492999998,2013.0
380.493999998,2011.0
380.494999998,2027.0
380.495999998,2045.0
380.496999998,2033.0
380.497999998,2033.0
380.498999998,2032.0
380.499999998,2024.0
380.500999998,2009.0
380.501999998,1994.0
380.502999998,2007.0
380.503999998,2013.0
380.504999998,2018.0
380.505999998,2019.0
380.506999998,2016.0
380.507999998,2004.0
380.508999998,2001.0
380.509999998,2003.0
380.510999998,2010.0
380.511999998,2010.0
380.512999998,2019.0
380.513999998,2023.0
380.514999998,2016.0
380.515999998,2001.0
380.516999998,2003.0
380.517999998,1996.0
380.518999998,1991.0
380.519999998,1993.0
380.520999998,1996.0
380.521999998,1973.0
380.522999998,1947.0
380.523999998,1866.0
380.524999998,1785.0
380.525999998,1669.0
380.526999998,1617.0
380.527999998,1654.0
380.528999998,1877.0
380.529999998,2087.0
380.530999998,2364.0
380.531999998,2518.0
380.532999998,2630.0
380.533999998,2734.0
380.534999998,2787.0
380.535999998,2797.0
380.536999998,2800.0
380.537999998,2716.0
380.538999998,2547.0
380.539999998,2429.0
380.540999998,2376.0
380.541999998,2311.0
380.542999998,2259.0
380.543999998,2211.0
380.544999998,2159.0
380.545999998,2071.0
380.546999998,1989.0
380.547999998,1891.0
380.548999998,1828.0
380.549999998,1785.0
380.550999998,1753.0
380.551999998,1745.0
380.552999998,1748.0
380.553999998,1743.0
380.554999998,1743.0
380.555999998,1733.0
380.556999998,1750.0
380.557999998,1748.0
380.558999998,1755.0
380.559999998,1772.0
380.560999998,1775.0
380.561999998,1772.0
380.562999998,1774.0
380.563999998,1780.0
380.564999998,1785.0
380.565999998,1789.0
380.566999998,1792.0
380.567999998,1793.0
380.568999998,1791.0
380.569999998,1793.0
380.570999998,1787.0
380.571999998,1803.0
380.572999998,1819.0
380.573999998,1818.0
380.574999998,1820.0
380.575999998,1826.0
380.576999998,1832.0
380.577999998,1820.0
380.578999998,1816.0
380.579999998,1811.0
380.580999998,1815.0
380.581999998,1821.0
380.582999998,1823.0
380.583999998,1828.0
380.584999998,1836.0
380.585999998,1824.0
380.586999998,1824.0
380.587999998,1824.0
380.588999998,1820.0
380.589999998,1821.0
380.590999998,1825.0
380.591999998,1822.0
380.592999998,1818.0
380.593999998,1801.0
380.594999998,1806.0
380.595999998,1808.0
380.596999998,1819.0
380.597999998,1816.0
380.598999998,1814.0
380.599999998,1816.0
380.600999998,1829.0
380.601999998,1817.0
380.602999998,1812.0
380.603999998,1816.0
380.604999998,1832.0
380.605999998,1840.0
380.606999998,1842.0
380.607999998,1846.0
380.608999998,1860.0
380.609999998,1854.0
380.610999998,1863.0
380.611999998,1872.0
380.612999998,1891.0
380.613999998,1888.0
380.614999998,1891.0
380.615999998,1909.0
380.616999998,1918.0
380.617999998,1917.0
380.618999998,1950.0
380.619999998,1965.0
380.620999998,1991.0
380.621999998,1999.0
380.622999998,2022.0
380.623999998,2029.0
380.624999998,2045.0
380.625999998,2053.0
380.626999998,2072.0
380.627999998,2091.0
380.628999998,2098.0
380.629999998,2102.0
380.630999998,2116.0
380.631999998,2116.0
380.632999998,2118.0
380.633999998,2108.0
380.634999998,2128.0
380.635999998,2130.0
380.636999998,2131.0
380.637999998,2143.0
380.638999998,2151.0
380.639999998,2148.0
380.640999998,2154.0
380.641999998,2140.0
380.642999998,2137.0
380.643999998,2146.0
380.644999998,2157.0
380.645999998,2152.0
380.646999998,2146.0
380.647999998,2141.0
380.648999998,2141.0
380.649999998,2123.0
380.650999998,2124.0
380.651999998,2137.0
380.652999998,2129.0
380.653999998,2118.0
380.654999998,2135.0
380.655999998,2113.0
380.656999998,2112.0
380.657999998,2108.0
380.658999998,2112.0
380.659999998,2104.0
380.660999998,2116.0
380.661999998,2112.0
380.662999998,2110.0
380.663999998,2111.0
380.664999998,2118.0
380.665999998,2119.0
380.666999998,2115.0
380.667999998,2116.0
380.668999998,2120.0
380.669999998,2111.0
380.670999998,2111.0
380.671999998,2110.0
380.672999998,2117.0
380.673999998,2121.0
380.674999998,2118.0
380.675999998,2111.0
380.676999998,2113.0
380.677999998,2133.0
380.678999998,2106.0
380.679999998,2064.0
380.680999998,2111.0
380.681999998,2093.0
380.682999998,2125.0
380.683999998,2091.0
380.684999998,2114.0
380.685999998,2103.0
380.686999998,2103.0
380.687999998,2095.0
380.688999998,2093.0
380.689999998,2078.0
380.690999998,2063.0
380.691999998,2072.0
380.692999998,2075.0
380.693999998,2064.0
380.694999998,2057.0
380.695999998,2063.0
380.696999998,2052.0
380.697999998,2056.0
380.698999998,2050.0
380.699999998,2060.0
380.700999998,2067.0
380.701999998,2058.0
380.702999998,2044.0
380.703999998,2038.0
380.704999998,2044.0
380.705999998,2041.0
380.706999998,2050.0
380.707999998,2049.0
380.708999998,2057.0
380.709999998,2047.0
380.710999998,2052.0
380.711999998,2044.0
380.712999998,2050.0
380.713999998,2049.0
380.714999998,2058.0
380.715999998,2065.0
380.716999998,2084.0
380.717999998,2074.0
380.718999998,2081.0
380.719999998,2079.0
380.720999998,2092.0
380.721999998,2087.0
380.722999998,2074.0
380.723999998,2075.0
380.724999998,2083.0
380.725999998,2081.0
380.726999998,2069.0
380.727999998,2080.0
380.728999998,2079.0
380.729999998,2079.0
380.730999998,2080.0
380.731999998,2084.0
380.732999998,2082.0
380.733999998,2085.0
380.734999998,2077.0
380.735999998,2068.0
380.736999998,2072.0
380.737999998,2078.0
380.738999998,2069.0
380.739999998,2075.0
380.740999998,2070.0
380.741999998,2063.0
380.742999998,2062.0
380.743999998,2055.0
380.744999998,2075.0
380.745999998,2069.0
380.746999998,2063.0
380.747999998,2074.0
380.748999998,2070.0
380.749999998,2062.0
380.750999998,2047.0
380.751999998,2051.0
380.752999998,2057.0
380.753999998,2061.0
380.754999998,2061.0
380.755999998,2060.0
380.756999998,2065.0
380.757999998,2049.0
380.758999998,2043.0
380.759999998,2057.0
380.760999998,2074.0
380.761999998,2072.0
380.762999998,2062.0
380.763999998,2055.0
380.764999998,2065.0
380.765999998,2055.0
380.766999998,2043.0
380.767999998,2048.0
380.768999998,2049.0
380.769999998,2051.0
380.770999998,2058.0
380.771999998,2052.0
380.772999998,2052.0
380.773999998,2045.0
380.774999998,2040.0
380.775999998,2047.0
380.776999998,2049.0
380.777999998,2050.0
380.778999998,2057.0
380.779999998,2051.0
380.780999998,2051.0
380.781999998,2042.0
380.782999998,2038.0
380.783999998,2041.0
380.784999998,2047.0
380.785999998,2041.0
380.786999998,2055.0
380.787999998,2041.0
380.788999998,2047.0
380.789999998,2038.0
380.790999998,2037.0
380.791999998,2035.0
380.792999998,2024.0
380.793999998,2023.0
380.794999998,2014.0
380.795999998,2018.0
380.796999998,2008.0
380.797999998,2016.0
380.798999998,2011.0
380.799999998,2009.0
380.800999998,2024.0
380.801999998,2024.0
380.802999998,2015.0
380.803999998,2002.0
380.804999998,2003.0
380.805999998,1998.0
380.806999998,2005.0
380.807999998,1993.0
380.808999998,2013.0
380.809999998,2000.0
380.810999998,1988.0
380.811999998,1974.0
380.812999998,1967.0
380.813999998,1974.0
380.814999998,1977.0
380.815999998,1987.0
380.816999998,1993.0
380.817999998,1993.0
380.818999998,1980.0
380.819999998,1981.0
380.820999998,1983.0
380.821999998,1995.0
380.822999998,2013.0
380.823999998,2017.0
380.824999998,2022.0
380.825999998,2020.0
380.826999998,2017.0
380.827999998,2015.0
380.828999998,2011.0
380.829999998,2011.0
380.830999998,2020.0
380.831999998,2016.0
380.832999998,2034.0
380.833999998,2031.0
380.834999998,2026.0
380.835999998,2016.0
380.836999998,2020.0
380.837999998,2024.0
380.838999998,2020.0
380.839999998,2015.0
380.840999998,2018.0
380.841999998,2014.0
380.842999998,2023.0
380.843999998,2018.0
380.844999998,2027.0
380.845999998,2033.0
380.846999998,2051.0
380.847999998,2048.0
380.848999998,2048.0
380.849999998,2043.0
380.850999998,2032.0
380.851999998,2028.0
380.852999998,2036.0
380.853999998,2041.0
380.854999998,2027.0
380.855999998,2027.0
380.856999998,2027.0
380.857999998,2019.0
380.858999998,2017.0
380.859999998,2012.0
380.860999998,2006.0
380.861999998,1976.0
380.862999998,1897.0
380.863999998,1788.0
380.864999998,1700.0
380.865999998,1668.0
380.866999998,1799.0
380.867999998,2006.0
380.868999998,2249.0
380.869999998,2481.0
380.870999998,2596.0
380.871999998,2709.0
380.872999998,2790.0
380.873999998,2817.0
380.874999998,2845.0
380.875999998,2792.0
380.876999998,2675.0
380.877999998,2513.0
380.878999998,2427.0
380.879999998,2356.0
380.880999998,2304.0
380.881999998,2244.0
380.882999998,2185.0
380.883999998,2132.0
380.884999998,2070.0
380.885999998,1983.0
380.886999998,1917.0
380.887999998,1858.0
380.888999998,1821.0
380.889999998,1784.0
380.890999998,1774.0
380.891999998,1768.0
380.892999998,1775.0
380.893999998,1765.0
380.894999998,1768.0
380.895999998,1769.0
380.896999998,1778.0
380.897999998,1779.0
380.898999998,1775.0
380.899999998,1784.0
380.900999998,1802.0
380.901999998,1794.0
380.902999998,1787.0
380.903999998,1790.0
380.904999998,1791.0
380.905999998,1791.0
380.906999998,1792.0
380.907999998,1801.0
380.908999998,1819.0
380.909999998,1811.0
380.910999998,1818.0
380.911999998,1823.0
380.912999998,1816.0
380.913999998,1816.0
380.914999998,1810.0
380.915999998,1808.0
380.916999998,1831.0
380.917999998,1825.0
380.918999998,1832.0
380.919999998,1823.0
380.920999998,1824.0
380.921999998,1815.0
380.922999998,1816.0
380.923999998,1818.0
380.924999998,1836.0
380.925999998,1841.0
380.926999998,1851.0
380.927999998,1840.0
380.928999998,1843.0
380.929999998,1835.0
380.930999998,1820.0
380.931999998,1812.0
380.932999998,1826.0
380.933999998,1822.0
380.934999998,1829.0
380.935999998,1818.0
380.936999998,1822.0
380.937999998,1811.0
380.938999998,1820.0
380.939999998,1825.0
380.940999998,1830.0
380.941999998,1834.0
380.942999998,1851.0
380.943999998,1838.0
380.944999998,1835.0
380.945999998,1842.0
380.946999998,1845.0
380.947999998,1853.0
380.948999998,1868.0
380.949999998,1870.0
380.950999998,1882.0
380.951999998,1887.0
380.952999998,1889.0
380.953999998,1909.0
380.954999998,1938.0
380.955999998,1939.0
380.956999998,1952.0
380.957999998,1965.0
380.958999998,1983.0
380.959999998,1988.0
380.960999998,2002.0
380.961999998,2014.0
380.962999998,2042.0
380.963999998,2052.0
380.964999998,2075.0
380.965999998,2088.0
380.966999998,2093.0
380.967999998,2101.0
380.968999998,2107.0
380.969999998,2101.0
380.970999998,2122.0
380.971999998,2128.0
380.972999998,2137.0
380.973999998,2144.0
380.974999998,2161.0
380.975999998,2158.0
380.976999998,2157.0
380.977999998,2153.0
380.978999998,2170.0
380.979999998,2158.0
380.980999998,2168.0
380.981999998,2170.0
380.982999998,2174.0
380.983999998,2171.0
380.984999998,2169.0
380.985999998,2173.0
380.986999998,2174.0
380.987999998,2164.0
380.988999998,2182.0
380.989999998,2163.0
380.990999998,2165.0
380.991999998,2164.0
380.992999998,2157.0
380.993999998,2163.0
380.994999998,2168.0
380.995999998,2168.0
380.996999998,2168.0
380.997999998,2143.0
380.998999998,2137.0
380.999999998,2142.0
381.000999998,2131.0
381.001999998,2136.0
381.002999998,2149.0
381.003999998,2141.0
381.004999998,2140.0
381.005999998,2128.0
381.006999998,2132.0
381.007999998,2116.0
381.008999998,2125.0
381.009999998,2122.0
381.010999998,2115.0
381.011999998,2114.0
381.012999998,2111.0
381.013999998,2099.0
381.014999998,2109.0
381.015999998,2089.0
381.016999998,2095.0
381.017999998,2097.0
381.018999998,2092.0
381.019999998,2085.0
381.020999998,2089.0
381.021999998,2085.0
381.022999998,2076.0
381.023999998,2072.0
381.024999998,2078.0
381.025999998,2083.0
381.026999998,2080.0
381.027999998,2066.0
381.028999998,2064.0
381.029999998,2061.0
381.030999998,2057.0
381.031999998,2042.0
381.032999998,2047.0
381.033999998,2050.0
381.034999998,2032.0
381.035999998,2053.0
381.036999998,2052.0
381.037999998,2052.0
381.038999998,2035.0
381.039999998,2040.0
381.040999998,2047.0
381.041999998,2055.0
381.042999998,2053.0
381.043999998,2052.0
381.044999998,2044.0
381.045999998,2041.0
381.046999998,2053.0
381.047999998,2045.0
381.048999998,2051.0
381.049999998,2048.0
381.050999998,2051.0
381.051999998,2047.0
381.052999998,2059.0
381.053999998,2052.0
381.054999998,2049.0
381.055999998,2050.0
381.056999998,2061.0
381.057999998,2055.0
381.058999998,2059.0
381.059999998,2057.0
381.060999998,2053.0
381.061999998,2045.0
381.062999998,2051.0
381.063999998,2053.0
381.064999998,2065.0
381.065999998,2059.0
381.066999998,2069.0
381.067999998,2054.0
381.068999998,2052.0
381.069999998,2050.0
381.070999998,2049.0
381.071999998,2047.0
381.072999998,2056.0
381.073999998,2054.0
381.074999998,2065.0
381.075999998,2051.0
381.076999998,2053.0
381.077999998,2043.0
381.078999998,2042.0
381.079999998,2037.0
381.080999998,2041.0
381.081999998,2041.0
381.082999998,2049.0
381.083999998,2037.0
381.084999998,2036.0
381.085999998,2032.0
381.086999998,2035.0
381.087999998,2029.0
381.088999998,2036.0
381.089999998,2027.0
381.090999998,2032.0
381.091999998,2033.0
381.092999998,2027.0
381.093999998,2024.0
381.094999998,2038.0
381.095999998,2039.0
381.096999998,2049.0
381.097999998,2036.0
381.098999998,2034.0
381.099999998,2032.0
381.100999998,2032.0
381.101999998,2023.0
381.102999998,2030.0
381.103999998,2022.0
381.104999998,2023.0
381.105999998,2020.0
381.106999998,2030.0
381.107999998,2016.0
381.108999998,2024.0
381.109999998,2031.0
381.110999998,2033.0
381.111999998,2016.0
381.112999998,2014.0
381.113999998,2016.0
381.114999998,2023.0
381.115999998,2007.0
381.116999998,2012.0
381.117999998,1993.0
381.118999998,2019.0
381.119999998,2008.0
381.120999998,2009.0
381.121999998,2011.0
381.122999998,2019.0
381.123999998,1998.0
381.124999998,1995.0
381.125999998,2007.0
381.126999998,2025.0
381.127999998,2009.0
381.128999998,2024.0
381.129999998,2013.0
381.130999998,2013.0
381.131999998,1997.0
381.132999998,1988.0
381.133999998,1991.0
381.134999998,2001.0
381.135999998,1988.0
381.136999998,1996.0
381.137999998,1999.0
381.138999998,1993.0
381.139999998,1991.0
381.140999998,1960.0
381.141999998,2000.0
381.142999998,2008.0
381.143999998,2012.0
381.144999998,2010.0
381.145999998,1981.0
381.146999998,2000.0
381.147999998,1987.0
381.148999998,1989.0
381.149999998,2007.0
381.150999998,2005.0
381.151999998,2011.0
381.152999998,2011.0
381.153999998,2011.0
381.154999998,2008.0
381.155999998,2000.0
381.156999998,2010.0
381.157999998,2004.0
381.158999998,2006.0
381.159999998,2008.0
381.160999998,2007.0
381.161999998,2001.0
381.162999998,2001.0
381.163999998,1999.0
381.164999998,1994.0
381.165999998,1996.0
381.166999998,2002.0
381.167999998,1997.0
381.168999998,2007.0
381.169999998,2006.0
381.170999998,2014.0
381.171999998,1988.0
381.172999998,2004.0
381.173999998,2010.0
381.174999998,2012.0
381.175999998,2005.0
381.176999998,2005.0
381.177999998,2004.0
381.178999998,2006.0
381.179999998,2003.0
381.180999998,2012.0
381.181999998,2018.0
381.182999998,2019.0
381.183999998,2014.0
381.184999998,2005.0
381.185999998,2001.0
381.186999998,2002.0
381.187999998,1998.0
381.188999998,2006.0
381.189999998,2004.0
381.190999998,2008.0
381.191999998,1999.0
381.192999998,2008.0
381.193999998,2002.0
381.194999998,1998.0
381.195999998,1992.0
381.196999998,1995.0
381.197999998,1986.0
381.198999998,1997.0
381.199999998,1989.0
381.200999998,1994.0
381.201999998,1987.0
381.202999998,1984.0
381.203999998,1967.0
381.204999998,1972.0
381.205999998,1972.0
381.206999998,1986.0
381.207999998,1974.0
381.208999998,1990.0
381.209999998,1993.0
381.210999998,1992.0
381.211999998,1979.0
381.212999998,1974.0
381.213999998,1979.0
381.214999998,1989.0
381.215999998,1984.0
381.216999998,1995.0
381.217999998,1995.0
381.218999998,1999.0
381.219999998,1998.0
381.220999998,2003.0
381.221999998,2005.0
381.222999998,2026.0
381.223999998,2029.0
381.224999998,2023.0
381.225999998,2011.0
381.226999998,2012.0
381.227999998,2022.0
381.228999998,2015.0
381.229999998,2012.0
381.230999998,2006.0
381.231999998,2002.0
381.232999998,2005.0
381.233999998,1986.0
381.234999998,1998.0
381.235999998,1996.0
381.236999998,2007.0
381.237999998,2005.0
381.238999998,2008.0
381.239999998,2013.0
381.240999998,2011.0
381.241999998,2012.0
381.242999998,2008.0
381.243999998,2006.0
381.244999998,2009.0
381.245999998,2006.0
381.246999998,2006.0
381.247999998,1993.0
381.248999998,2001.0
381.249999998,1988.0
381.250999998,2004.0
381.251999998,1994.0
381.252999998,1980.0
381.253999998,1935.0
381.254999998,1864.0
381.255999998,1742.0
381.256999998,1676.0
381.257999998,1671.0
381.258999998,1863.0
381.259999998,2094.0
381.260999998,2335.0
381.261999998,2516.0
381.262999998,2632.0
381.263999998,2732.0
381.264999998,2814.0
381.265999998,2815.0
381.266999998,2848.0
381.267999998,2776.0
381.268999998,2642.0
381.269999998,2478.0
381.270999998,2393.0
381.271999998,2330.0
381.272999998,2274.0
381.273999998,2225.0
381.274999998,2182.0
381.275999998,2109.0
381.276999998,2059.0
381.277999998,1972.0
381.278999998,1899.0
381.279999998,1847.0
381.280999998,1809.0
381.281999998,1776.0
381.282999998,1777.0
381.283999998,1770.0
381.284999998,1778.0
381.285999998,1780.0
381.286999998,1776.0
381.287999998,1784.0
381.288999998,1789.0
381.289999998,1785.0
381.290999998,1801.0
381.291999998,1801.0
381.292999998,1809.0
381.293999998,1811.0
381.294999998,1809.0
381.295999998,1806.0
381.296999998,1817.0
381.297999998,1818.0
381.298999998,1830.0
381.299999998,1834.0
381.300999998,1836.0
381.301999998,1838.0
381.302999998,1845.0
381.303999998,1832.0
381.304999998,1852.0
381.305999998,1846.0
381.306999998,1863.0
381.307999998,1864.0
381.308999998,1858.0
381.309999998,1854.0
381.310999998,1853.0
381.311999998,1845.0
381.312999998,1847.0
381.313999998,1854.0
381.314999998,1868.0
381.315999998,1867.0
381.316999998,1874.0
381.317999998,1876.0
381.318999998,1867.0
381.319999998,1855.0
381.320999998,1840.0
381.321999998,1853.0
381.322999998,1860.0
381.323999998,1856.0
381.324999998,1860.0
381.325999998,1848.0
381.326999998,1855.0
381.327999998,1845.0
381.328999998,1848.0
381.329999998,1866.0
381.330999998,1874.0
381.331999998,1870.0
381.332999998,1857.0
381.333999998,1866.0
381.334999998,1862.0
381.335999998,1862.0
381.336999998,1860.0
381.337999998,1873.0
381.338999998,1889.0
381.339999998,1890.0
381.340999998,1901.0
381.341999998,1908.0
381.342999998,1914.0
381.343999998,1926.0
381.344999998,1930.0
381.345999998,1935.0
381.346999998,1952.0
381.347999998,1964.0
381.348999998,1977.0
381.349999998,1984.0
381.350999998,2001.0
381.351999998,2012.0
381.352999998,2026.0
381.353999998,2042.0
381.354999998,2070.0
381.355999998,2083.0
381.356999998,2093.0
381.357999998,2100.0
381.358999998,2111.0
381.359999998,2123.0
381.360999998,2138.0
381.361999998,2143.0
381.362999998,2155.0
381.363999998,2166.0
381.364999998,2163.0
381.365999998,2155.0
381.366999998,2150.0
381.367999998,2164.0
381.368999998,2162.0
381.369999998,2167.0
381.370999998,2177.0
381.371999998,2178.0
381.372999998,2180.0
381.373999998,2174.0
381.374999998,2180.0
381.375999998,2171.0
381.376999998,2178.0
381.377999998,2175.0
381.378999998,2180.0
381.379999998,2186.0
381.380999998,2179.0
381.381999998,2170.0
381.382999998,2180.0
381.383999998,2166.0
381.384999998,2169.0
381.385999998,2169.0
381.386999998,2174.0
381.387999998,2163.0
381.388999998,2151.0
381.389999998,2143.0
381.390999998,2149.0
381.391999998,2163.0
381.392999998,2151.0
381.393999998,2140.0
381.394999998,2148.0
381.395999998,2140.0
381.396999998,2137.0
381.397999998,2132.0
381.398999998,2120.0
381.399999998,2124.0
381.400999998,2124.0
381.401999998,2117.0
381.402999998,2113.0
381.403999998,2115.0
381.404999998,2101.0
381.405999998,2090.0
381.406999998,2099.0
381.407999998,2109.0
381.408999998,2102.0
381.409999998,2099.0
381.410999998,2106.0
381.411999998,2105.0
381.412999998,2096.0
381.413999998,2092.0
381.414999998,2101.0
381.415999998,2092.0
381.416999998,2083.0
381.417999998,2076.0
381.418999998,2083.0
381.419999998,2076.0
381.420999998,2070.0
381.421999998,2058.0
381.422999998,2084.0
381.423999998,2080.0
381.424999998,2080.0
381.425999998,2084.0
381.426999998,2076.0
381.427999998,2073.0
381.428999998,2067.0
381.429999998,2065.0
381.430999998,2086.0
381.431999998,2088.0
381.432999998,2094.0
381.433999998,2081.0
381.434999998,2080.0
381.435999998,2072.0
381.436999998,2075.0
381.437999998,2078.0
381.438999998,2081.0
381.439999998,2077.0
381.440999998,2081.0
381.441999998,2075.0
381.442999998,2078.0
381.443999998,2069.0
381.444999998,2076.0
381.445999998,2078.0
381.446999998,2081.0
381.447999998,2080.0
381.448999998,2090.0
381.449999998,2084.0
381.450999998,2090.0
381.451999998,2073.0
381.452999998,2071.0
381.453999998,2076.0
381.454999998,2090.0
381.455999998,2083.0
381.456999998,2088.0
381.457999998,2090.0
381.458999998,2098.0
381.459999998,2089.0
381.460999998,2090.0
381.461999998,2088.0
381.462999998,2095.0
381.463999998,2098.0
381.464999998,2095.0
381.465999998,2093.0
381.466999998,2094.0
381.467999998,2086.0
381.468999998,2094.0
381.469999998,2090.0
381.470999998,2102.0
381.471999998,2104.0
381.472999998,2104.0
381.473999998,2102.0
381.474999998,2106.0
381.475999998,2093.0
381.476999998,2102.0
381.477999998,2097.0
381.478999998,2105.0
381.479999998,2099.0
381.480999998,2098.0
381.481999998,2097.0
381.482999998,2100.0
381.483999998,2089.0
381.484999998,2102.0
381.485999998,2095.0
381.486999998,2105.0
381.487999998,2099.0
381.488999998,2089.0
381.489999998,2088.0
381.490999998,2084.0
381.491999998,2080.0
381.492999998,2093.0
381.493999998,2093.0
381.494999998,2113.0
381.495999998,2107.0
381.496999998,2103.0
381.497999998,2090.0
381.498999998,2084.0
381.499999998,2078.0
381.500999998,2083.0
381.501999998,2074.0
381.502999998,2089.0
381.503999998,2077.0
381.504999998,2075.0
381.505999998,2070.0
381.506999998,2034.0
381.507999998,2066.0
381.508999998,2077.0
381.509999998,2064.0
381.510999998,2072.0
381.511999998,2073.0
381.512999998,2080.0
381.513999998,2070.0
381.514999998,2073.0
381.515999998,2068.0
381.516999998,2079.0
381.517999998,2080.0
381.518999998,2084.0
381.519999998,2078.0
381.520999998,2060.0
381.521999998,2058.0
381.522999998,2044.0
381.523999998,2058.0
381.524999998,2060.0
381.525999998,2060.0
381.526999998,2061.0
381.527999998,2062.0
381.528999998,2073.0
381.529999998,2052.0
381.530999998,2053.0
381.531999998,2055.0
381.532999998,2063.0
381.533999998,2052.0
381.534999998,2067.0
381.535999998,2065.0
381.536999998,2059.0
381.537999998,2049.0
381.538999998,2050.0
381.539999998,2047.0
381.540999998,2058.0
381.541999998,2055.0
381.542999998,2066.0
381.543999998,2064.0
381.544999998,2069.0
381.545999998,2065.0
381.546999998,2062.0
381.547999998,2057.0
381.548999998,2069.0
381.549999998,2056.0
381.550999998,2063.0
381.551999998,2050.0
381.552999998,2053.0
381.553999998,2037.0
381.554999998,2050.0
381.555999998,2049.0
381.556999998,2053.0
381.557999998,2052.0
381.558999998,2058.0
381.559999998,2049.0
381.560999998,2058.0
381.561999998,2056.0
381.562999998,2058.0
381.563999998,2030.0
381.564999998,2062.0
381.565999998,2054.0
381.566999998,2056.0
381.567999998,2043.0
381.568999998,2042.0
381.569999998,2037.0
381.570999998,2049.0
381.571999998,2038.0
381.572999998,2052.0
381.573999998,2046.0
381.574999998,2053.0
381.575999998,2039.0
381.576999998,2047.0
381.577999998,2046.0
381.578999998,2046.0
381.579999998,2059.0
381.580999998,2054.0
381.581999998,2051.0
381.582999998,2055.0
381.583999998,2056.0
381.584999998,2049.0
381.585999998,2039.0
381.586999998,2048.0
381.587999998,2059.0
381.588999998,2062.0
381.589999998,2049.0
381.590999998,2047.0
381.591999998,2077.0
381.592999998,2049.0
381.593999998,2043.0
381.594999998,2043.0
381.595999998,2037.0
381.596999998,2017.0
381.597999998,2027.0
381.598999998,2042.0
381.599999998,2045.0
381.600999998,2020.0
381.601999998,2019.0
381.602999998,2060.0
381.603999998,2045.0
381.604999998,2044.0
381.605999998,2040.0
381.606999998,2045.0
381.607999998,2035.0
381.608999998,2038.0
381.609999998,2030.0
381.610999998,2046.0
381.611999998,2047.0
381.612999998,2058.0
381.613999998,2061.0
381.614999998,2052.0
381.615999998,2052.0
381.616999998,2056.0
381.617999998,2062.0
381.618999998,2070.0
381.619999998,2076.0
381.620999998,2073.0
381.621999998,2078.0
381.622999998,2074.0
381.623999998,2071.0
381.624999998,2071.0
381.625999998,2066.0
381.626999998,2070.0
381.627999998,2057.0
381.628999998,2063.0
381.629999998,2048.0
381.630999998,2044.0
381.631999998,2044.0
381.632999998,2046.0
381.633999998,2054.0
381.634999998,2044.0
381.635999998,2060.0
381.636999998,2060.0
381.637999998,2049.0
381.638999998,2050.0
381.639999998,2044.0
381.640999998,2050.0
381.641999998,2049.0
381.642999998,2043.0
381.643999998,2037.0
381.644999998,2037.0
381.645999998,2028.0
381.646999998,2032.0
381.647999998,2031.0
381.648999998,2018.0
381.649999998,1998.0
381.650999998,1925.0
381.651999998,1833.0
381.652999998,1738.0
381.653999998,1678.0
381.654999998,1722.0
381.655999998,1919.0
381.656999998,2151.0
381.657999998,2396.0
381.658999998,2573.0
381.659999998,2670.0
381.660999998,2765.0
381.661999998,2823.0
381.662999998,2832.0
381.663999998,2836.0
381.664999998,2748.0
381.665999998,2603.0
381.666999998,2460.0
381.667999998,2379.0
381.668999998,2332.0
381.669999998,2270.0
381.670999998,2220.0
381.671999998,2175.0
381.672999998,2128.0
381.673999998,2061.0
381.674999998,1980.0
381.675999998,1912.0
381.676999998,1864.0
381.677999998,1829.0
381.678999998,1796.0
381.679999998,1793.0
381.680999998,1798.0
381.681999998,1788.0
381.682999998,1798.0
381.683999998,1795.0
381.684999998,1814.0
381.685999998,1807.0
381.686999998,1804.0
381.687999998,1804.0
381.688999998,1817.0
381.689999998,1814.0
381.690999998,1827.0
381.691999998,1818.0
381.692999998,1833.0
381.693999998,1820.0
381.694999998,1821.0
381.695999998,1830.0
381.696999998,1846.0
381.697999998,1853.0
381.698999998,1868.0
381.699999998,1866.0
381.700999998,1861.0
381.701999998,1854.0
381.702999998,1852.0
381.703999998,1857.0
381.704999998,1866.0
381.705999998,1872.0
381.706999998,1873.0
381.707999998,1861.0
381.708999998,1864.0
381.709999998,1860.0
381.710999998,1863.0
381.711999998,1868.0
381.712999998,1921.0
381.713999998,1883.0
381.714999998,1882.0
381.715999998,1867.0
381.716999998,1869.0
381.717999998,1859.0
381.718999998,1868.0
381.719999998,1863.0
381.720999998,1865.0
381.721999998,1864.0
381.722999998,1879.0
381.723999998,1866.0
381.724999998,1862.0
381.725999998,1857.0
381.726999998,1864.0
381.727999998,1866.0
381.728999998,1865.0
381.729999998,1864.0
381.730999998,1874.0
381.731999998,1864.0
381.732999998,1868.0
381.733999998,1861.0
381.734999998,1872.0
381.735999998,1873.0
381.736999998,1895.0
381.737999998,1899.0
381.738999998,1903.0
381.739999998,1923.0
381.740999998,1918.0
381.741999998,1919.0
381.742999998,1933.0
381.743999998,1939.0
381.744999998,1963.0
381.745999998,1964.0
381.746999998,1981.0
381.747999998,1988.0
381.748999998,1996.0
381.749999998,2012.0
381.750999998,2032.0
381.751999998,2043.0
381.752999998,2056.0
381.753999998,2070.0
381.754999998,2084.0
381.755999998,2093.0
381.756999998,2103.0
381.757999998,2107.0
381.758999998,2113.0
381.759999998,2123.0
381.760999998,2138.0
381.761999998,2138.0
381.762999998,2143.0
381.763999998,2138.0
381.764999998,2143.0
381.765999998,2153.0
381.766999998,2167.0
381.767999998,2170.0
381.768999998,2175.0
381.769999998,2180.0
381.770999998,2168.0
381.771999998,2157.0
381.772999998,2164.0
381.773999998,2152.0
381.774999998,2158.0
381.775999998,2152.0
381.776999998,2160.0
381.777999998,2160.0
381.778999998,2155.0
381.779999998,2154.0
381.780999998,2159.0
381.781999998,2160.0
381.782999998,2160.0
381.783999998,2162.0
381.784999998,2156.0
381.785999998,2144.0
381.786999998,2152.0
381.787999998,2139.0
381.788999998,2132.0
381.789999998,2129.0
381.790999998,2138.0
381.791999998,2127.0
381.792999998,2125.0
381.793999998,2120.0
381.794999998,2109.0
381.795999998,2093.0
381.796999998,2106.0
381.797999998,2102.0
381.798999998,2095.0
381.799999998,2100.0
381.800999998,2093.0
381.801999998,2090.0
381.802999998,2076.0
381.803999998,2081.0
381.804999998,2084.0
381.805999998,2083.0
381.806999998,2077.0
381.807999998,2077.0
381.808999998,2082.0
381.809999998,2073.0
381.810999998,2061.0
381.811999998,2066.0
381.812999998,2072.0
381.813999998,2061.0
381.814999998,2058.0
381.815999998,2063.0
381.816999998,2055.0
381.817999998,2051.0
381.818999998,2054.0
381.819999998,2050.0
381.820999998,2064.0
381.821999998,2056.0
381.822999998,2051.0
381.823999998,2051.0
381.824999998,2049.0
381.825999998,2046.0
381.826999998,2049.0
381.827999998,2049.0
381.828999998,2054.0
381.829999998,2053.0
381.830999998,2047.0
381.831999998,2050.0
381.832999998,2047.0
381.833999998,2039.0
381.834999998,2041.0
381.835999998,2031.0
381.836999998,2049.0
381.837999998,2040.0
381.838999998,2037.0
381.839999998,2038.0
381.840999998,2049.0
381.841999998,2036.0
381.842999998,2035.0
381.843999998,2036.0
381.844999998,2036.0
381.845999998,2036.0
381.846999998,2046.0
381.847999998,2044.0
381.848999998,2044.0
381.849999998,2040.0
381.850999998,2045.0
381.851999998,2047.0
381.852999998,2057.0
381.853999998,2058.0
381.854999998,2057.0
381.855999998,2042.0
381.856999998,2041.0
381.857999998,2030.0
381.858999998,2041.0
381.859999998,2053.0
381.860999998,2056.0
381.861999998,2070.0
381.862999998,2049.0
381.863999998,2050.0
381.864999998,2060.0
381.865999998,2043.0
381.866999998,2041.0
381.867999998,2043.0
381.868999998,2049.0
381.869999998,2027.0
381.870999998,2023.0
381.871999998,2009.0
381.872999998,2029.0
381.873999998,2033.0
381.874999998,2030.0
381.875999998,2037.0
381.876999998,2038.0
381.877999998,2042.0
381.878999998,2048.0
381.879999998,2036.0
381.880999998,2036.0
381.881999998,2031.0
381.882999998,2028.0
381.883999998,2033.0
381.884999998,2043.0
381.885999998,2042.0
381.886999998,2055.0
381.887999998,2044.0
381.888999998,2038.0
381.889999998,2031.0
381.890999998,2037.0
381.891999998,2043.0
381.892999998,2053.0
381.893999998,2044.0
381.894999998,2037.0
381.895999998,2026.0
381.896999998,2024.0
381.897999998,2036.0
381.898999998,2038.0
381.899999998,2041.0
381.900999998,2044.0
381.901999998,2032.0
381.902999998,2042.0
381.903999998,2026.0
381.904999998,2025.0
381.905999998,2023.0
381.906999998,2020.0
381.907999998,2022.0
381.908999998,2025.0
381.909999998,2017.0
381.910999998,2019.0
381.911999998,2009.0
381.912999998,2005.0
381.913999998,2009.0
381.914999998,2020.0
381.915999998,2012.0
381.916999998,2020.0
381.917999998,2023.0
381.918999998,2028.0
381.919999998,2017.0
381.920999998,2035.0
381.921999998,2029.0
381.922999998,2026.0
381.923999998,2027.0
381.924999998,2008.0
381.925999998,2019.0
381.926999998,2006.0
381.927999998,2018.0
381.928999998,2023.0
381.929999998,2021.0
381.930999998,2025.0
381.931999998,2020.0
381.932999998,2023.0
381.933999998,2030.0
381.934999998,2026.0
381.935999998,2017.0
381.936999998,2025.0
381.937999998,2015.0
381.938999998,2030.0
381.939999998,2026.0
381.940999998,2030.0
381.941999998,2025.0
381.942999998,2017.0
381.943999998,2001.0
381.944999998,2015.0
381.945999998,2015.0
381.946999998,2019.0
381.947999998,2021.0
381.948999998,1987.0
381.949999998,2007.0
381.950999998,2017.0
381.951999998,2001.0
381.952999998,2009.0
381.953999998,2018.0
381.954999998,2012.0
381.955999998,2006.0
381.956999998,2009.0
381.957999998,2000.0
381.958999998,1998.0
381.959999998,1988.0
381.960999998,2011.0
381.961999998,2004.0
381.962999998,2011.0
381.963999998,2009.0
381.964999998,2012.0
381.965999998,2011.0
381.966999998,2008.0
381.967999998,1994.0
381.968999998,2003.0
381.969999998,2005.0
381.970999998,2010.0
381.971999998,2016.0
381.972999998,2003.0
381.973999998,2016.0
381.974999998,2018.0
381.975999998,2014.0
381.976999998,2023.0
381.977999998,2024.0
381.978999998,2030.0
381.979999998,2020.0
381.980999998,2024.0
381.981999998,2022.0
381.982999998,2011.0
381.983999998,2009.0
381.984999998,2019.0
381.985999998,2016.0
381.986999998,2024.0
381.987999998,2016.0
381.988999998,2018.0
381.989999998,2013.0
381.990999998,2010.0
381.991999998,1998.0
381.992999998,2020.0
381.993999998,2012.0
381.994999998,2013.0
381.995999998,2006.0
381.996999998,2006.0
381.997999998,2002.0
381.998999998,1994.0
381.999999998,1995.0
382.000999998,1992.0
382.001999998,1986.0
382.002999998,1992.0
382.003999998,1983.0
382.004999998,1986.0
382.005999998,1985.0
382.006999998,1993.0
382.007999998,1981.0
382.008999998,1991.0
382.009999998,1985.0
382.010999998,1984.0
382.011999998,1988.0
382.012999998,2000.0
382.013999998,1991.0
382.014999998,2008.0
382.015999998,2013.0
382.016999998,2011.0
382.017999998,2011.0
382.018999998,2020.0
382.019999998,2025.0
382.020999998,2029.0
382.021999998,2018.0
382.022999998,2022.0
382.023999998,2012.0
382.024999998,2021.0
382.025999998,2022.0
382.026999998,2023.0
382.027999998,2010.0
382.028999998,2014.0
382.029999998,1999.0
382.030999998,2016.0
382.031999998,1999.0
382.032999998,2015.0
382.033999998,2012.0
382.034999998,2041.0
382.035999998,2007.0
382.036999998,2013.0
382.037999998,2002.0
382.038999998,2005.0
382.039999998,2006.0
382.040999998,2022.0
382.041999998,2016.0
382.042999998,2023.0
382.043999998,2022.0
382.044999998,2009.0
382.045999998,1987.0
382.046999998,1991.0
382.047999998,1979.0
382.048999998,1978.0
382.049999998,1939.0
382.050999998,1874.0
382.051999998,1777.0
382.052999998,1678.0
382.053999998,1662.0
382.054999998,1736.0
382.055999998,1939.0
382.056999998,2163.0
382.057999998,2384.0
382.058999998,2527.0
382.059999998,2617.0
382.060999998,2685.0
382.061999998,2771.0
382.062999998,2780.0
382.063999998,2756.0
382.064999998,2659.0
382.065999998,2486.0
382.066999998,2368.0
382.067999998,2287.0
382.068999998,2239.0
382.069999998,2187.0
382.070999998,2151.0
382.071999998,2109.0
382.072999998,2052.0
382.073999998,1968.0
382.074999998,1897.0
382.075999998,1828.0
382.076999998,1790.0
382.077999998,1764.0
382.078999998,1766.0
382.079999998,1752.0
382.080999998,1760.0
382.081999998,1753.0
382.082999998,1758.0
382.083999998,1746.0
382.084999998,1756.0
382.085999998,1767.0
382.086999998,1771.0
382.087999998,1784.0
382.088999998,1796.0
382.089999998,1791.0
382.090999998,1792.0
382.091999998,1788.0
382.092999998,1793.0
382.093999998,1798.0
382.094999998,1804.0
382.095999998,1808.0
382.096999998,1814.0
382.097999998,1812.0
382.098999998,1822.0
382.099999998,1817.0
382.100999998,1820.0
382.101999998,1845.0
382.102999998,1846.0
382.103999998,1848.0
382.104999998,1856.0
382.105999998,1855.0
382.106999998,1852.0
382.107999998,1853.0
382.108999998,1861.0
382.109999998,1863.0
382.110999998,1853.0
382.111999998,1864.0
382.112999998,1858.0
382.113999998,1857.0
382.114999998,1854.0
382.115999998,1845.0
382.116999998,1852.0
382.117999998,1851.0
382.118999998,1848.0
382.119999998,1847.0
382.120999998,1848.0
382.121999998,1842.0
382.122999998,1841.0
382.123999998,1830.0
382.124999998,1844.0
382.125999998,1843.0
382.126999998,1852.0
382.127999998,1845.0
382.128999998,1844.0
382.129999998,1845.0
382.130999998,1840.0
382.131999998,1846.0
382.132999998,1858.0
382.133999998,1853.0
382.134999998,1861.0
382.135999998,1857.0
382.136999998,1860.0
382.137999998,1873.0
382.138999998,1880.0
382.139999998,1881.0
382.140999998,1890.0
382.141999998,1900.0
382.142999998,1911.0
382.143999998,1923.0
382.144999998,1934.0
382.145999998,1947.0
382.146999998,1965.0
382.147999998,1972.0
382.148999998,2003.0
382.149999998,2009.0
382.150999998,2033.0
382.151999998,2038.0
382.152999998,2051.0
382.153999998,2063.0
382.154999998,2068.0
382.155999998,2077.0
382.156999998,2085.0
382.157999998,2094.0
382.158999998,2102.0
382.159999998,2107.0
382.160999998,2107.0
382.161999998,2115.0
382.162999998,2120.0
382.163999998,2126.0
382.164999998,2129.0
382.165999998,2129.0
382.166999998,2142.0
382.167999998,2128.0
382.168999998,2132.0
382.169999998,2127.0
382.170999998,2127.0
382.171999998,2128.0
382.172999998,2139.0
382.173999998,2141.0
382.174999998,2142.0
382.175999998,2137.0
382.176999998,2135.0
382.177999998,2130.0
382.178999998,2132.0
382.179999998,2126.0
382.180999998,2127.0
382.181999998,2129.0
382.182999998,2143.0
382.183999998,2126.0
382.184999998,2131.0
382.185999998,2126.0
382.186999998,2115.0
382.187999998,2116.0
382.188999998,2133.0
382.189999998,2127.0
382.190999998,2118.0
382.191999998,2105.0
382.192999998,2104.0
382.193999998,2094.0
382.194999998,2090.0
382.195999998,2092.0
382.196999998,2096.0
382.197999998,2093.0
382.198999998,2103.0
382.199999998,2089.0
382.200999998,2079.0
382.201999998,2062.0
382.202999998,2068.0
382.203999998,2064.0
382.204999998,2061.0
382.205999998,2057.0
382.206999998,2061.0
382.207999998,2053.0
382.208999998,2048.0
382.209999998,2052.0
382.210999998,2066.0
382.211999998,2055.0
382.212999998,2059.0
382.213999998,2062.0
382.214999998,2062.0
382.215999998,2048.0
382.216999998,2039.0
382.217999998,2053.0
382.218999998,2057.0
382.219999998,2048.0
382.220999998,2056.0
382.221999998,2040.0
382.222999998,2040.0
382.223999998,2034.0
382.224999998,2030.0
382.225999998,2032.0
382.226999998,2055.0
382.227999998,2049.0
382.228999998,2053.0
382.229999998,2046.0
382.230999998,2051.0
382.231999998,2047.0
382.232999998,2040.0
382.233999998,2032.0
382.234999998,2033.0
382.235999998,2028.0
382.236999998,2040.0
382.237999998,2046.0
382.238999998,2051.0
382.239999998,2044.0
382.240999998,2046.0
382.241999998,2048.0
382.242999998,2047.0
382.243999998,2026.0
382.244999998,2029.0
382.245999998,2019.0
382.246999998,2031.0
382.247999998,2022.0
382.248999998,2027.0
382.249999998,2037.0
382.250999998,2044.0
382.251999998,2046.0
382.252999998,2052.0
382.253999998,2046.0
382.254999998,2046.0
382.255999998,2039.0
382.256999998,2040.0
382.257999998,2046.0
382.258999998,2061.0
382.259999998,2052.0
382.260999998,2061.0
382.261999998,2061.0
382.262999998,2059.0
382.263999998,2051.0
382.264999998,2055.0
382.265999998,2066.0
382.266999998,2067.0
382.267999998,2062.0
382.268999998,2054.0
382.269999998,2057.0
382.270999998,2068.0
382.271999998,2063.0
382.272999998,2047.0
382.273999998,2058.0
382.274999998,2054.0
382.275999998,2057.0
382.276999998,2057.0
382.277999998,2046.0
382.278999998,2044.0
382.279999998,2048.0
382.280999998,2051.0
382.281999998,2053.0
382.282999998,2067.0
382.283999998,2056.0
382.284999998,2052.0
382.285999998,2045.0
382.286999998,2044.0
382.287999998,2039.0
382.288999998,2049.0
382.289999998,2051.0
382.290999998,2051.0
382.291999998,2055.0
382.292999998,2057.0
382.293999998,2047.0
382.294999998,2051.0
382.295999998,2056.0
382.296999998,2054.0
382.297999998,2049.0
382.298999998,2055.0
382.299999998,2050.0
382.300999998,2062.0
382.301999998,2054.0
382.302999998,2055.0
382.303999998,2045.0
382.304999998,2050.0
382.305999998,2049.0
382.306999998,2053.0
382.307999998,2058.0
382.308999998,2052.0
382.309999998,2049.0
382.310999998,2054.0
382.311999998,2053.0
382.312999998,2061.0
382.313999998,2072.0
382.314999998,2063.0
382.315999998,2076.0
382.316999998,2060.0
382.317999998,2050.0
382.318999998,2053.0
382.319999998,2055.0
382.320999998,2048.0
382.321999998,2050.0
382.322999998,2067.0
382.323999998,2061.0
382.324999998,2060.0
382.325999998,2054.0
382.326999998,2052.0
382.327999998,2064.0
382.328999998,2065.0
382.329999998,2059.0
382.330999998,2067.0
382.331999998,2060.0
382.332999998,2065.0
382.333999998,2055.0
382.334999998,2056.0
382.335999998,2053.0
382.336999998,2062.0
382.337999998,2059.0
382.338999998,2057.0
382.339999998,2053.0
382.340999998,2059.0
382.341999998,2051.0
382.342999998,2060.0
382.343999998,2063.0
382.344999998,2062.0
382.345999998,2062.0
382.346999998,2065.0
382.347999998,2065.0
382.348999998,2060.0
382.349999998,2047.0
382.350999998,2052.0
382.351999998,2050.0
382.352999998,2057.0
382.353999998,2055.0
382.354999998,2064.0
382.355999998,2052.0
382.356999998,2056.0
382.357999998,2049.0
382.358999998,2065.0
382.359999998,2067.0
382.360999998,2066.0
382.361999998,2052.0
382.362999998,2056.0
382.363999998,2049.0
382.364999998,2050.0
382.365999998,2055.0
382.366999998,2066.0
382.367999998,2064.0
382.368999998,2055.0
382.369999998,2059.0
382.370999998,2057.0
382.371999998,2045.0
382.372999998,2053.0
382.373999998,2048.0
382.374999998,2055.0
382.375999998,2051.0
382.376999998,2050.0
382.377999998,2039.0
382.378999998,2042.0
382.379999998,2031.0
382.380999998,2045.0
382.381999998,2046.0
382.382999998,2055.0
382.383999998,2044.0
382.384999998,2046.0
382.385999998,2047.0
382.386999998,2053.0
382.387999998,2034.0
382.388999998,2021.0
382.389999998,2031.0
382.390999998,2038.0
382.391999998,2040.0
382.392999998,2039.0
382.393999998,2042.0
382.394999998,2041.0
382.395999998,2037.0
382.396999998,2033.0
382.397999998,2028.0
382.398999998,2035.0
382.399999998,2040.0
382.400999998,2041.0
382.401999998,2037.0
382.402999998,2033.0
382.403999998,2019.0
382.404999998,2017.0
382.405999998,2002.0
382.406999998,2017.0
382.407999998,2024.0
382.408999998,2042.0
382.409999998,2026.0
382.410999998,2018.0
382.411999998,2012.0
382.412999998,2009.0
382.413999998,2006.0
382.414999998,2012.0
382.415999998,2017.0
382.416999998,2035.0
382.417999998,2026.0
382.418999998,2046.0
382.419999998,2035.0
382.420999998,2038.0
382.421999998,2038.0
382.422999998,2047.0
382.423999998,2057.0
382.424999998,2064.0
382.425999998,2061.0
382.426999998,2055.0
382.427999998,2051.0
382.428999998,2056.0
382.429999998,2062.0
382.430999998,2061.0
382.431999998,2051.0
382.432999998,2052.0
382.433999998,2035.0
382.434999998,2037.0
382.435999998,2032.0
382.436999998,2054.0
382.437999998,2057.0
382.438999998,2053.0
382.439999998,2056.0
382.440999998,2053.0
382.441999998,2050.0
382.442999998,2054.0
382.443999998,2043.0
382.444999998,2046.0
382.445999998,2044.0
382.446999998,2049.0
382.447999998,2036.0
382.448999998,2033.0
382.449999998,2037.0
382.450999998,2032.0
382.451999998,2039.0
382.452999998,2046.0
382.453999998,2012.0
382.454999998,1958.0
382.455999998,1890.0
382.456999998,1770.0
382.457999998,1696.0
382.458999998,1721.0
382.459999998,1918.0
382.460999998,2138.0
382.461999998,2363.0
382.462999998,2529.0
382.463999998,2627.0
382.464999998,2720.0
382.465999998,2788.0
382.466999998,2814.0
382.467999998,2829.0
382.468999998,2739.0
382.469999998,2587.0
382.470999998,2428.0
382.471999998,2346.0
382.472999998,2290.0
382.473999998,2234.0
382.474999998,2197.0
382.475999998,2149.0
382.476999998,2108.0
382.477999998,2039.0
382.478999998,1955.0
382.479999998,1887.0
382.480999998,1840.0
382.481999998,1807.0
382.482999998,1786.0
382.483999998,1780.0
382.484999998,1781.0
382.485999998,1774.0
382.486999998,1786.0
382.487999998,1785.0
382.488999998,1787.0
382.489999998,1778.0
382.490999998,1793.0
382.491999998,1799.0
382.492999998,1805.0
382.493999998,1827.0
382.494999998,1822.0
382.495999998,1833.0
382.496999998,1834.0
382.497999998,1820.0
382.498999998,1799.0
382.499999998,1841.0
382.500999998,1831.0
382.501999998,1837.0
382.502999998,1839.0
382.503999998,1836.0
382.504999998,1847.0
382.505999998,1839.0
382.506999998,1858.0
382.507999998,1872.0
382.508999998,1868.0
382.509999998,1872.0
382.510999998,1872.0
382.511999998,1864.0
382.512999998,1856.0
382.513999998,1857.0
382.514999998,1869.0
382.515999998,1879.0
382.516999998,1876.0
382.517999998,1878.0
382.518999998,1876.0
382.519999998,1865.0
382.520999998,1863.0
382.521999998,1860.0
382.522999998,1876.0
382.523999998,1869.0
382.524999998,1883.0
382.525999998,1860.0
382.526999998,1862.0
382.527999998,1859.0
382.528999998,1864.0
382.529999998,1854.0
382.530999998,1870.0
382.531999998,1863.0
382.532999998,1882.0
382.533999998,1872.0
382.534999998,1869.0
382.535999998,1856.0
382.536999998,1871.0
382.537999998,1881.0
382.538999998,1878.0
382.539999998,1888.0
382.540999998,1895.0
382.541999998,1897.0
382.542999998,1904.0
382.543999998,1913.0
382.544999998,1917.0
382.545999998,1916.0
382.546999998,1944.0
382.547999998,1956.0
382.548999998,1976.0
382.549999998,1978.0
382.550999998,1990.0
382.551999998,1989.0
382.552999998,2012.0
382.553999998,2016.0
382.554999998,2041.0
382.555999998,2064.0
382.556999998,2084.0
382.557999998,2093.0
382.558999998,2108.0
382.559999998,2106.0
382.560999998,2125.0
382.561999998,2136.0
382.562999998,2142.0
382.563999998,2149.0
382.564999998,2159.0
382.565999998,2161.0
382.566999998,2149.0
382.567999998,2156.0
382.568999998,2164.0
382.569999998,2174.0
382.570999998,2175.0
382.571999998,2177.0
382.572999998,2182.0
382.573999998,2178.0
382.574999998,2177.0
382.575999998,2174.0
382.576999998,2188.0
382.577999998,2175.0
382.578999998,2179.0
382.579999998,2187.0
382.580999998,2182.0
382.581999998,2182.0
382.582999998,2189.0
382.583999998,2178.0
382.584999998,2184.0
382.585999998,2168.0
382.586999998,2168.0
382.587999998,2164.0
382.588999998,2175.0
382.589999998,2173.0
382.590999998,2164.0
382.591999998,2152.0
382.592999998,2158.0
382.593999998,2147.0
382.594999998,2143.0
382.595999998,2144.0
382.596999998,2137.0
382.597999998,2125.0
382.598999998,2134.0
382.599999998,2134.0
382.600999998,2136.0
382.601999998,2125.0
382.602999998,2134.0
382.603999998,2129.0
382.604999998,2131.0
382.605999998,2121.0
382.606999998,2114.0
382.607999998,2111.0
382.608999998,2115.0
382.609999998,2107.0
382.610999998,2113.0
382.611999998,2108.0
382.612999998,2096.0
382.613999998,2091.0
382.614999998,2081.0
382.615999998,2084.0
382.616999998,2086.0
382.617999998,2081.0
382.618999998,2083.0
382.619999998,2080.0
382.620999998,2076.0
382.621999998,2061.0
382.622999998,2070.0
382.623999998,2082.0
382.624999998,2075.0
382.625999998,2081.0
382.626999998,2082.0
382.627999998,2074.0
382.628999998,2079.0
382.629999998,2067.0
382.630999998,2062.0
382.631999998,2063.0
382.632999998,2070.0
382.633999998,2066.0
382.634999998,2066.0
382.635999998,2070.0
382.636999998,2072.0
382.637999998,2062.0
382.638999998,2061.0
382.639999998,2058.0
382.640999998,2066.0
382.641999998,2067.0
382.642999998,2072.0
382.643999998,2066.0
382.644999998,2061.0
382.645999998,2057.0
382.646999998,2053.0
382.647999998,2063.0
382.648999998,2059.0
382.649999998,2061.0
382.650999998,2074.0
382.651999998,2061.0
382.652999998,2061.0
382.653999998,2051.0
382.654999998,2057.0
382.655999998,2059.0
382.656999998,2067.0
382.657999998,2058.0
382.658999998,2061.0
382.659999998,2056.0
382.660999998,2062.0
382.661999998,2061.0
382.662999998,2055.0
382.663999998,2066.0
382.664999998,2077.0
382.665999998,2064.0
382.666999998,2072.0
382.667999998,2058.0
382.668999998,2057.0
382.669999998,2055.0
382.670999998,2050.0
382.671999998,2053.0
382.672999998,2057.0
382.673999998,2048.0
382.674999998,2049.0
382.675999998,2055.0
382.676999998,2051.0
382.677999998,2036.0
382.678999998,2043.0
382.679999998,2051.0
382.680999998,2057.0
382.681999998,2050.0
382.682999998,2059.0
382.683999998,2040.0
382.684999998,2048.0
382.685999998,2042.0
382.686999998,2045.0
382.687999998,2045.0
382.688999998,2045.0
382.689999998,2040.0
382.690999998,2036.0
382.691999998,2039.0
382.692999998,2032.0
382.693999998,2021.0
382.694999998,2029.0
382.695999998,2027.0
382.696999998,2036.0
382.697999998,2033.0
382.698999998,2040.0
382.699999998,2027.0
382.700999998,2032.0
382.701999998,2024.0
382.702999998,2022.0
382.703999998,2031.0
382.704999998,2034.0
382.705999998,2029.0
382.706999998,2037.0
382.707999998,2029.0
382.708999998,2026.0
382.709999998,2034.0
382.710999998,2024.0
382.711999998,2030.0
382.712999998,2036.0
382.713999998,2020.0
382.714999998,2023.0
382.715999998,2021.0
382.716999998,2023.0
382.717999998,2024.0
382.718999998,2035.0
382.719999998,2034.0
382.720999998,2026.0
382.721999998,2024.0
382.722999998,2030.0
382.723999998,2029.0
382.724999998,2035.0
382.725999998,2029.0
382.726999998,2030.0
382.727999998,2026.0
382.728999998,2035.0
382.729999998,2021.0
382.730999998,2017.0
382.731999998,2018.0
382.732999998,2014.0
382.733999998,1997.0
382.734999998,2001.0
382.735999998,1988.0
382.736999998,1991.0
382.737999998,1993.0
382.738999998,1987.0
382.739999998,1969.0
382.740999998,1970.0
382.741999998,1972.0
382.742999998,1968.0
382.743999998,1962.0
382.744999998,1970.0
382.745999998,1960.0
382.746999998,1950.0
382.747999998,1947.0
382.748999998,1955.0
382.749999998,1948.0
382.750999998,1963.0
382.751999998,1965.0
382.752999998,1964.0
382.753999998,1952.0
382.754999998,1953.0
382.755999998,1956.0
382.756999998,1965.0
382.757999998,1957.0
382.758999998,1969.0
382.759999998,1964.0
382.760999998,1963.0
382.761999998,1954.0
382.762999998,1949.0
382.763999998,1961.0
382.764999998,1963.0
382.765999998,1960.0
382.766999998,1961.0
382.767999998,1959.0
382.768999998,1969.0
382.769999998,1962.0
382.770999998,1961.0
382.771999998,1957.0
382.772999998,1968.0
382.773999998,1972.0
382.774999998,1980.0
382.775999998,1973.0
382.776999998,1968.0
382.777999998,1962.0
382.778999998,1959.0
382.779999998,1969.0
382.780999998,1980.0
382.781999998,1979.0
382.782999998,1994.0
382.783999998,1985.0
382.784999998,1988.0
382.785999998,1977.0
382.786999998,1968.0
382.787999998,1978.0
382.788999998,1993.0
382.789999998,1995.0
382.790999998,1991.0
382.791999998,1981.0
382.792999998,1977.0
382.793999998,1979.0
382.794999998,1975.0
382.795999998,1973.0
382.796999998,1976.0
382.797999998,1988.0
382.798999998,1992.0
382.799999998,1994.0
382.800999998,1993.0
382.801999998,1980.0
382.802999998,1973.0
382.803999998,1971.0
382.804999998,1989.0
382.805999998,1992.0
382.806999998,1993.0
382.807999998,1985.0
382.808999998,1981.0
382.809999998,1975.0
382.810999998,1984.0
382.811999998,1983.0
382.812999998,1987.0
382.813999998,1991.0
382.814999998,2000.0
382.815999998,2008.0
382.816999998,2014.0
382.817999998,2007.0
382.818999998,2013.0
382.819999998,2022.0
382.820999998,2026.0
382.821999998,2032.0
382.822999998,2040.0
382.823999998,2048.0
382.824999998,2050.0
382.825999998,2043.0
382.826999998,2042.0
382.827999998,2038.0
382.828999998,2040.0
382.829999998,2037.0
382.830999998,2032.0
382.831999998,2024.0
382.832999998,2040.0
382.833999998,2039.0
382.834999998,2039.0
382.835999998,2039.0
382.836999998,2047.0
382.837999998,2047.0
382.838999998,2049.0
382.839999998,2040.0
382.840999998,2036.0
382.841999998,2032.0
382.842999998,2039.0
382.843999998,2037.0
382.844999998,2046.0
382.845999998,2026.0
382.846999998,2023.0
382.847999998,2016.0
382.848999998,2019.0
382.849999998,2043.0
382.850999998,2025.0
382.851999998,1995.0
382.852999998,1941.0
382.853999998,1854.0
382.854999998,1741.0
382.855999998,1680.0
382.856999998,1720.0
382.857999998,1921.0
382.858999998,2146.0
382.859999998,2375.0
382.860999998,2555.0
382.861999998,2648.0
382.862999998,2748.0
382.863999998,2827.0
382.864999998,2837.0
382.865999998,2847.0
382.866999998,2772.0
382.867999998,2622.0
382.868999998,2471.0
382.869999998,2387.0
382.870999998,2328.0
382.871999998,2275.0
382.872999998,2229.0
382.873999998,2180.0
382.874999998,2120.0
382.875999998,2067.0
382.876999998,1987.0
382.877999998,1925.0
382.878999998,1872.0
382.879999998,1834.0
382.880999998,1834.0
382.881999998,1827.0
382.882999998,1821.0
382.883999998,1816.0
382.884999998,1819.0
382.885999998,1822.0
382.886999998,1821.0
382.887999998,1811.0
382.888999998,1822.0
382.889999998,1834.0
382.890999998,1845.0
382.891999998,1848.0
382.892999998,1852.0
382.893999998,1845.0
382.894999998,1841.0
382.895999998,1835.0
382.896999998,1851.0
382.897999998,1855.0
382.898999998,1854.0
382.899999998,1863.0
382.900999998,1858.0
382.901999998,1864.0
382.902999998,1865.0
382.903999998,1867.0
382.904999998,1865.0
382.905999998,1882.0
382.906999998,1886.0
382.907999998,1880.0
382.908999998,1928.0
382.909999998,1870.0
382.910999998,1901.0
382.911999998,1894.0
382.912999998,1910.0
382.913999998,1895.0
382.914999998,1890.0
382.915999998,1897.0
382.916999998,1893.0
382.917999998,1882.0
382.918999998,1881.0
382.919999998,1884.0
382.920999998,1885.0
382.921999998,1892.0
382.922999998,1896.0
382.923999998,1886.0
382.924999998,1883.0
382.925999998,1885.0
382.926999998,1879.0
382.927999998,1872.0
382.928999998,1881.0
382.929999998,1885.0
382.930999998,1878.0
382.931999998,1879.0
382.932999998,1876.0
382.933999998,1875.0
382.934999998,1875.0
382.935999998,1882.0
382.936999998,1895.0
382.937999998,1885.0
382.938999998,1894.0
382.939999998,1915.0
382.940999998,1908.0
382.941999998,1907.0
382.942999998,1923.0
382.943999998,1930.0
382.944999998,1945.0
382.945999998,1941.0
382.946999998,1953.0
382.947999998,1965.0
382.948999998,1975.0
382.949999998,1977.0
382.950999998,2001.0
382.951999998,2017.0
382.952999998,2054.0
382.953999998,2048.0
382.954999998,2065.0
382.955999998,2065.0
382.956999998,2081.0
382.957999998,2086.0
382.958999998,2098.0
382.959999998,2099.0
382.960999998,2153.0
382.961999998,2122.0
382.962999998,2120.0
382.963999998,2129.0
382.964999998,2131.0
382.965999998,2138.0
382.966999998,2145.0
382.967999998,2162.0
382.968999998,2150.0
382.969999998,2156.0
382.970999998,2161.0
382.971999998,2183.0
382.972999998,2143.0
382.973999998,2180.0
382.974999998,2108.0
382.975999998,2159.0
382.976999998,2180.0
382.977999998,2148.0
382.978999998,2145.0
382.979999998,2150.0
382.980999998,2146.0
382.981999998,2143.0
382.982999998,2137.0
382.983999998,2144.0
382.984999998,2148.0
382.985999998,2142.0
382.986999998,2135.0
382.987999998,2132.0
382.988999998,2131.0
382.989999998,2147.0
382.990999998,2127.0
382.991999998,2130.0
382.992999998,2136.0
382.993999998,2136.0
382.994999998,2131.0
382.995999998,2128.0
382.996999998,2125.0
382.997999998,2119.0
382.998999998,2120.0
382.999999998,2106.0
383.000999998,2109.0
383.001999998,2115.0
383.002999998,2106.0
383.003999998,2111.0
383.004999998,2104.0
383.005999998,2114.0
383.006999998,2113.0
383.007999998,2096.0
383.008999998,2098.0
383.009999998,2106.0
383.010999998,2095.0
383.011999998,2078.0
383.012999998,2084.0
383.013999998,2083.0
383.014999998,2079.0
383.015999998,2074.0
383.016999998,2083.0
383.017999998,2073.0
383.018999998,2087.0
383.019999998,2070.0
383.020999998,2069.0
383.021999998,2065.0
383.022999998,2060.0
383.023999998,2052.0
383.024999998,2041.0
383.025999998,2040.0
383.026999998,2045.0
383.027999998,1998.0
383.028999998,2036.0
383.029999998,2014.0
383.030999998,2024.0
383.031999998,2014.0
383.032999998,2026.0
383.033999998,2026.0
383.034999998,2027.0
383.035999998,2015.0
383.036999998,2017.0
383.037999998,2010.0
383.038999998,2013.0
383.039999998,2012.0
383.040999998,2006.0
383.041999998,2006.0
383.042999998,2001.0
383.043999998,1992.0
383.044999998,1993.0
383.045999998,1997.0
383.046999998,1999.0
383.047999998,1996.0
383.048999998,1999.0
383.049999998,1991.0
383.050999998,1992.0
383.051999998,1986.0
383.052999998,1992.0
383.053999998,1978.0
383.054999998,1979.0
383.055999998,1974.0
383.056999998,1972.0
383.057999998,1937.0
383.058999998,1952.0
383.059999998,1953.0
383.060999998,1957.0
383.061999998,1964.0
383.062999998,1969.0
383.063999998,1978.0
383.064999998,1974.0
383.065999998,1966.0
383.066999998,1950.0
383.067999998,1948.0
383.068999998,1954.0
383.069999998,1957.0
383.070999998,1964.0
383.071999998,1967.0
383.072999998,1961.0
383.073999998,1942.0
383.074999998,1933.0
383.075999998,1960.0
383.076999998,1956.0
383.077999998,1952.0
383.078999998,1985.0
383.079999998,1980.0
383.080999998,1979.0
383.081999998,1970.0
383.082999998,1982.0
383.083999998,1968.0
383.084999998,1969.0
383.085999998,1960.0
383.086999998,1966.0
383.087999998,1953.0
383.088999998,1945.0
383.089999998,1926.0
383.090999998,1928.0
383.091999998,1953.0
383.092999998,1955.0
383.093999998,1952.0
383.094999998,1955.0
383.095999998,1941.0
383.096999998,1955.0
383.097999998,1927.0
383.098999998,1904.0
383.099999998,1939.0
383.100999998,1941.0
383.101999998,1941.0
383.102999998,1945.0
383.103999998,1933.0
383.104999998,1937.0
383.105999998,1926.0
383.106999998,1917.0
383.107999998,1930.0
383.108999998,1925.0
383.109999998,1947.0
383.110999998,1951.0
383.111999998,1944.0
383.112999998,1943.0
383.113999998,1930.0
383.114999998,1943.0
383.115999998,1932.0
383.116999998,1941.0
383.117999998,1937.0
383.118999998,1950.0
383.119999998,1944.0
383.120999998,1938.0
383.121999998,1934.0
383.122999998,1937.0
383.123999998,1939.0
383.124999998,1932.0
383.125999998,1937.0
383.126999998,1937.0
383.127999998,1927.0
383.128999998,1929.0
383.129999998,1929.0
383.130999998,1929.0
383.131999998,1924.0
383.132999998,1937.0
383.133999998,1941.0
383.134999998,1941.0
383.135999998,1930.0
383.136999998,1942.0
383.137999998,1950.0
383.138999998,1943.0
383.139999998,1946.0
383.140999998,1950.0
383.141999998,1941.0
383.142999998,1941.0
383.143999998,1944.0
383.144999998,1943.0
383.145999998,1942.0
383.146999998,1946.0
383.147999998,1952.0
383.148999998,1951.0
383.149999998,1954.0
383.150999998,1950.0
383.151999998,1951.0
383.152999998,1952.0
383.153999998,1950.0
383.154999998,1959.0
383.155999998,1953.0
383.156999998,1956.0
383.157999998,1954.0
383.158999998,1945.0
383.159999998,1932.0
383.160999998,1933.0
383.161999998,1949.0
383.162999998,1957.0
383.163999998,1949.0
383.164999998,1955.0
383.165999998,1951.0
383.166999998,1967.0
383.167999998,1963.0
383.168999998,1969.0
383.169999998,1970.0
383.170999998,1982.0
383.171999998,1981.0
383.172999998,1980.0
383.173999998,1980.0
383.174999998,1991.0
383.175999998,1979.0
383.176999998,1993.0
383.177999998,1991.0
383.178999998,2011.0
383.179999998,2010.0
383.180999998,2020.0
383.181999998,2007.0
383.182999998,2009.0
383.183999998,2000.0
383.184999998,2003.0
383.185999998,1999.0
383.186999998,2005.0
383.187999998,2004.0
383.188999998,2005.0
383.189999998,2013.0
383.190999998,2010.0
383.191999998,2003.0
383.192999998,2016.0
383.193999998,2028.0
383.194999998,2022.0
383.195999998,2024.0
383.196999998,2022.0
383.197999998,2030.0
383.198999998,2021.0
383.199999998,2008.0
383.200999998,2009.0
383.201999998,2010.0
383.202999998,2006.0
383.203999998,1996.0
383.204999998,2000.0
383.205999998,2002.0
383.206999998,1993.0
383.207999998,1971.0
383.208999998,1910.0
383.209999998,1838.0
383.210999998,1718.0
383.211999998,1639.0
383.212999998,1634.0
383.213999998,1783.0
383.214999998,1992.0
383.215999998,2228.0
383.216999998,2464.0
383.217999998,2598.0
383.218999998,2710.0
383.219999998,2782.0
383.220999998,2820.0
383.221999998,2827.0
383.222999998,2761.0
383.223999998,2650.0
383.224999998,2508.0
383.225999998,2408.0
383.226999998,2366.0
383.227999998,2313.0
383.228999998,2265.0
383.229999998,2204.0
383.230999998,2153.0
383.231999998,2077.0
383.232999998,2015.0
383.233999998,1940.0
383.234999998,1885.0
383.235999998,1841.0
383.236999998,1815.0
383.237999998,1790.0
383.238999998,1787.0
383.239999998,1780.0
383.240999998,1791.0
383.241999998,1784.0
383.242999998,1789.0
383.243999998,1794.0
383.244999998,1799.0
383.245999998,1799.0
383.246999998,1803.0
383.247999998,1817.0
383.248999998,1818.0
383.249999998,1825.0
383.250999998,1828.0
383.251999998,1839.0
383.252999998,1838.0
383.253999998,1834.0
383.254999998,1848.0
383.255999998,1850.0
383.256999998,1856.0
383.257999998,1861.0
383.258999998,1877.0
383.259999998,1867.0
383.260999998,1871.0
383.261999998,1878.0
383.262999998,1873.0
383.263999998,1886.0
383.264999998,1887.0
383.265999998,1891.0
383.266999998,1898.0
383.267999998,1889.0
383.268999998,1879.0
383.269999998,1869.0
383.270999998,1887.0
383.271999998,1890.0
383.272999998,1889.0
383.273999998,1896.0
383.274999998,1903.0
383.275999998,1889.0
383.276999998,1893.0
383.277999998,1884.0
383.278999998,1892.0
383.279999998,1883.0
383.280999998,1889.0
383.281999998,1884.0
383.282999998,1878.0
383.283999998,1875.0
383.284999998,1872.0
383.285999998,1871.0
383.286999998,1880.0
383.287999998,1881.0
383.288999998,1881.0
383.289999998,1876.0
383.290999998,1879.0
383.291999998,1886.0
383.292999998,1892.0
383.293999998,1885.0
383.294999998,1904.0
383.295999998,1897.0
383.296999998,1912.0
383.297999998,1921.0
383.298999998,1932.0
383.299999998,1927.0
383.300999998,1938.0
383.301999998,1949.0
383.302999998,1970.0
383.303999998,1990.0
383.304999998,2011.0
383.305999998,2032.0
383.306999998,2050.0
383.307999998,2057.0
383.308999998,2065.0
383.309999998,2084.0
383.310999998,2111.0
383.311999998,2125.0
383.312999998,2133.0
383.313999998,2147.0
383.314999998,2156.0
383.315999998,2159.0
383.316999998,2169.0
383.317999998,2183.0
383.318999998,2198.0
383.319999998,2199.0
383.320999998,2200.0
383.321999998,2203.0
383.322999998,2213.0
383.323999998,2207.0
383.324999998,2211.0
383.325999998,2226.0
383.326999998,2232.0
383.327999998,2228.0
383.328999998,2237.0
383.329999998,2232.0
383.330999998,2236.0
383.331999998,2226.0
383.332999998,2222.0
383.333999998,2225.0
383.334999998,2230.0
383.335999998,2231.0
383.336999998,2227.0
383.337999998,2232.0
383.338999998,2213.0
383.339999998,2210.0
383.340999998,2208.0
383.341999998,2205.0
383.342999998,2223.0
383.343999998,2215.0
383.344999998,2216.0
383.345999998,2202.0
383.346999998,2194.0
383.347999998,2191.0
383.348999998,2196.0
383.349999998,2187.0
383.350999998,2181.0
383.351999998,2185.0
383.352999998,2191.0
383.353999998,2178.0
383.354999998,2175.0
383.355999998,2171.0
383.356999998,2166.0
383.357999998,2169.0
383.358999998,2182.0
383.359999998,2167.0
383.360999998,2173.0
383.361999998,2169.0
383.362999998,2161.0
383.363999998,2166.0
383.364999998,2158.0
383.365999998,2164.0
383.366999998,2165.0
383.367999998,2157.0
383.368999998,2155.0
383.369999998,2138.0
383.370999998,2137.0
383.371999998,2134.0
383.372999998,2139.0
383.373999998,2143.0
383.374999998,2142.0
383.375999998,2140.0
383.376999998,2133.0
383.377999998,2126.0
383.378999998,2129.0
383.379999998,2128.0
383.380999998,2129.0
383.381999998,2122.0
383.382999998,2132.0
383.383999998,2123.0
383.384999998,2121.0
383.385999998,2108.0
383.386999998,2118.0
383.387999998,2113.0
383.388999998,2112.0
383.389999998,2117.0
383.390999998,2113.0
383.391999998,2113.0
383.392999998,2111.0
383.393999998,2104.0
383.394999998,2095.0
383.395999998,2103.0
383.396999998,2107.0
383.397999998,2104.0
383.398999998,2117.0
383.399999998,2113.0
383.400999998,2109.0
383.401999998,2097.0
383.402999998,2088.0
383.403999998,2092.0
383.404999998,2100.0
383.405999998,2094.0
383.406999998,2095.0
383.407999998,2088.0
383.408999998,2098.0
383.409999998,2086.0
383.410999998,2100.0
383.411999998,2095.0
383.412999998,2094.0
383.413999998,2104.0
383.414999998,2100.0
383.415999998,2098.0
383.416999998,2089.0
383.417999998,2094.0
383.418999998,2099.0
383.419999998,2095.0
383.420999998,2081.0
383.421999998,2103.0
383.422999998,2109.0
383.423999998,2051.0
383.424999998,2098.0
383.425999998,2096.0
383.426999998,2109.0
383.427999998,2108.0
383.428999998,2114.0
383.429999998,2106.0
383.430999998,2105.0
383.431999998,2142.0
383.432999998,2103.0
383.433999998,2073.0
383.434999998,2077.0
383.435999998,2109.0
383.436999998,2116.0
383.437999998,2105.0
383.438999998,2099.0
383.439999998,2110.0
383.440999998,2099.0
383.441999998,2088.0
383.442999998,2109.0
383.443999998,2110.0
383.444999998,2107.0
383.445999998,2097.0
383.446999998,2106.0
383.447999998,2104.0
383.448999998,2094.0
383.449999998,2095.0
383.450999998,2099.0
383.451999998,2093.0
383.452999998,2086.0
383.453999998,2092.0
383.454999998,2080.0
383.455999998,2085.0
383.456999998,2075.0
383.457999998,2048.0
383.458999998,2069.0
383.459999998,2065.0
383.460999998,2057.0
383.461999998,2066.0
383.462999998,2058.0
383.463999998,2056.0
383.464999998,2051.0
383.465999998,2049.0
383.466999998,2061.0
383.467999998,2061.0
383.468999998,2061.0
383.469999998,2061.0
383.470999998,2056.0
383.471999998,2055.0
383.472999998,2054.0
383.473999998,2059.0
383.474999998,2064.0
383.475999998,2064.0
383.476999998,2061.0
383.477999998,2059.0
383.478999998,2052.0
383.479999998,2047.0
383.480999998,2054.0
383.481999998,2052.0
383.482999998,2059.0
383.483999998,2052.0
383.484999998,2062.0
383.485999998,2065.0
383.486999998,2063.0
383.487999998,2052.0
383.488999998,2056.0
383.489999998,2062.0
383.490999998,2072.0
383.491999998,2063.0
383.492999998,2071.0
383.493999998,2062.0
383.494999998,2063.0
383.495999998,2061.0
383.496999998,2060.0
383.497999998,2059.0
383.498999998,2058.0
383.499999998,2063.0
383.500999998,2059.0
383.501999998,2057.0
383.502999998,2052.0
383.503999998,2027.0
383.504999998,2035.0
383.505999998,2029.0
383.506999998,2033.0
383.507999998,2049.0
383.508999998,2051.0
383.509999998,2052.0
383.510999998,2038.0
383.511999998,2046.0
383.512999998,2057.0
383.513999998,2048.0
383.514999998,2069.0
383.515999998,2065.0
383.516999998,2061.0
383.517999998,2059.0
383.518999998,2050.0
383.519999998,2061.0
383.520999998,2070.0
383.521999998,2073.0
383.522999998,2092.0
383.523999998,2089.0
383.524999998,2086.0
383.525999998,2097.0
383.526999998,2093.0
383.527999998,2095.0
383.528999998,2100.0
383.529999998,2101.0
383.530999998,2096.0
383.531999998,2085.0
383.532999998,2084.0
383.533999998,2073.0
383.534999998,2071.0
383.535999998,2075.0
383.536999998,2079.0
383.537999998,2083.0
383.538999998,2096.0
383.539999998,2091.0
383.540999998,2102.0
383.541999998,2082.0
383.542999998,2091.0
383.543999998,2098.0
383.544999998,2102.0
383.545999998,2097.0
383.546999998,2091.0
383.547999998,2096.0
383.548999998,2082.0
383.549999998,2071.0
383.550999998,2077.0
383.551999998,2098.0
383.552999998,2089.0
383.553999998,2070.0
383.554999998,2013.0
383.555999998,1931.0
383.556999998,1801.0
383.557999998,1716.0
383.558999998,1720.0
383.559999998,1913.0
383.560999998,2133.0
383.561999998,2394.0
383.562999998,2593.0
383.563999998,2701.0
383.564999998,2793.0
383.565999998,2862.0
383.566999998,2891.0
383.567999998,2919.0
383.568999998,2844.0
383.569999998,2703.0
383.570999998,2549.0
383.571999998,2454.0
383.572999998,2395.0
383.573999998,2323.0
383.574999998,2267.0
383.575999998,2213.0
383.576999998,2151.0
383.577999998,2056.0
383.578999998,1973.0
383.579999998,1900.0
383.580999998,1846.0
383.581999998,1812.0
383.582999998,1797.0
383.583999998,1806.0
383.584999998,1807.0
383.585999998,1801.0
383.586999998,1812.0
383.587999998,1804.0
383.588999998,1807.0
383.589999998,1806.0
383.590999998,1818.0
383.591999998,1830.0
383.592999998,1827.0
383.593999998,1831.0
383.594999998,1850.0
383.595999998,1842.0
383.596999998,1852.0
383.597999998,1860.0
383.598999998,1878.0
383.599999998,1881.0
383.600999998,1891.0
383.601999998,1892.0
383.602999998,1888.0
383.603999998,1890.0
383.604999998,1884.0
383.605999998,1885.0
383.606999998,1901.0
383.607999998,1895.0
383.608999998,1899.0
383.609999998,1894.0
383.610999998,1907.0
383.611999998,1898.0
383.612999998,1896.0
383.613999998,1898.0
383.614999998,1905.0
383.615999998,1913.0
383.616999998,1925.0
383.617999998,1902.0
383.618999998,1898.0
383.619999998,1905.0
383.620999998,1901.0
383.621999998,1892.0
383.622999998,1907.0
383.623999998,1906.0
383.624999998,1908.0
383.625999998,1885.0
383.626999998,1885.0
383.627999998,1886.0
383.628999998,1886.0
383.629999998,1871.0
383.630999998,1887.0
383.631999998,1876.0
383.632999998,1887.0
383.633999998,1874.0
383.634999998,1878.0
383.635999998,1878.0
383.636999998,1879.0
383.637999998,1883.0
383.638999998,1893.0
383.639999998,1896.0
383.640999998,1907.0
383.641999998,1910.0
383.642999998,1914.0
383.643999998,1913.0
383.644999998,1926.0
383.645999998,1939.0
383.646999998,1956.0
383.647999998,1958.0
383.648999998,1976.0
383.649999998,1980.0
383.650999998,1995.0
383.651999998,1995.0
383.652999998,2010.0
383.653999998,2033.0
383.654999998,2052.0
383.655999998,2070.0
383.656999998,2082.0
383.657999998,2092.0
383.658999998,2100.0
383.659999998,2109.0
383.660999998,2122.0
383.661999998,2125.0
383.662999998,2141.0
383.663999998,2155.0
383.664999998,2153.0
383.665999998,2154.0
383.666999998,2169.0
383.667999998,2169.0
383.668999998,2185.0
383.669999998,2179.0
383.670999998,2186.0
383.671999998,2189.0
383.672999998,2193.0
383.673999998,2185.0
383.674999998,2185.0
383.675999998,2183.0
383.676999998,2185.0
383.677999998,2158.0
383.678999998,2183.0
383.679999998,2195.0
383.680999998,2184.0
383.681999998,2178.0
383.682999998,2177.0
383.683999998,2171.0
383.684999998,2173.0
383.685999998,2169.0
383.686999998,2171.0
383.687999998,2162.0
383.688999998,2161.0
383.689999998,2168.0
383.690999998,2146.0
383.691999998,2152.0
383.692999998,2146.0
383.693999998,2150.0
383.694999998,2152.0
383.695999998,2149.0
383.696999998,2139.0
383.697999998,2136.0
383.698999998,2127.0
383.699999998,2123.0
383.700999998,2129.0
383.701999998,2115.0
383.702999998,2117.0
383.703999998,2125.0
383.704999998,2110.0
383.705999998,2111.0
383.706999998,2108.0
383.707999998,2101.0
383.708999998,2121.0
383.709999998,2106.0
383.710999998,2099.0
383.711999998,2089.0
383.712999998,2090.0
383.713999998,2093.0
383.714999998,2086.0
383.715999998,2079.0
383.716999998,2092.0
383.717999998,2076.0
383.718999998,2081.0
383.719999998,2085.0
383.720999998,2080.0
383.721999998,2061.0
383.722999998,2064.0
383.723999998,2066.0
383.724999998,2079.0
383.725999998,2073.0
383.726999998,2081.0
383.727999998,2073.0
383.728999998,2073.0
383.729999998,2064.0
383.730999998,2062.0
383.731999998,2062.0
383.732999998,2058.0
383.733999998,2056.0
383.734999998,2064.0
383.735999998,2054.0
383.736999998,2050.0
383.737999998,2046.0
383.738999998,2045.0
383.739999998,2043.0
383.740999998,2040.0
383.741999998,2050.0
383.742999998,2050.0
383.743999998,2055.0
383.744999998,2047.0
383.745999998,2045.0
383.746999998,2045.0
383.747999998,2057.0
383.748999998,2066.0
383.749999998,2060.0
383.750999998,2062.0
383.751999998,2043.0
383.752999998,2048.0
383.753999998,2036.0
383.754999998,2036.0
383.755999998,2058.0
383.756999998,2055.0
383.757999998,2047.0
383.758999998,2048.0
383.759999998,2043.0
383.760999998,2049.0
383.761999998,2040.0
383.762999998,2043.0
383.763999998,2047.0
383.764999998,2051.0
383.765999998,2042.0
383.766999998,2050.0
383.767999998,2044.0
383.768999998,2040.0
383.769999998,2041.0
383.770999998,2044.0
383.771999998,2055.0
383.772999998,2054.0
383.773999998,2061.0
383.774999998,2060.0
383.775999998,2052.0
383.776999998,2047.0
383.777999998,2042.0
383.778999998,2045.0
383.779999998,2053.0
383.780999998,2051.0
383.781999998,2049.0
383.782999998,2052.0
383.783999998,2049.0
383.784999998,2039.0
383.785999998,2048.0
383.786999998,2051.0
383.787999998,2053.0
383.788999998,2050.0
383.789999998,2047.0
383.790999998,2048.0
383.791999998,2040.0
383.792999998,2050.0
383.793999998,2052.0
383.794999998,2045.0
383.795999998,2043.0
383.796999998,2046.0
383.797999998,2043.0
383.798999998,2049.0
383.799999998,2034.0
383.800999998,2035.0
383.801999998,2028.0
383.802999998,2050.0
383.803999998,2040.0
383.804999998,2041.0
383.805999998,2041.0
383.806999998,2033.0
383.807999998,2031.0
383.808999998,2033.0
383.809999998,2044.0
383.810999998,2050.0
383.811999998,2041.0
383.812999998,2046.0
383.813999998,2025.0
383.814999998,2034.0
383.815999998,2021.0
383.816999998,2036.0
383.817999998,2032.0
383.818999998,2029.0
383.819999998,2023.0
383.820999998,2029.0
383.821999998,2032.0
383.822999998,2024.0
383.823999998,2029.0
383.824999998,2037.0
383.825999998,2039.0
383.826999998,2032.0
383.827999998,2040.0
383.828999998,2037.0
383.829999998,2026.0
383.830999998,2030.0
383.831999998,2021.0
383.832999998,2026.0
383.833999998,2034.0
383.834999998,2031.0
383.835999998,2011.0
383.836999998,2005.0
383.837999998,2002.0
383.838999998,1998.0
383.839999998,2011.0
383.840999998,2026.0
383.841999998,2021.0
383.842999998,2022.0
383.843999998,2008.0
383.844999998,2004.0
383.845999998,2020.0
383.846999998,2013.0
383.847999998,2028.0
383.848999998,2050.0
383.849999998,2041.0
383.850999998,2052.0
383.851999998,2054.0
383.852999998,2054.0
383.853999998,2043.0
383.854999998,2046.0
383.855999998,2058.0
383.856999998,2070.0
383.857999998,2063.0
383.858999998,2068.0
383.859999998,2057.0
383.860999998,2068.0
383.861999998,2066.0
383.862999998,2052.0
383.863999998,2054.0
383.864999998,2036.0
383.865999998,2051.0
383.866999998,2057.0
383.867999998,2062.0
383.868999998,2061.0
383.869999998,2066.0
383.870999998,2068.0
383.871999998,2068.0
383.872999998,2067.0
383.873999998,2068.0
383.874999998,2061.0
383.875999998,2040.0
383.876999998,2045.0
383.877999998,2046.0
383.878999998,2076.0
383.879999998,2044.0
383.880999998,2037.0
383.881999998,2034.0
383.882999998,2022.0
383.883999998,2023.0
383.884999998,2041.0
383.885999998,2027.0
383.886999998,2004.0
383.887999998,1953.0
383.888999998,1878.0
383.889999998,1727.0
383.890999998,1690.0
383.891999998,1748.0
383.892999998,1901.0
383.893999998,2135.0
383.894999998,2400.0
383.895999998,2589.0
383.896999998,2669.0
383.897999998,2792.0
383.898999998,2856.0
383.899999998,2868.0
383.900999998,2874.0
383.901999998,2791.0
383.902999998,2638.0
383.903999998,2497.0
383.904999998,2423.0
383.905999998,2360.0
383.906999998,2299.0
383.907999998,2238.0
383.908999998,2175.0
383.909999998,2116.0
383.910999998,2029.0
383.911999998,1946.0
383.912999998,1891.0
383.913999998,1846.0
383.914999998,1812.0
383.915999998,1793.0
383.916999998,1796.0
383.917999998,1791.0
383.918999998,1792.0
383.919999998,1783.0
383.920999998,1800.0
383.921999998,1797.0
383.922999998,1804.0
383.923999998,1801.0
383.924999998,1811.0
383.925999998,1819.0
383.926999998,1813.0
383.927999998,1819.0
383.928999998,1830.0
383.929999998,1838.0
383.930999998,1836.0
383.931999998,1835.0
383.932999998,1848.0
383.933999998,1850.0
383.934999998,1858.0
383.935999998,1854.0
383.936999998,1858.0
383.937999998,1859.0
383.938999998,1862.0
383.939999998,1866.0
383.940999998,1868.0
383.941999998,1871.0
383.942999998,1876.0
383.943999998,1885.0
383.944999998,1892.0
383.945999998,1884.0
383.946999998,1888.0
383.947999998,1890.0
383.948999998,1888.0
383.949999998,1882.0
383.950999998,1881.0
383.951999998,1888.0
383.952999998,1886.0
383.953999998,1887.0
383.954999998,1888.0
383.955999998,1875.0
383.956999998,1880.0
383.957999998,1885.0
383.958999998,1880.0
383.959999998,1877.0
383.960999998,1882.0
383.961999998,1859.0
383.962999998,1862.0
383.963999998,1867.0
383.964999998,1860.0
383.965999998,1865.0
383.966999998,1868.0
383.967999998,1866.0
383.968999998,1874.0
383.969999998,1874.0
383.970999998,1881.0
383.971999998,1874.0
383.972999998,1881.0
383.973999998,1878.0
383.974999998,1890.0
383.975999998,1903.0
383.976999998,1906.0
383.977999998,1907.0
383.978999998,1918.0
383.979999998,1916.0
383.980999998,1931.0
383.981999998,1948.0
383.982999998,1958.0
383.983999998,1975.0
383.984999998,1995.0
383.985999998,2009.0
383.986999998,2017.0
383.987999998,2040.0
383.988999998,2063.0
383.989999998,2074.0
383.990999998,2093.0
383.991999998,2097.0
383.992999998,2117.0
383.993999998,2122.0
383.994999998,2122.0
383.995999998,2129.0
383.996999998,2143.0
383.997999998,2155.0
383.998999998,2156.0
383.999999998,2155.0
384.000999998,2160.0
384.001999998,2164.0
384.002999998,2161.0
384.003999998,2154.0
384.004999998,2171.0
384.005999998,2174.0
384.006999998,2170.0
384.007999998,2173.0
384.008999998,2174.0
384.009999998,2168.0
384.010999998,2164.0
384.011999998,2172.0
384.012999998,2178.0
384.013999998,2181.0
384.014999998,2185.0
384.015999998,2170.0
384.016999998,2175.0
384.017999998,2166.0
384.018999998,2155.0
384.019999998,2152.0
384.020999998,2151.0
384.021999998,2158.0
384.022999998,2151.0
384.023999998,2147.0
384.024999998,2149.0
384.025999998,2136.0
384.026999998,2129.0
384.027999998,2122.0
384.028999998,2133.0
384.029999998,2123.0
384.030999998,2125.0
384.031999998,2118.0
384.032999998,2117.0
384.033999998,2114.0
384.034999998,2113.0
384.035999998,2107.0
384.036999998,2109.0
384.037999998,2101.0
384.038999998,2096.0
384.039999998,2090.0
384.040999998,2095.0
384.041999998,2091.0
384.042999998,2079.0
384.043999998,2082.0
384.044999998,2092.0
384.045999998,2093.0
384.046999998,2088.0
384.047999998,2077.0
384.048999998,2073.0
384.049999998,2062.0
384.050999998,2064.0
384.051999998,2070.0
384.052999998,2072.0
384.053999998,2063.0
384.054999998,2058.0
384.055999998,2062.0
384.056999998,2060.0
384.057999998,2057.0
384.058999998,2059.0
384.059999998,2055.0
384.060999998,2062.0
384.061999998,2062.0
384.062999998,2061.0
384.063999998,2053.0
384.064999998,2053.0
384.065999998,2049.0
384.066999998,2040.0
384.067999998,2050.0
384.068999998,2057.0
384.069999998,2048.0
384.070999998,2047.0
384.071999998,2041.0
384.072999998,2041.0
384.073999998,2040.0
384.074999998,2046.0
384.075999998,2045.0
384.076999998,2049.0
384.077999998,2055.0
384.078999998,2041.0
384.079999998,2043.0
384.080999998,2046.0
384.081999998,2043.0
384.082999998,2058.0
384.083999998,2041.0
384.084999998,2051.0
384.085999998,2050.0
384.086999998,2041.0
384.087999998,2035.0
384.088999998,2035.0
384.089999998,2043.0
384.090999998,2042.0
384.091999998,2049.0
384.092999998,2054.0
384.093999998,2051.0
384.094999998,2044.0
384.095999998,2049.0
384.096999998,2046.0
384.097999998,2043.0
384.098999998,2047.0
384.099999998,2054.0
384.100999998,2055.0
384.101999998,2063.0
384.102999998,2063.0
384.103999998,2052.0
384.104999998,2049.0
384.105999998,2052.0
384.106999998,2045.0
384.107999998,2031.0
384.108999998,2041.0
384.109999998,2045.0
384.110999998,2041.0
384.111999998,2036.0
384.112999998,2036.0
384.113999998,2043.0
384.114999998,2044.0
384.115999998,2045.0
384.116999998,2043.0
384.117999998,2038.0
384.118999998,2042.0
384.119999998,2029.0
384.120999998,2042.0
384.121999998,2044.0
384.122999998,2041.0
384.123999998,2049.0
384.124999998,2042.0
384.125999998,2039.0
384.126999998,2036.0
384.127999998,2022.0
384.128999998,2032.0
384.129999998,2045.0
384.130999998,2041.0
384.131999998,2044.0
384.132999998,2047.0
384.133999998,2033.0
384.134999998,2040.0
384.135999998,2030.0
384.136999998,2043.0
384.137999998,2048.0
384.138999998,2040.0
384.139999998,2042.0
384.140999998,2029.0
384.141999998,2025.0
384.142999998,2027.0
384.143999998,2025.0
384.144999998,2042.0
384.145999998,2049.0
384.146999998,2043.0
384.147999998,2028.0
384.148999998,2019.0
384.149999998,2033.0
384.150999998,2015.0
384.151999998,2016.0
384.152999998,2025.0
384.153999998,2022.0
384.154999998,2028.0
384.155999998,2021.0
384.156999998,1997.0
384.157999998,1989.0
384.158999998,1997.0
384.159999998,1993.0
384.160999998,1993.0
384.161999998,2002.0
384.162999998,2021.0
384.163999998,2004.0
384.164999998,2007.0
384.165999998,1997.0
384.166999998,2003.0
384.167999998,2001.0
384.168999998,2018.0
384.169999998,2028.0
384.170999998,2025.0
384.171999998,2019.0
384.172999998,2029.0
384.173999998,2019.0
384.174999998,2030.0
384.175999998,2033.0
384.176999998,2044.0
384.177999998,2045.0
384.178999998,2049.0
384.179999998,2041.0
384.180999998,2028.0
384.181999998,2028.0
384.182999998,2024.0
384.183999998,2012.0
384.184999998,2012.0
384.185999998,2017.0
384.186999998,2021.0
384.187999998,2017.0
384.188999998,2024.0
384.189999998,2028.0
384.190999998,2023.0
384.191999998,2028.0
384.192999998,2035.0
384.193999998,2034.0
384.194999998,2040.0
384.195999998,2020.0
384.196999998,2025.0
384.197999998,2011.0
384.198999998,2017.0
384.199999998,2013.0
384.200999998,2014.0
384.201999998,2009.0
384.202999998,2006.0
384.203999998,2000.0
384.204999998,2004.0
384.205999998,1993.0
384.206999998,1994.0
384.207999998,1951.0
384.208999998,1880.0
384.209999998,1812.0
384.210999998,1694.0
384.211999998,1618.0
384.212999998,1628.0
384.213999998,1791.0
384.214999998,2022.0
384.215999998,2269.0
384.216999998,2489.0
384.217999998,2605.0
384.218999998,2733.0
384.219999998,2784.0
384.220999998,2793.0
384.221999998,2806.0
384.222999998,2751.0
384.223999998,2629.0
384.224999998,2490.0
384.225999998,2392.0
384.226999998,2331.0
384.227999998,2277.0
384.228999998,2234.0
384.229999998,2187.0
384.230999998,2142.0
384.231999998,2063.0
384.232999998,2005.0
384.233999998,1940.0
384.234999998,1876.0
384.235999998,1839.0
384.236999998,1807.0
384.237999998,1789.0
384.238999998,1794.0
384.239999998,1792.0
384.240999998,1804.0
384.241999998,1797.0
384.242999998,1806.0
384.243999998,1790.0
384.244999998,1794.0
384.245999998,1811.0
384.246999998,1816.0
384.247999998,1822.0
384.248999998,1824.0
384.249999998,1825.0
384.250999998,1842.0
384.251999998,1847.0
384.252999998,1844.0
384.253999998,1853.0
384.254999998,1852.0
384.255999998,1843.0
384.256999998,1856.0
384.257999998,1863.0
384.258999998,1852.0
384.259999998,1854.0
384.260999998,1857.0
384.261999998,1864.0
384.262999998,1866.0
384.263999998,1879.0
384.264999998,1870.0
384.265999998,1864.0
384.266999998,1869.0
384.267999998,1858.0
384.268999998,1856.0
384.269999998,1865.0
384.270999998,1872.0
384.271999998,1870.0
384.272999998,1878.0
384.273999998,1875.0
384.274999998,1869.0
384.275999998,1861.0
384.276999998,1867.0
384.277999998,1867.0
384.278999998,1869.0
384.279999998,1856.0
384.280999998,1859.0
384.281999998,1853.0
384.282999998,1845.0
384.283999998,1846.0
384.284999998,1844.0
384.285999998,1852.0
384.286999998,1849.0
384.287999998,1848.0
384.288999998,1841.0
384.289999998,1844.0
384.290999998,1841.0
384.291999998,1833.0
384.292999998,1842.0
384.293999998,1855.0
384.294999998,1864.0
384.295999998,1865.0
384.296999998,1878.0
384.297999998,1878.0
384.298999998,1896.0
384.299999998,1893.0
384.300999998,1909.0
384.301999998,1917.0
384.302999998,1928.0
384.303999998,1952.0
384.304999998,1962.0
384.305999998,1977.0
384.306999998,1982.0
384.307999998,2000.0
384.308999998,2015.0
384.309999998,2032.0
384.310999998,2050.0
384.311999998,2061.0
384.312999998,2076.0
384.313999998,2079.0
384.314999998,2090.0
384.315999998,2084.0
384.316999998,2100.0
384.317999998,2108.0
384.318999998,2119.0
384.319999998,2112.0
384.320999998,2117.0
384.321999998,2118.0
384.322999998,2110.0
384.323999998,2116.0
384.324999998,2126.0
384.325999998,2135.0
384.326999998,2150.0
384.327999998,2127.0
384.328999998,2122.0
384.329999998,2133.0
384.330999998,2121.0
384.331999998,2129.0
384.332999998,2136.0
384.333999998,2128.0
384.334999998,2132.0
384.335999998,2123.0
384.336999998,2123.0
384.337999998,2120.0
384.338999998,2162.0
384.339999998,2133.0
384.340999998,2114.0
384.341999998,2100.0
384.342999998,2125.0
384.343999998,2133.0
384.344999998,2109.0
384.345999998,2112.0
384.346999998,2099.0
384.347999998,2121.0
384.348999998,2068.0
384.349999998,2095.0
384.350999998,2117.0
384.351999998,2096.0
384.352999998,2103.0
384.353999998,2101.0
384.354999998,2101.0
384.355999998,2083.0
384.356999998,2102.0
384.357999998,2100.0
384.358999998,2086.0
384.359999998,2085.0
384.360999998,2083.0
384.361999998,2067.0
384.362999998,2077.0
384.363999998,2078.0
384.364999998,2078.0
384.365999998,2072.0
384.366999998,2078.0
384.367999998,2071.0
384.368999998,2070.0
384.369999998,2059.0
384.370999998,2073.0
384.371999998,2072.0
384.372999998,2080.0
384.373999998,2067.0
384.374999998,2064.0
384.375999998,2049.0
384.376999998,2049.0
384.377999998,2050.0
384.378999998,2058.0
384.379999998,2050.0
384.380999998,2056.0
384.381999998,2048.0
384.382999998,2054.0
384.383999998,2042.0
384.384999998,2030.0
384.385999998,2032.0
384.386999998,2047.0
384.387999998,2036.0
384.388999998,2050.0
384.389999998,2057.0
384.390999998,2049.0
384.391999998,2047.0
384.392999998,2035.0
384.393999998,2041.0
384.394999998,2034.0
384.395999998,2041.0
384.396999998,2044.0
384.397999998,2043.0
384.398999998,2038.0
384.399999998,2026.0
384.400999998,2025.0
384.401999998,2034.0
384.402999998,2044.0
384.403999998,2040.0
384.404999998,2043.0
384.405999998,2046.0
384.406999998,2035.0
384.407999998,2034.0
384.408999998,2034.0
384.409999998,2040.0
384.410999998,2045.0
384.411999998,2043.0
384.412999998,2046.0
384.413999998,2043.0
384.414999998,2054.0
384.415999998,2038.0
384.416999998,2036.0
384.417999998,2043.0
384.418999998,2046.0
384.419999998,2048.0
384.420999998,2050.0
384.421999998,2043.0
384.422999998,2039.0
384.423999998,2035.0
384.424999998,2034.0
384.425999998,2045.0
384.426999998,2050.0
384.427999998,2042.0
384.428999998,2042.0
384.429999998,2044.0
384.430999998,2038.0
384.431999998,2028.0
384.432999998,2032.0
384.433999998,2046.0
384.434999998,2049.0
384.435999998,2041.0
384.436999998,2049.0
384.437999998,2039.0
384.438999998,2043.0
384.439999998,2034.0
384.440999998,2037.0
384.441999998,2033.0
384.442999998,2046.0
384.443999998,2038.0
384.444999998,2033.0
384.445999998,2027.0
384.446999998,2035.0
384.447999998,2027.0
384.448999998,2027.0
384.449999998,2026.0
384.450999998,2029.0
384.451999998,2027.0
384.452999998,2034.0
384.453999998,2016.0
384.454999998,2022.0
384.455999998,2023.0
384.456999998,2024.0
384.457999998,2026.0
384.458999998,2033.0
384.459999998,2024.0
384.460999998,2022.0
384.461999998,2018.0
384.462999998,2003.0
384.463999998,2000.0
384.464999998,1992.0
384.465999998,1990.0
384.466999998,2000.0
384.467999998,1995.0
384.468999998,2008.0
384.469999998,2022.0
384.470999998,2015.0
384.471999998,2010.0
384.472999998,2010.0
384.473999998,2025.0
384.474999998,2028.0
384.475999998,2024.0
384.476999998,2037.0
384.477999998,2038.0
384.478999998,2028.0
384.479999998,2024.0
384.480999998,2033.0
384.481999998,2039.0
384.482999998,2043.0
384.483999998,2053.0
384.484999998,2051.0
384.485999998,2056.0
384.486999998,2061.0
384.487999998,2064.0
384.488999998,2062.0
384.489999998,2059.0
384.490999998,2065.0
384.491999998,2065.0
384.492999998,2063.0
384.493999998,2056.0
384.494999998,2050.0
384.495999998,2044.0
384.496999998,2049.0
384.497999998,2046.0
384.498999998,2055.0
384.499999998,2050.0
384.500999998,2048.0
384.501999998,2040.0
384.502999998,2035.0
384.503999998,2041.0
384.504999998,2041.0
384.505999998,2051.0
384.506999998,2060.0
384.507999998,2056.0
384.508999998,2032.0
384.509999998,2025.0
384.510999998,2028.0
384.511999998,2014.0
384.512999998,2019.0
384.513999998,2020.0
384.514999998,2010.0
384.515999998,1973.0
384.516999998,1887.0
384.517999998,1794.0
384.518999998,1696.0
384.519999998,1658.0
384.520999998,1745.0
384.521999998,1992.0
384.522999998,2238.0
384.523999998,2503.0
384.524999998,2655.0
384.525999998,2760.0
384.526999998,2850.0
384.527999998,2887.0
384.528999998,2892.0
384.529999998,2865.0
384.530999998,2768.0
384.531999998,2587.0
384.532999998,2480.0
384.533999998,2405.0
384.534999998,2368.0
384.535999998,2292.0
384.536999998,2220.0
384.537999998,2154.0
384.538999998,2084.0
384.539999998,1994.0
384.540999998,1918.0
384.541999998,1841.0
384.542999998,1809.0
384.543999998,1776.0
384.544999998,1773.0
384.545999998,1774.0
384.546999998,1773.0
384.547999998,1763.0
384.548999998,1763.0
384.549999998,1760.0
384.550999998,1774.0
384.551999998,1785.0
384.552999998,1797.0
384.553999998,1794.0
384.554999998,1793.0
384.555999998,1792.0
384.556999998,1793.0
384.557999998,1800.0
384.558999998,1814.0
384.559999998,1821.0
384.560999998,1824.0
384.561999998,1832.0
384.562999998,1830.0
384.563999998,1833.0
384.564999998,1847.0
384.565999998,1849.0
384.566999998,1854.0
384.567999998,1856.0
384.568999998,1859.0
384.569999998,1862.0
384.570999998,1860.0
384.571999998,1861.0
384.572999998,1862.0
384.573999998,1864.0
384.574999998,1871.0
384.575999998,1865.0
384.576999998,1875.0
384.577999998,1875.0
384.578999998,1866.0
384.579999998,1864.0
384.580999998,1864.0
384.581999998,1862.0
384.582999998,1867.0
384.583999998,1863.0
384.584999998,1866.0
384.585999998,1867.0
384.586999998,1873.0
384.587999998,1854.0
384.588999998,1854.0
384.589999998,1843.0
384.590999998,1852.0
384.591999998,1851.0
384.592999998,1855.0
384.593999998,1844.0
384.594999998,1846.0
384.595999998,1831.0
384.596999998,1842.0
384.597999998,1845.0
384.598999998,1859.0
384.599999998,1866.0
384.600999998,1879.0
384.601999998,1877.0
384.602999998,1869.0
384.603999998,1886.0
384.604999998,1887.0
384.605999998,1897.0
384.606999998,1915.0
384.607999998,1919.0
384.608999998,1937.0
384.609999998,1949.0
384.610999998,1960.0
384.611999998,1984.0
384.612999998,1997.0
384.613999998,2018.0
384.614999998,2032.0
384.615999998,2040.0
384.616999998,2057.0
384.617999998,2065.0
384.618999998,2078.0
384.619999998,2094.0
384.620999998,2105.0
384.621999998,2112.0
384.622999998,2129.0
384.623999998,2144.0
384.624999998,2143.0
384.625999998,2145.0
384.626999998,2146.0
384.627999998,2164.0
384.628999998,2170.0
384.629999998,2164.0
384.630999998,2172.0
384.631999998,2182.0
384.632999998,2186.0
384.633999998,2182.0
384.634999998,2181.0
384.635999998,2160.0
384.636999998,2184.0
384.637999998,2190.0
384.638999998,2182.0
384.639999998,2176.0
384.640999998,2183.0
384.641999998,2180.0
384.642999998,2178.0
384.643999998,2185.0
384.644999998,2191.0
384.645999998,2179.0
384.646999998,2172.0
384.647999998,2167.0
384.648999998,2167.0
384.649999998,2145.0
384.650999998,2146.0
384.651999998,2147.0
384.652999998,2150.0
384.653999998,2132.0
384.654999998,2140.0
384.655999998,2133.0
384.656999998,2141.0
384.657999998,2122.0
384.658999998,2125.0
384.659999998,2128.0
384.660999998,2124.0
384.661999998,2134.0
384.662999998,2129.0
384.663999998,2120.0
384.664999998,2113.0
384.665999998,2103.0
384.666999998,2113.0
384.667999998,2114.0
384.668999998,2120.0
384.669999998,2106.0
384.670999998,2101.0
384.671999998,2092.0
384.672999998,2094.0
384.673999998,2079.0
384.674999998,2089.0
384.675999998,2092.0
384.676999998,2095.0
384.677999998,2088.0
384.678999998,2075.0
384.679999998,2077.0
384.680999998,2077.0
384.681999998,2070.0
384.682999998,2072.0
384.683999998,2079.0
384.684999998,2068.0
384.685999998,2080.0
384.686999998,2080.0
384.687999998,2075.0
384.688999998,2074.0
384.689999998,2071.0
384.690999998,2071.0
384.691999998,2074.0
384.692999998,2071.0
384.693999998,2070.0
384.694999998,2063.0
384.695999998,2063.0
384.696999998,2060.0
384.697999998,2057.0
384.698999998,2068.0
384.699999998,2061.0
384.700999998,2069.0
384.701999998,2067.0
384.702999998,2068.0
384.703999998,2066.0
384.704999998,2065.0
384.705999998,2065.0
384.706999998,2064.0
384.707999998,2067.0
384.708999998,2070.0
384.709999998,2065.0
384.710999998,2057.0
384.711999998,2057.0
384.712999998,2060.0
384.713999998,2073.0
384.714999998,2067.0
384.715999998,2064.0
384.716999998,2066.0
384.717999998,2061.0
384.718999998,2061.0
384.719999998,2062.0
384.720999998,2054.0
384.721999998,2059.0
384.722999998,2046.0
384.723999998,2057.0
384.724999998,2069.0
384.725999998,2072.0
384.726999998,2056.0
384.727999998,2057.0
384.728999998,2058.0
384.729999998,2063.0
384.730999998,2077.0
384.731999998,2075.0
384.732999998,2086.0
384.733999998,2068.0
384.734999998,2073.0
384.735999998,2068.0
384.736999998,2058.0
384.737999998,2055.0
384.738999998,2066.0
384.739999998,2071.0
384.740999998,2063.0
384.741999998,2062.0
384.742999998,2053.0
384.743999998,2049.0
384.744999998,2059.0
384.745999998,2052.0
384.746999998,2061.0
384.747999998,2061.0
384.748999998,2067.0
384.749999998,2048.0
384.750999998,2051.0
384.751999998,2040.0
384.752999998,2050.0
384.753999998,2045.0
384.754999998,2047.0
384.755999998,2051.0
384.756999998,2045.0
384.757999998,2043.0
384.758999998,2039.0
384.759999998,2030.0
384.760999998,2042.0
384.761999998,2040.0
384.762999998,2042.0
384.763999998,2045.0
384.764999998,2040.0
384.765999998,2040.0
384.766999998,2035.0
384.767999998,2036.0
384.768999998,2033.0
384.769999998,2034.0
384.770999998,2039.0
384.771999998,2034.0
384.772999998,2035.0
384.773999998,2037.0
384.774999998,2031.0
384.775999998,2026.0
384.776999998,2043.0
384.777999998,2026.0
384.778999998,2035.0
384.779999998,2046.0
384.780999998,2041.0
384.781999998,2040.0
384.782999998,2040.0
384.783999998,2054.0
384.784999998,2026.0
384.785999998,2004.0
384.786999998,2023.0
384.787999998,2015.0
384.788999998,2020.0
384.789999998,2004.0
384.790999998,1993.0
384.791999998,1993.0
384.792999998,1990.0
384.793999998,2011.0
384.794999998,2016.0
384.795999998,2024.0
384.796999998,2010.0
384.797999998,2009.0
384.798999998,1997.0
384.799999998,2023.0
384.800999998,2024.0
384.801999998,2021.0
384.802999998,2027.0
384.803999998,2021.0
384.804999998,2028.0
384.805999998,2038.0
384.806999998,2029.0
384.807999998,2055.0
384.808999998,2022.0
384.809999998,2044.0
384.810999998,2024.0
384.811999998,2044.0
384.812999998,2066.0
384.813999998,2050.0
384.814999998,2042.0
384.815999998,2052.0
384.816999998,2054.0
384.817999998,2043.0
384.818999998,2039.0
384.819999998,2032.0
384.820999998,2036.0
384.821999998,2023.0
384.822999998,2024.0
384.823999998,2030.0
384.824999998,2040.0
384.825999998,2039.0
384.826999998,2040.0
384.827999998,2029.0
384.828999998,2041.0
384.829999998,2034.0
384.830999998,2031.0
384.831999998,2033.0
384.832999998,2035.0
384.833999998,2038.0
384.834999998,2028.0
384.835999998,2016.0
384.836999998,2021.0
384.837999998,2006.0
384.838999998,2011.0
384.839999998,2010.0
384.840999998,1993.0
384.841999998,1964.0
384.842999998,1898.0
384.843999998,1783.0
384.844999998,1685.0
384.845999998,1645.0
384.846999998,1778.0
384.847999998,2026.0
384.848999998,2273.0
384.849999998,2533.0
384.850999998,2653.0
384.851999998,2745.0
384.852999998,2830.0
384.853999998,2847.0
384.854999998,2878.0
384.855999998,2849.0
384.856999998,2735.0
384.857999998,2551.0
384.858999998,2469.0
384.859999998,2393.0
384.860999998,2329.0
384.861999998,2244.0
384.862999998,2188.0
384.863999998,2123.0
384.864999998,2051.0
384.865999998,1963.0
384.866999998,1890.0
384.867999998,1827.0
384.868999998,1794.0
384.869999998,1763.0
384.870999998,1755.0
384.871999998,1753.0
384.872999998,1769.0
384.873999998,1772.0
384.874999998,1765.0
384.875999998,1767.0
384.876999998,1769.0
384.877999998,1776.0
384.878999998,1790.0
384.879999998,1815.0
384.880999998,1805.0
384.881999998,1813.0
384.882999998,1816.0
384.883999998,1810.0
384.884999998,1810.0
384.885999998,1823.0
384.886999998,1829.0
384.887999998,1830.0
384.888999998,1842.0
384.889999998,1834.0
384.890999998,1835.0
384.891999998,1844.0
384.892999998,1855.0
384.893999998,1852.0
384.894999998,1856.0
384.895999998,1865.0
384.896999998,1861.0
384.897999998,1855.0
384.898999998,1860.0
384.899999998,1852.0
384.900999998,1874.0
384.901999998,1868.0
384.902999998,1868.0
384.903999998,1867.0
384.904999998,1866.0
384.905999998,1870.0
384.906999998,1856.0
384.907999998,1859.0
384.908999998,1866.0
384.909999998,1867.0
384.910999998,1861.0
384.911999998,1859.0
384.912999998,1857.0
384.913999998,1846.0
384.914999998,1850.0
384.915999998,1829.0
384.916999998,1849.0
384.917999998,1840.0
384.918999998,1833.0
384.919999998,1836.0
384.920999998,1844.0
384.921999998,1839.0
384.922999998,1838.0
384.923999998,1843.0
384.924999998,1852.0
384.925999998,1862.0
384.926999998,1859.0
384.927999998,1866.0
384.928999998,1880.0
384.929999998,1877.0
384.930999998,1881.0
384.931999998,1891.0
384.932999998,1908.0
384.933999998,1911.0
384.934999998,1927.0
384.935999998,1935.0
384.936999998,1947.0
384.937999998,1959.0
384.938999998,1979.0
384.939999998,1995.0
384.940999998,2016.0
384.941999998,2032.0
384.942999998,2050.0
384.943999998,2064.0
384.944999998,2073.0
384.945999998,2076.0
384.946999998,2085.0
384.947999998,2094.0
384.948999998,2114.0
384.949999998,2113.0
384.950999998,2120.0
384.951999998,2129.0
384.952999998,2134.0
384.953999998,2131.0
384.954999998,2142.0
384.955999998,2142.0
384.956999998,2160.0
384.957999998,2159.0
384.958999998,2164.0
384.959999998,2165.0
384.960999998,2172.0
384.961999998,2159.0
384.962999998,2160.0
384.963999998,2167.0
384.964999998,2171.0
384.965999998,2171.0
384.966999998,2158.0
384.967999998,2155.0
384.968999998,2162.0
384.969999998,2149.0
384.970999998,2152.0
384.971999998,2148.0
384.972999998,2155.0
384.973999998,2152.0
384.974999998,2158.0
384.975999998,2142.0
384.976999998,2142.0
384.977999998,2136.0
384.978999998,2133.0
384.979999998,2135.0
384.980999998,2134.0
384.981999998,2136.0
384.982999998,2125.0
384.983999998,2120.0
384.984999998,2114.0
384.985999998,2113.0
384.986999998,2115.0
384.987999998,2119.0
384.988999998,2112.0
384.989999998,2123.0
384.990999998,2114.0
384.991999998,2094.0
384.992999998,2100.0
384.993999998,2083.0
384.994999998,2085.0
384.995999998,2086.0
384.996999998,2095.0
384.997999998,2090.0
384.998999998,2075.0
384.999999998,2075.0
385.000999998,2066.0
385.001999998,2057.0
385.002999998,2067.0
385.003999998,2065.0
385.004999998,2069.0
385.005999998,2060.0
385.006999998,2063.0
385.007999998,2049.0
385.008999998,2056.0
385.009999998,2045.0
385.010999998,2049.0
385.011999998,2053.0
385.012999998,2053.0
385.013999998,2042.0
385.014999998,2047.0
385.015999998,2037.0
385.016999998,2036.0
385.017999998,2043.0
385.018999998,2045.0
385.019999998,2042.0
385.020999998,2046.0
385.021999998,2046.0
385.022999998,2051.0
385.023999998,2039.0
385.024999998,2041.0
385.025999998,2053.0
385.026999998,2054.0
385.027999998,2052.0
385.028999998,2059.0
385.029999998,2048.0
385.030999998,2056.0
385.031999998,2045.0
385.032999998,2053.0
385.033999998,2060.0
385.034999998,2063.0
385.035999998,2061.0
385.036999998,2066.0
385.037999998,2052.0
385.038999998,2045.0
385.039999998,2049.0
385.040999998,2044.0
385.041999998,2052.0
385.042999998,2048.0
385.043999998,2058.0
385.044999998,2055.0
385.045999998,2045.0
385.046999998,2049.0
385.047999998,2037.0
385.048999998,2047.0
385.049999998,2047.0
385.050999998,2052.0
385.051999998,2047.0
385.052999998,2056.0
385.053999998,2056.0
385.054999998,2049.0
385.055999998,2048.0
385.056999998,2056.0
385.057999998,2053.0
385.058999998,2041.0
385.059999998,2044.0
385.060999998,2055.0
385.061999998,2044.0
385.062999998,2046.0
385.063999998,2046.0
385.064999998,2039.0
385.065999998,2045.0
385.066999998,2050.0
385.067999998,2044.0
385.068999998,2041.0
385.069999998,2041.0
385.070999998,2030.0
385.071999998,2026.0
385.072999998,2028.0
385.073999998,2034.0
385.074999998,2029.0
385.075999998,2039.0
385.076999998,2043.0
385.077999998,2042.0
385.078999998,2029.0
385.079999998,2027.0
385.080999998,2026.0
385.081999998,2033.0
385.082999998,2032.0
385.083999998,2034.0
385.084999998,2033.0
385.085999998,2032.0
385.086999998,2023.0
385.087999998,2024.0
385.088999998,2042.0
385.089999998,2045.0
385.090999998,2048.0
385.091999998,2032.0
385.092999998,2032.0
385.093999998,2031.0
385.094999998,2035.0
385.095999998,2025.0
385.096999998,2046.0
385.097999998,2045.0
385.098999998,2043.0
385.099999998,2039.0
385.100999998,2045.0
385.101999998,2026.0
385.102999998,2036.0
385.103999998,2028.0
385.104999998,2030.0
385.105999998,2034.0
385.106999998,2046.0
385.107999998,2028.0
385.108999998,2035.0
385.109999998,2034.0
385.110999998,2029.0
385.111999998,2030.0
385.112999998,2035.0
385.113999998,2044.0
385.114999998,2043.0
385.115999998,2047.0
385.116999998,2041.0
385.117999998,2042.0
385.118999998,2035.0
385.119999998,2030.0
385.120999998,2046.0
385.121999998,2031.0
385.122999998,2033.0
385.123999998,2030.0
385.124999998,2038.0
385.125999998,2027.0
385.126999998,2027.0
385.127999998,2027.0
385.128999998,2041.0
385.129999998,2026.0
385.130999998,2028.0
385.131999998,2026.0
385.132999998,2027.0
385.133999998,2023.0
385.134999998,2014.0
385.135999998,2016.0
385.136999998,2019.0
385.137999998,2020.0
385.138999998,2044.0
385.139999998,2011.0
385.140999998,2011.0
385.141999998,1994.0
385.142999998,1997.0
385.143999998,2004.0
385.144999998,2013.0
385.145999998,2026.0
385.146999998,2021.0
385.147999998,2018.0
385.148999998,2004.0
385.149999998,2010.0
385.150999998,2022.0
385.151999998,2021.0
385.152999998,2040.0
385.153999998,2041.0
385.154999998,2036.0
385.155999998,2034.0
385.156999998,2045.0
385.157999998,2047.0
385.158999998,2054.0
385.159999998,2059.0
385.160999998,2062.0
385.161999998,2066.0
385.162999998,2071.0
385.163999998,2054.0
385.164999998,2064.0
385.165999998,2048.0
385.166999998,2058.0
385.167999998,2059.0
385.168999998,2042.0
385.169999998,2056.0
385.170999998,2049.0
385.171999998,2037.0
385.172999998,2033.0
385.173999998,2036.0
385.174999998,2045.0
385.175999998,2047.0
385.176999998,2056.0
385.177999998,2057.0
385.178999998,2051.0
385.179999998,2042.0
385.180999998,2030.0
385.181999998,2034.0
385.182999998,2044.0
385.183999998,2046.0
385.184999998,2044.0
385.185999998,2035.0
385.186999998,2025.0
385.187999998,2007.0
385.188999998,2018.0
385.189999998,2031.0
385.190999998,2023.0
385.191999998,1988.0
385.192999998,1916.0
385.193999998,1815.0
385.194999998,1725.0
385.195999998,1677.0
385.196999998,1777.0
385.197999998,2007.0
385.198999998,2257.0
385.199999998,2506.0
385.200999998,2636.0
385.201999998,2730.0
385.202999998,2826.0
385.203999998,2851.0
385.204999998,2862.0
385.205999998,2835.0
385.206999998,2728.0
385.207999998,2536.0
385.208999998,2440.0
385.209999998,2351.0
385.210999998,2312.0
385.211999998,2241.0
385.212999998,2180.0
385.213999998,2126.0
385.214999998,2062.0
385.215999998,1979.0
385.216999998,1902.0
385.217999998,1835.0
385.218999998,1806.0
385.219999998,1768.0
385.220999998,1766.0
385.221999998,1765.0
385.222999998,1777.0
385.223999998,1779.0
385.224999998,1781.0
385.225999998,1771.0
385.226999998,1761.0
385.227999998,1765.0
385.228999998,1783.0
385.229999998,1789.0
385.230999998,1801.0
385.231999998,1806.0
385.232999998,1804.0
385.233999998,1804.0
385.234999998,1808.0
385.235999998,1805.0
385.236999998,1818.0
385.237999998,1832.0
385.238999998,1839.0
385.239999998,1846.0
385.240999998,1847.0
385.241999998,1845.0
385.242999998,1850.0
385.243999998,1851.0
385.244999998,1871.0
385.245999998,1856.0
385.246999998,1866.0
385.247999998,1870.0
385.248999998,1865.0
385.249999998,1860.0
385.250999998,1828.0
385.251999998,1862.0
385.252999998,1871.0
385.253999998,1871.0
385.254999998,1868.0
385.255999998,1867.0
385.256999998,1875.0
385.257999998,1874.0
385.258999998,1868.0
385.259999998,1856.0
385.260999998,1861.0
385.261999998,1858.0
385.262999998,1862.0
385.263999998,1861.0
385.264999998,1847.0
385.265999998,1853.0
385.266999998,1836.0
385.267999998,1885.0
385.268999998,1846.0
385.269999998,1843.0
385.270999998,1866.0
385.271999998,1879.0
385.272999998,1866.0
385.273999998,1856.0
385.274999998,1867.0
385.275999998,1869.0
385.276999998,1875.0
385.277999998,1877.0
385.278999998,1881.0
385.279999998,1885.0
385.280999998,1905.0
385.281999998,1897.0
385.282999998,1908.0
385.283999998,1913.0
385.284999998,1944.0
385.285999998,1964.0
385.286999998,1968.0
385.287999998,1973.0
385.288999998,1987.0
385.289999998,1996.0
385.290999998,2016.0
385.291999998,2035.0
385.292999998,2047.0
385.293999998,2066.0
385.294999998,2089.0
385.295999998,2087.0
385.296999998,2094.0
385.297999998,2107.0
385.298999998,2127.0
385.299999998,2139.0
385.300999998,2147.0
385.301999998,2157.0
385.302999998,2158.0
385.303999998,2166.0
385.304999998,2163.0
385.305999998,2162.0
385.306999998,2176.0
385.307999998,2179.0
385.308999998,2195.0
385.309999998,2191.0
385.310999998,2194.0
385.311999998,2189.0
385.312999998,2185.0
385.313999998,2187.0
385.314999998,2188.0
385.315999998,2191.0
385.316999998,2193.0
385.317999998,2181.0
385.318999998,2185.0
385.319999998,2180.0
385.320999998,2175.0
385.321999998,2174.0
385.322999998,2183.0
385.323999998,2184.0
385.324999998,2179.0
385.325999998,2178.0
385.326999998,2168.0
385.327999998,2157.0
385.328999998,2157.0
385.329999998,2164.0
385.330999998,2161.0
385.331999998,2154.0
385.332999998,2163.0
385.333999998,2152.0
385.334999998,2157.0
385.335999998,2142.0
385.336999998,2133.0
385.337999998,2140.0
385.338999998,2136.0
385.339999998,2121.0
385.340999998,2129.0
385.341999998,2123.0
385.342999998,2126.0
385.343999998,2109.0
385.344999998,2108.0
385.345999998,2107.0
385.346999998,2108.0
385.347999998,2095.0
385.348999998,2100.0
385.349999998,2096.0
385.350999998,2093.0
385.351999998,2091.0
385.352999998,2087.0
385.353999998,2087.0
385.354999998,2091.0
385.355999998,2085.0
385.356999998,2089.0
385.357999998,2086.0
385.358999998,2081.0
385.359999998,2074.0
385.360999998,2069.0
385.361999998,2074.0
385.362999998,2076.0
385.363999998,2074.0
385.364999998,2078.0
385.365999998,2080.0
385.366999998,2081.0
385.367999998,2079.0
385.368999998,2091.0
385.369999998,2083.0
385.370999998,2082.0
385.371999998,2082.0
