430.429999997,2708.0
430.430999997,2614.0
430.431999997,2504.0
430.432999997,2428.0
430.433999997,2377.0
430.434999997,2437.0
430.435999997,2427.0
430.436999997,2431.0
430.437999997,2374.0
430.438999997,2248.0
430.439999997,2172.0
430.440999997,2130.0
430.441999997,2137.0
430.442999997,2245.0
430.443999997,2302.0
430.444999997,2331.0
430.445999997,2308.0
430.446999997,2248.0
430.447999997,2221.0
430.448999997,2176.0
430.449999997,2208.0
430.450999997,2292.0
430.451999997,2338.0
430.452999997,2403.0
430.453999997,2368.0
430.454999997,2337.0
430.455999997,2313.0
430.456999997,2274.0
430.457999997,2296.0
430.458999997,2374.0
430.459999997,2414.0
430.460999997,2429.0
430.461999997,2400.0
430.462999997,2357.0
430.463999997,2324.0
430.464999997,2311.0
430.465999997,2348.0
430.466999997,2409.0
430.467999997,2457.0
430.468999997,2461.0
430.469999997,2422.0
430.470999997,2388.0
430.471999997,2347.0
430.472999997,2339.0
430.473999997,2382.0
430.474999997,2436.0
430.475999997,2473.0
430.476999997,2467.0
430.477999997,2416.0
430.478999997,2373.0
430.479999997,2309.0
430.480999997,2293.0
430.481999997,2328.0
430.482999997,2363.0
430.483999997,2399.0
430.484999997,2370.0
430.485999997,2328.0
430.486999997,2289.0
430.487999997,2238.0
430.488999997,2250.0
430.489999997,2274.0
430.490999997,2306.0
430.491999997,2333.0
430.492999997,2310.0
430.493999997,2287.0
430.494999997,2264.0
430.495999997,2225.0
430.496999997,2257.0
430.497999997,2292.0
430.498999997,2323.0
430.499999997,2353.0
430.500999997,2318.0
430.501999997,2296.0
430.502999997,2261.0
430.503999997,2227.0
430.504999997,2261.0
430.505999997,2281.0
430.506999997,2327.0
430.507999997,2346.0
430.508999997,2324.0
430.509999997,2362.0
430.510999997,2401.0
430.511999997,2450.0
430.512999997,2596.0
430.513999997,2667.0
430.514999997,2630.0
430.515999997,2462.0
430.516999997,2218.0
430.517999997,1981.0
430.518999997,1766.0
430.519999997,1614.0
430.520999997,1569.0
430.521999997,1537.0
430.522999997,1538.0
430.523999997,1489.0
430.524999997,1451.0
430.525999997,1496.0
430.526999997,1536.0
430.527999997,1587.0
430.528999997,1683.0
430.529999997,1724.0
430.530999997,1790.0
430.531999997,1820.0
430.532999997,1832.0
430.533999997,1874.0
430.534999997,1903.0
430.535999997,2003.0
430.536999997,2089.0
430.537999997,2124.0
430.538999997,2158.0
430.539999997,2137.0
430.540999997,2110.0
430.541999997,2075.0
430.542999997,2022.0
430.543999997,2036.0
430.544999997,2054.0
430.545999997,2067.0
430.546999997,2057.0
430.547999997,2021.0
430.548999997,1978.0
430.549999997,1939.0
430.550999997,1909.0
430.551999997,1938.0
430.552999997,1958.0
430.553999997,1973.0
430.554999997,1956.0
430.555999997,1917.0
430.556999997,1880.0
430.557999997,1833.0
430.558999997,1807.0
430.559999997,1841.0
430.560999997,1852.0
430.561999997,1864.0
430.562999997,1837.0
430.563999997,1789.0
430.564999997,1762.0
430.565999997,1702.0
430.566999997,1707.0
430.567999997,1743.0
430.568999997,1752.0
430.569999997,1769.0
430.570999997,1735.0
430.571999997,1709.0
430.572999997,1681.0
430.573999997,1641.0
430.574999997,1671.0
430.575999997,1699.0
430.576999997,1719.0
430.577999997,1730.0
430.578999997,1688.0
430.579999997,1667.0
430.580999997,1634.0
430.581999997,1614.0
430.582999997,1643.0
430.583999997,1658.0
430.584999997,1685.0
430.585999997,1667.0
430.586999997,1630.0
430.587999997,1619.0
430.588999997,1573.0
430.589999997,1554.0
430.590999997,1600.0
430.591999997,1622.0
430.592999997,1635.0
430.593999997,1625.0
430.594999997,1585.0
430.595999997,1569.0
430.596999997,1533.0
430.597999997,1523.0
430.598999997,1562.0
430.599999997,1552.0
430.600999997,1579.0
430.601999997,1542.0
430.602999997,1491.0
430.603999997,1477.0
430.604999997,1424.0
430.605999997,1414.0
430.606999997,1439.0
430.607999997,1447.0
430.608999997,1446.0
430.609999997,1399.0
430.610999997,1353.0
430.611999997,1312.0
430.612999997,1275.0
430.613999997,1281.0
430.614999997,1317.0
430.615999997,1327.0
430.616999997,1323.0
430.617999997,1287.0
430.618999997,1252.0
430.619999997,1233.0
430.620999997,1210.0
430.621999997,1235.0
430.622999997,1254.0
430.623999997,1277.0
430.624999997,1277.0
430.625999997,1226.0
430.626999997,1214.0
430.627999997,1191.0
430.628999997,1188.0
430.629999997,1220.0
430.630999997,1246.0
430.631999997,1264.0
430.632999997,1254.0
430.633999997,1227.0
430.634999997,1203.0
430.635999997,1187.0
430.636999997,1187.0
430.637999997,1233.0
430.638999997,1248.0
430.639999997,1267.0
430.640999997,1258.0
430.641999997,1238.0
430.642999997,1212.0
430.643999997,1201.0
430.644999997,1227.0
430.645999997,1263.0
430.646999997,1299.0
430.647999997,1317.0
430.648999997,1290.0
430.649999997,1277.0
430.650999997,1253.0
430.651999997,1240.0
430.652999997,1268.0
430.653999997,1309.0
430.654999997,1348.0
430.655999997,1352.0
430.656999997,1335.0
430.657999997,1323.0
430.658999997,1291.0
430.659999997,1297.0
430.660999997,1343.0
430.661999997,1389.0
430.662999997,1416.0
430.663999997,1427.0
430.664999997,1417.0
430.665999997,1412.0
430.666999997,1375.0
430.667999997,1387.0
430.668999997,1437.0
430.669999997,1454.0
430.670999997,1500.0
430.671999997,1482.0
430.672999997,1453.0
430.673999997,1448.0
430.674999997,1421.0
430.675999997,1437.0
430.676999997,1488.0
430.677999997,1508.0
430.678999997,1540.0
430.679999997,1527.0
430.680999997,1495.0
430.681999997,1478.0
430.682999997,1444.0
430.683999997,1480.0
430.684999997,1528.0
430.685999997,1547.0
430.686999997,1578.0
430.687999997,1548.0
430.688999997,1537.0
430.689999997,1519.0
430.690999997,1490.0
430.691999997,1532.0
430.692999997,1561.0
430.693999997,1593.0
430.694999997,1604.0
430.695999997,1587.0
430.696999997,1572.0
430.697999997,1552.0
430.698999997,1534.0
430.699999997,1530.0
430.700999997,1592.0
430.701999997,1614.0
430.702999997,1594.0
430.703999997,1613.0
430.704999997,1597.0
430.705999997,1581.0
430.706999997,1564.0
430.707999997,1597.0
430.708999997,1667.0
430.709999997,1669.0
430.710999997,1660.0
430.711999997,1652.0
430.712999997,1617.0
430.713999997,1604.0
430.714999997,1599.0
430.715999997,1652.0
430.716999997,1666.0
430.717999997,1687.0
430.718999997,1693.0
430.719999997,1658.0
430.720999997,1647.0
430.721999997,1615.0
430.722999997,1632.0
430.723999997,1674.0
430.724999997,1707.0
430.725999997,1730.0
430.726999997,1719.0
430.727999997,1693.0
430.728999997,1670.0
430.729999997,1653.0
430.730999997,1669.0
430.731999997,1698.0
430.732999997,1730.0
430.733999997,1749.0
430.734999997,1735.0
430.735999997,1716.0
430.736999997,1698.0
430.737999997,1684.0
430.738999997,1717.0
430.739999997,1745.0
430.740999997,1782.0
430.741999997,1777.0
430.742999997,1760.0
430.743999997,1737.0
430.744999997,1711.0
430.745999997,1710.0
430.746999997,1737.0
430.747999997,1760.0
430.748999997,1793.0
430.749999997,1787.0
430.750999997,1766.0
430.751999997,1757.0
430.752999997,1720.0
430.753999997,1728.0
430.754999997,1755.0
430.755999997,1771.0
430.756999997,1813.0
430.757999997,1798.0
430.758999997,1782.0
430.759999997,1768.0
430.760999997,1735.0
430.761999997,1756.0
430.762999997,1791.0
430.763999997,1811.0
430.764999997,1843.0
430.765999997,1839.0
430.766999997,1818.0
430.767999997,1802.0
430.768999997,1777.0
430.769999997,1799.0
430.770999997,1833.0
430.771999997,1852.0
430.772999997,1870.0
430.773999997,1850.0
430.774999997,1832.0
430.775999997,1816.0
430.776999997,1795.0
430.777999997,1826.0
430.778999997,1849.0
430.779999997,1869.0
430.780999997,1885.0
430.781999997,1862.0
430.782999997,1860.0
430.783999997,1831.0
430.784999997,1816.0
430.785999997,1847.0
430.786999997,1860.0
430.787999997,1888.0
430.788999997,1892.0
430.789999997,1868.0
430.790999997,1860.0
430.791999997,1834.0
430.792999997,1834.0
430.793999997,1867.0
430.794999997,1878.0
430.795999997,1910.0
430.796999997,1910.0
430.797999997,1889.0
430.798999997,1878.0
430.799999997,1863.0
430.800999997,1884.0
430.801999997,1910.0
430.802999997,1929.0
430.803999997,1945.0
430.804999997,1927.0
430.805999997,1917.0
430.806999997,1891.0
430.807999997,1885.0
430.808999997,1895.0
430.809999997,1912.0
430.810999997,1943.0
430.811999997,1934.0
430.812999997,1916.0
430.813999997,1895.0
430.814999997,1883.0
430.815999997,1860.0
430.816999997,1885.0
430.817999997,1900.0
430.818999997,1920.0
430.819999997,1916.0
430.820999997,1893.0
430.821999997,1882.0
430.822999997,1861.0
430.823999997,1858.0
430.824999997,1894.0
430.825999997,1910.0
430.826999997,1935.0
430.827999997,1944.0
430.828999997,1927.0
430.829999997,1916.0
430.830999997,1890.0
430.831999997,1899.0
430.832999997,1930.0
430.833999997,1936.0
430.834999997,1964.0
430.835999997,1950.0
430.836999997,1921.0
430.837999997,1913.0
430.838999997,1884.0
430.839999997,1897.0
430.840999997,1921.0
430.841999997,1932.0
430.842999997,1951.0
430.843999997,1950.0
430.844999997,1939.0
430.845999997,1934.0
430.846999997,1915.0
430.847999997,1933.0
430.848999997,1971.0
430.849999997,2001.0
430.850999997,2050.0
430.851999997,2108.0
430.852999997,2183.0
430.853999997,2276.0
430.854999997,2323.0
430.855999997,2319.0
430.856999997,2153.0
430.857999997,1952.0
430.858999997,1719.0
430.859999997,1509.0
430.860999997,1377.0
430.861999997,1247.0
430.862999997,1193.0
430.863999997,1215.0
430.864999997,1213.0
430.865999997,1276.0
430.866999997,1357.0
430.867999997,1427.0
430.868999997,1491.0
430.869999997,1532.0
430.870999997,1601.0
430.871999997,1710.0
430.872999997,1786.0
430.873999997,1877.0
430.874999997,1943.0
430.875999997,2009.0
430.876999997,2083.0
430.877999997,2112.0
430.878999997,2161.0
430.879999997,2222.0
430.880999997,2231.0
430.881999997,2255.0
430.882999997,2239.0
430.883999997,2209.0
430.884999997,2212.0
430.885999997,2194.0
430.886999997,2208.0
430.887999997,2248.0
430.888999997,2260.0
430.889999997,2281.0
430.890999997,2259.0
430.891999997,2225.0
430.892999997,2211.0
430.893999997,2190.0
430.894999997,2213.0
430.895999997,2229.0
430.896999997,2248.0
430.897999997,2242.0
430.898999997,2218.0
430.899999997,2191.0
430.900999997,2154.0
430.901999997,2155.0
430.902999997,2182.0
430.903999997,2198.0
430.904999997,2212.0
430.905999997,2207.0
430.906999997,2177.0
430.907999997,2155.0
430.908999997,2129.0
430.909999997,2140.0
430.910999997,2165.0
430.911999997,2178.0
430.912999997,2193.0
430.913999997,2184.0
430.914999997,2173.0
430.915999997,2148.0
430.916999997,2126.0
430.917999997,2147.0
430.918999997,2179.0
430.919999997,2208.0
430.920999997,2211.0
430.921999997,2206.0
430.922999997,2194.0
430.923999997,2172.0
430.924999997,2164.0
430.925999997,2199.0
430.926999997,2216.0
430.927999997,2242.0
430.928999997,2244.0
430.929999997,2222.0
430.930999997,2210.0
430.931999997,2179.0
430.932999997,2161.0
430.933999997,2187.0
430.934999997,2208.0
430.935999997,2232.0
430.936999997,2225.0
430.937999997,2183.0
430.938999997,2172.0
430.939999997,2134.0
430.940999997,2111.0
430.941999997,2141.0
430.942999997,2153.0
430.943999997,2164.0
430.944999997,2135.0
430.945999997,2088.0
430.946999997,2071.0
430.947999997,2016.0
430.948999997,1999.0
430.949999997,2029.0
430.950999997,2028.0
430.951999997,2041.0
430.952999997,2012.0
430.953999997,1971.0
430.954999997,1932.0
430.955999997,1890.0
430.956999997,1882.0
430.957999997,1909.0
430.958999997,1919.0
430.959999997,1926.0
430.960999997,1898.0
430.961999997,1864.0
430.962999997,1833.0
430.963999997,1800.0
430.964999997,1808.0
430.965999997,1838.0
430.966999997,1852.0
430.967999997,1855.0
430.968999997,1836.0
430.969999997,1807.0
430.970999997,1787.0
430.971999997,1771.0
430.972999997,1800.0
430.973999997,1829.0
430.974999997,1848.0
430.975999997,1855.0
430.976999997,1836.0
430.977999997,1832.0
430.978999997,1800.0
430.979999997,1792.0
430.980999997,1821.0
430.981999997,1847.0
430.982999997,1883.0
430.983999997,1879.0
430.984999997,1863.0
430.985999997,1849.0
430.986999997,1831.0
430.987999997,1820.0
430.988999997,1865.0
430.989999997,1893.0
430.990999997,1914.0
430.991999997,1906.0
430.992999997,1882.0
430.993999997,1874.0
430.994999997,1845.0
430.995999997,1865.0
430.996999997,1885.0
430.997999997,1917.0
430.998999997,1935.0
430.999999997,1929.0
431.000999997,1914.0
431.001999997,1902.0
431.002999997,1876.0
431.003999997,1888.0
431.004999997,1917.0
431.005999997,1954.0
431.006999997,1966.0
431.007999997,1946.0
431.008999997,1934.0
431.009999997,1910.0
431.010999997,1895.0
431.011999997,1926.0
431.012999997,1945.0
431.013999997,1978.0
431.014999997,1977.0
431.015999997,1962.0
431.016999997,1953.0
431.017999997,1922.0
431.018999997,1902.0
431.019999997,1942.0
431.020999997,1945.0
431.021999997,1985.0
431.022999997,1986.0
431.023999997,1970.0
431.024999997,1957.0
431.025999997,1929.0
431.026999997,1943.0
431.027999997,1962.0
431.028999997,1984.0
431.029999997,2017.0
431.030999997,2003.0
431.031999997,1976.0
431.032999997,1967.0
431.033999997,1935.0
431.034999997,1947.0
431.035999997,1980.0
431.036999997,1998.0
431.037999997,2023.0
431.038999997,2012.0
431.039999997,1988.0
431.040999997,1981.0
431.041999997,1953.0
431.042999997,1960.0
431.043999997,1996.0
431.044999997,2023.0
431.045999997,2036.0
431.046999997,2015.0
431.047999997,1992.0
431.048999997,1980.0
431.049999997,1961.0
431.050999997,1980.0
431.051999997,1995.0
431.052999997,1996.0
431.053999997,2015.0
431.054999997,1988.0
431.055999997,1974.0
431.056999997,1953.0
431.057999997,1937.0
431.058999997,1971.0
431.059999997,1990.0
431.060999997,2009.0
431.061999997,2013.0
431.062999997,1996.0
431.063999997,1971.0
431.064999997,1951.0
431.065999997,1948.0
431.066999997,1984.0
431.067999997,2000.0
431.068999997,2017.0
431.069999997,2009.0
431.070999997,1991.0
431.071999997,1985.0
431.072999997,1964.0
431.073999997,1963.0
431.074999997,1993.0
431.075999997,2005.0
431.076999997,2025.0
431.077999997,2011.0
431.078999997,2004.0
431.079999997,1991.0
431.080999997,1982.0
431.081999997,1987.0
431.082999997,2019.0
431.083999997,2035.0
431.084999997,2040.0
431.085999997,2030.0
431.086999997,2017.0
431.087999997,1987.0
431.088999997,1975.0
431.089999997,1990.0
431.090999997,2012.0
431.091999997,2028.0
431.092999997,2027.0
431.093999997,2010.0
431.094999997,1995.0
431.095999997,1983.0
431.096999997,1978.0
431.097999997,2011.0
431.098999997,2024.0
431.099999997,2050.0
431.100999997,2042.0
431.101999997,2020.0
431.102999997,2023.0
431.103999997,1991.0
431.104999997,1994.0
431.105999997,2026.0
431.106999997,2047.0
431.107999997,2061.0
431.108999997,2048.0
431.109999997,2032.0
431.110999997,2016.0
431.111999997,1991.0
431.112999997,1997.0
431.113999997,2032.0
431.114999997,2039.0
431.115999997,2055.0
431.116999997,2038.0
431.117999997,2012.0
431.118999997,1999.0
431.119999997,1982.0
431.120999997,2013.0
431.121999997,2039.0
431.122999997,2052.0
431.123999997,2054.0
431.124999997,2036.0
431.125999997,2027.0
431.126999997,2022.0
431.127999997,2007.0
431.128999997,2023.0
431.129999997,2048.0
431.130999997,2070.0
431.131999997,2067.0
431.132999997,2046.0
431.133999997,2034.0
431.134999997,2013.0
431.135999997,2001.0
431.136999997,2032.0
431.137999997,2046.0
431.138999997,2070.0
431.139999997,2019.0
431.140999997,2038.0
431.141999997,2032.0
431.142999997,2009.0
431.143999997,2021.0
431.144999997,2042.0
431.145999997,2061.0
431.146999997,2081.0
431.147999997,2066.0
431.148999997,2043.0
431.149999997,2034.0
431.150999997,2013.0
431.151999997,2032.0
431.152999997,2059.0
431.153999997,2075.0
431.154999997,2080.0
431.155999997,2094.0
431.156999997,2064.0
431.157999997,2018.0
431.158999997,2009.0
431.159999997,2056.0
431.160999997,2092.0
431.161999997,2085.0
431.162999997,2083.0
431.163999997,2089.0
431.164999997,2054.0
431.165999997,2047.0
431.166999997,2025.0
431.167999997,2048.0
431.168999997,2081.0
431.169999997,2073.0
431.170999997,2079.0
431.171999997,2059.0
431.172999997,2044.0
431.173999997,2017.0
431.174999997,1992.0
431.175999997,2037.0
431.176999997,2046.0
431.177999997,2055.0
431.178999997,2056.0
431.179999997,2027.0
431.180999997,2010.0
431.181999997,1980.0
431.182999997,1990.0
431.183999997,2026.0
431.184999997,2042.0
431.185999997,2063.0
431.186999997,2047.0
431.187999997,2023.0
431.188999997,2006.0
431.189999997,1982.0
431.190999997,1990.0
431.191999997,2026.0
431.192999997,2041.0
431.193999997,2022.0
431.194999997,2041.0
431.195999997,2021.0
431.196999997,2001.0
431.197999997,1983.0
431.198999997,2016.0
431.199999997,2046.0
431.200999997,2059.0
431.201999997,2076.0
431.202999997,2054.0
431.203999997,2043.0
431.204999997,2024.0
431.205999997,2014.0
431.206999997,2061.0
431.207999997,2100.0
431.208999997,2168.0
431.209999997,2258.0
431.210999997,2338.0
431.211999997,2428.0
431.212999997,2444.0
431.213999997,2335.0
431.214999997,2164.0
431.215999997,1960.0
431.216999997,1747.0
431.217999997,1607.0
431.218999997,1472.0
431.219999997,1361.0
431.220999997,1287.0
431.221999997,1264.0
431.222999997,1300.0
431.223999997,1375.0
431.224999997,1509.0
431.225999997,1587.0
431.226999997,1633.0
431.227999997,1677.0
431.228999997,1718.0
431.229999997,1796.0
431.230999997,1894.0
431.231999997,1981.0
431.232999997,2089.0
431.233999997,2161.0
431.234999997,2203.0
431.235999997,2230.0
431.236999997,2257.0
431.237999997,2274.0
431.238999997,2313.0
431.239999997,2326.0
431.240999997,2336.0
431.241999997,2315.0
431.242999997,2295.0
431.243999997,2287.0
431.244999997,2267.0
431.245999997,2287.0
431.246999997,2306.0
431.247999997,2327.0
431.248999997,2326.0
431.249999997,2302.0
431.250999997,2282.0
431.251999997,2252.0
431.252999997,2239.0
431.253999997,2263.0
431.254999997,2279.0
431.255999997,2300.0
431.256999997,2298.0
431.257999997,2276.0
431.258999997,2251.0
431.259999997,2219.0
431.260999997,2220.0
431.261999997,2232.0
431.262999997,2245.0
431.263999997,2274.0
431.264999997,2255.0
431.265999997,2241.0
431.266999997,2216.0
431.267999997,2196.0
431.268999997,2200.0
431.269999997,2219.0
431.270999997,2235.0
431.271999997,2256.0
431.272999997,2243.0
431.273999997,2230.0
431.274999997,2207.0
431.275999997,2199.0
431.276999997,2216.0
431.277999997,2228.0
431.278999997,2259.0
431.279999997,2270.0
431.280999997,2254.0
431.281999997,2249.0
431.282999997,2222.0
431.283999997,2215.0
431.284999997,2238.0
431.285999997,2250.0
431.286999997,2282.0
431.287999997,2288.0
431.288999997,2263.0
431.289999997,2252.0
431.290999997,2229.0
431.291999997,2219.0
431.292999997,2244.0
431.293999997,2246.0
431.294999997,2264.0
431.295999997,2258.0
431.296999997,2228.0
431.297999997,2214.0
431.298999997,2180.0
431.299999997,2172.0
431.300999997,2192.0
431.301999997,2189.0
431.302999997,2188.0
431.303999997,2171.0
431.304999997,2131.0
431.305999997,2102.0
431.306999997,2063.0
431.307999997,2058.0
431.308999997,2061.0
431.309999997,2049.0
431.310999997,2059.0
431.311999997,2020.0
431.312999997,1989.0
431.313999997,1961.0
431.314999997,1931.0
431.315999997,1928.0
431.316999997,1938.0
431.317999997,1937.0
431.318999997,1936.0
431.319999997,1917.0
431.320999997,1888.0
431.321999997,1865.0
431.322999997,1846.0
431.323999997,1862.0
431.324999997,1872.0
431.325999997,1885.0
431.326999997,1883.0
431.327999997,1857.0
431.328999997,1845.0
431.329999997,1833.0
431.330999997,1822.0
431.331999997,1854.0
431.332999997,1863.0
431.333999997,1884.0
431.334999997,1889.0
431.335999997,1867.0
431.336999997,1862.0
431.337999997,1839.0
431.338999997,1841.0
431.339999997,1875.0
431.340999997,1897.0
431.341999997,1916.0
431.342999997,1908.0
431.343999997,1897.0
431.344999997,1888.0
431.345999997,1876.0
431.346999997,1887.0
431.347999997,1941.0
431.348999997,1939.0
431.349999997,1946.0
431.350999997,1939.0
431.351999997,1930.0
431.352999997,1915.0
431.353999997,1897.0
431.354999997,1915.0
431.355999997,1935.0
431.356999997,1961.0
431.357999997,1962.0
431.358999997,1942.0
431.359999997,1943.0
431.360999997,1927.0
431.361999997,1926.0
431.362999997,1954.0
431.363999997,1961.0
431.364999997,1991.0
431.365999997,1996.0
431.366999997,1975.0
431.367999997,1981.0
431.368999997,1968.0
431.369999997,1954.0
431.370999997,1983.0
431.371999997,2000.0
431.372999997,2017.0
431.373999997,2010.0
431.374999997,1995.0
431.375999997,1997.0
431.376999997,1967.0
431.377999997,1976.0
431.378999997,2001.0
431.379999997,2017.0
431.380999997,2038.0
431.381999997,2023.0
431.382999997,2006.0
431.383999997,1999.0
431.384999997,1979.0
431.385999997,1994.0
431.386999997,2018.0
431.387999997,2030.0
431.388999997,2048.0
431.389999997,2029.0
431.390999997,2013.0
431.391999997,2007.0
431.392999997,1995.0
431.393999997,1998.0
431.394999997,2029.0
431.395999997,2039.0
431.396999997,2045.0
431.397999997,2026.0
431.398999997,2016.0
431.399999997,2004.0
431.400999997,1993.0
431.401999997,2024.0
431.402999997,2031.0
431.403999997,2053.0
431.404999997,2055.0
431.405999997,2030.0
431.406999997,2007.0
431.407999997,1995.0
431.408999997,1993.0
431.409999997,2016.0
431.410999997,2030.0
431.411999997,2041.0
431.412999997,2033.0
431.413999997,2018.0
431.414999997,2007.0
431.415999997,1984.0
431.416999997,1989.0
431.417999997,2015.0
431.418999997,2030.0
431.419999997,2050.0
431.420999997,2036.0
431.421999997,2021.0
431.422999997,2001.0
431.423999997,1984.0
431.424999997,1999.0
431.425999997,2026.0
431.426999997,2042.0
431.427999997,2054.0
431.428999997,2044.0
431.429999997,2015.0
431.430999997,1998.0
431.431999997,1998.0
431.432999997,2008.0
431.433999997,2041.0
431.434999997,2056.0
431.435999997,2061.0
431.436999997,2037.0
431.437999997,2022.0
431.438999997,1999.0
431.439999997,1992.0
431.440999997,2023.0
431.441999997,2040.0
431.442999997,2059.0
431.443999997,2053.0
431.444999997,2038.0
431.445999997,2022.0
431.446999997,2009.0
431.447999997,2007.0
431.448999997,2040.0
431.449999997,2045.0
431.450999997,2070.0
431.451999997,2063.0
431.452999997,2040.0
431.453999997,2018.0
431.454999997,1998.0
431.455999997,2019.0
431.456999997,2044.0
431.457999997,2049.0
431.458999997,2070.0
431.459999997,2066.0
431.460999997,2038.0
431.461999997,2029.0
431.462999997,2010.0
431.463999997,2029.0
431.464999997,2053.0
431.465999997,2069.0
431.466999997,2077.0
431.467999997,2060.0
431.468999997,2039.0
431.469999997,2023.0
431.470999997,2001.0
431.471999997,2036.0
431.472999997,2054.0
431.473999997,2075.0
431.474999997,2080.0
431.475999997,2057.0
431.476999997,2037.0
431.477999997,2031.0
431.478999997,2014.0
431.479999997,2048.0
431.480999997,2061.0
431.481999997,2078.0
431.482999997,2084.0
431.483999997,2056.0
431.484999997,2042.0
431.485999997,2020.0
431.486999997,2012.0
431.487999997,2036.0
431.488999997,2055.0
431.489999997,2082.0
431.490999997,2080.0
431.491999997,2057.0
431.492999997,2041.0
431.493999997,2023.0
431.494999997,2023.0
431.495999997,2046.0
431.496999997,2066.0
431.497999997,2080.0
431.498999997,2078.0
431.499999997,2053.0
431.500999997,2042.0
431.501999997,2011.0
431.502999997,2009.0
431.503999997,2048.0
431.504999997,2060.0
431.505999997,2065.0
431.506999997,2058.0
431.507999997,2035.0
431.508999997,2024.0
431.509999997,2013.0
431.510999997,2025.0
431.511999997,2048.0
431.512999997,2077.0
431.513999997,2074.0
431.514999997,2060.0
431.515999997,2059.0
431.516999997,2034.0
431.517999997,2026.0
431.518999997,2050.0
431.519999997,2067.0
431.520999997,2087.0
431.521999997,2083.0
431.522999997,2076.0
431.523999997,2068.0
431.524999997,2049.0
431.525999997,2049.0
431.526999997,2057.0
431.527999997,2067.0
431.528999997,2086.0
431.529999997,2086.0
431.530999997,2070.0
431.531999997,2055.0
431.532999997,2032.0
431.533999997,2035.0
431.534999997,2055.0
431.535999997,2062.0
431.536999997,2073.0
431.537999997,2063.0
431.538999997,2048.0
431.539999997,2022.0
431.540999997,1994.0
431.541999997,2018.0
431.542999997,2031.0
431.543999997,2036.0
431.544999997,2051.0
431.545999997,2022.0
431.546999997,2019.0
431.547999997,2009.0
431.548999997,1992.0
431.549999997,2013.0
431.550999997,2018.0
431.551999997,2033.0
431.552999997,2045.0
431.553999997,2043.0
431.554999997,2019.0
431.555999997,1994.0
431.556999997,1984.0
431.557999997,1998.0
431.558999997,2010.0
431.559999997,2025.0
431.560999997,2034.0
431.561999997,2025.0
431.562999997,2017.0
431.563999997,1991.0
431.564999997,1987.0
431.565999997,2016.0
431.566999997,2025.0
431.567999997,2052.0
431.568999997,2062.0
431.569999997,2042.0
431.570999997,2040.0
431.571999997,2031.0
431.572999997,2047.0
431.573999997,2110.0
431.574999997,2204.0
431.575999997,2314.0
431.576999997,2423.0
431.577999997,2448.0
431.578999997,2376.0
431.579999997,2154.0
431.580999997,1955.0
431.581999997,1722.0
431.582999997,1585.0
431.583999997,1475.0
431.584999997,1369.0
431.585999997,1299.0
431.586999997,1258.0
431.587999997,1240.0
431.588999997,1291.0
431.589999997,1417.0
431.590999997,1527.0
431.591999997,1614.0
431.592999997,1658.0
431.593999997,1711.0
431.594999997,1767.0
431.595999997,1827.0
431.596999997,1929.0
431.597999997,2020.0
431.598999997,2136.0
431.599999997,2210.0
431.600999997,2236.0
431.601999997,2275.0
431.602999997,2251.0
431.603999997,2270.0
431.604999997,2294.0
431.605999997,2299.0
431.606999997,2312.0
431.607999997,2302.0
431.608999997,2289.0
431.609999997,2275.0
431.610999997,2259.0
431.611999997,2252.0
431.612999997,2279.0
431.613999997,2277.0
431.614999997,2303.0
431.615999997,2280.0
431.616999997,2244.0
431.617999997,2254.0
431.618999997,2218.0
431.619999997,2223.0
431.620999997,2252.0
431.621999997,2260.0
431.622999997,2260.0
431.623999997,2214.0
431.624999997,2236.0
431.625999997,2220.0
431.626999997,2190.0
431.627999997,2197.0
431.628999997,2212.0
431.629999997,2235.0
431.630999997,2228.0
431.631999997,2208.0
431.632999997,2195.0
431.633999997,2182.0
431.634999997,2174.0
431.635999997,2199.0
431.636999997,2207.0
431.637999997,2229.0
431.638999997,2235.0
431.639999997,2209.0
431.640999997,2203.0
431.641999997,2186.0
431.642999997,2188.0
431.643999997,2194.0
431.644999997,2229.0
431.645999997,2249.0
431.646999997,2252.0
431.647999997,2225.0
431.648999997,2222.0
431.649999997,2207.0
431.650999997,2210.0
431.651999997,2233.0
431.652999997,2241.0
431.653999997,2256.0
431.654999997,2254.0
431.655999997,2226.0
431.656999997,2222.0
431.657999997,2198.0
431.658999997,2207.0
431.659999997,2223.0
431.660999997,2230.0
431.661999997,2227.0
431.662999997,2204.0
431.663999997,2177.0
431.664999997,2160.0
431.665999997,2133.0
431.666999997,2139.0
431.667999997,2154.0
431.668999997,2149.0
431.669999997,2141.0
431.670999997,2097.0
431.671999997,2061.0
431.672999997,2033.0
431.673999997,2013.0
431.674999997,2015.0
431.675999997,2015.0
431.676999997,2013.0
431.677999997,1993.0
431.678999997,1954.0
431.679999997,1929.0
431.680999997,1899.0
431.681999997,1880.0
431.682999997,1895.0
431.683999997,1905.0
431.684999997,1899.0
431.685999997,1891.0
431.686999997,1859.0
431.687999997,1833.0
431.688999997,1805.0
431.689999997,1813.0
431.690999997,1830.0
431.691999997,1835.0
431.692999997,1845.0
431.693999997,1833.0
431.694999997,1812.0
431.695999997,1799.0
431.696999997,1778.0
431.697999997,1794.0
431.698999997,1828.0
431.699999997,1843.0
431.700999997,1851.0
431.701999997,1836.0
431.702999997,1814.0
431.703999997,1802.0
431.704999997,1785.0
431.705999997,1811.0
431.706999997,1835.0
431.707999997,1845.0
431.708999997,1848.0
431.709999997,1839.0
431.710999997,1824.0
431.711999997,1806.0
431.712999997,1803.0
431.713999997,1819.0
431.714999997,1833.0
431.715999997,1859.0
431.716999997,1867.0
431.717999997,1845.0
431.718999997,1833.0
431.719999997,1816.0
431.720999997,1815.0
431.721999997,1845.0
431.722999997,1863.0
431.723999997,1889.0
431.724999997,1876.0
431.725999997,1864.0
431.726999997,1868.0
431.727999997,1844.0
431.728999997,1852.0
431.729999997,1876.0
431.730999997,1890.0
431.731999997,1899.0
431.732999997,1894.0
431.733999997,1879.0
431.734999997,1873.0
431.735999997,1849.0
431.736999997,1872.0
431.737999997,1896.0
431.738999997,1906.0
431.739999997,1921.0
431.740999997,1915.0
431.741999997,1897.0
431.742999997,1889.0
431.743999997,1873.0
431.744999997,1896.0
431.745999997,1927.0
431.746999997,1946.0
431.747999997,1955.0
431.748999997,1936.0
431.749999997,1928.0
431.750999997,1914.0
431.751999997,1898.0
431.752999997,1916.0
431.753999997,1931.0
431.754999997,1952.0
431.755999997,1960.0
431.756999997,1942.0
431.757999997,1934.0
431.758999997,1916.0
431.759999997,1916.0
431.760999997,1937.0
431.761999997,1961.0
431.762999997,1974.0
431.763999997,1978.0
431.764999997,1964.0
431.765999997,1952.0
431.766999997,1937.0
431.767999997,1935.0
431.768999997,1954.0
431.769999997,1971.0
431.770999997,1990.0
431.771999997,1977.0
431.772999997,1958.0
431.773999997,1946.0
431.774999997,1933.0
431.775999997,1931.0
431.776999997,1940.0
431.777999997,1957.0
431.778999997,1974.0
431.779999997,1961.0
431.780999997,1933.0
431.781999997,1917.0
431.782999997,1904.0
431.783999997,1904.0
431.784999997,1919.0
431.785999997,1937.0
431.786999997,1943.0
431.787999997,1925.0
431.788999997,1913.0
431.789999997,1893.0
431.790999997,1887.0
431.791999997,1900.0
431.792999997,1918.0
431.793999997,1929.0
431.794999997,1939.0
431.795999997,1921.0
431.796999997,1920.0
431.797999997,1905.0
431.798999997,1897.0
431.799999997,1928.0
431.800999997,1940.0
431.801999997,1960.0
431.802999997,1964.0
431.803999997,1961.0
431.804999997,1953.0
431.805999997,1927.0
431.806999997,1936.0
431.807999997,1967.0
431.808999997,1971.0
431.809999997,2001.0
431.810999997,2003.0
431.811999997,1980.0
431.812999997,1974.0
431.813999997,1956.0
431.814999997,1966.0
431.815999997,1983.0
431.816999997,1997.0
431.817999997,2022.0
431.818999997,2015.0
431.819999997,2005.0
431.820999997,1996.0
431.821999997,1989.0
431.822999997,1997.0
431.823999997,2022.0
431.824999997,2040.0
431.825999997,2056.0
431.826999997,2045.0
431.827999997,2036.0
431.828999997,2029.0
431.829999997,2025.0
431.830999997,2035.0
431.831999997,2044.0
431.832999997,2062.0
431.833999997,2074.0
431.834999997,2055.0
431.835999997,2047.0
431.836999997,2026.0
431.837999997,2025.0
431.838999997,2039.0
431.839999997,2055.0
431.840999997,2064.0
431.841999997,2074.0
431.842999997,2056.0
431.843999997,2040.0
431.844999997,2029.0
431.845999997,2022.0
431.846999997,2046.0
431.847999997,2051.0
431.848999997,2070.0
431.849999997,2072.0
431.850999997,2061.0
431.851999997,2046.0
431.852999997,2040.0
431.853999997,2043.0
431.854999997,2064.0
431.855999997,2072.0
431.856999997,2090.0
431.857999997,2069.0
431.858999997,2063.0
431.859999997,2043.0
431.860999997,2041.0
431.861999997,2048.0
431.862999997,2071.0
431.863999997,2081.0
431.864999997,2087.0
431.865999997,2070.0
431.866999997,2064.0
431.867999997,2061.0
431.868999997,2058.0
431.869999997,2067.0
431.870999997,2085.0
431.871999997,2098.0
431.872999997,2092.0
431.873999997,2085.0
431.874999997,2075.0
431.875999997,2067.0
431.876999997,2069.0
431.877999997,2088.0
431.878999997,2092.0
431.879999997,2104.0
431.880999997,2101.0
431.881999997,2095.0
431.882999997,2102.0
431.883999997,2082.0
431.884999997,2084.0
431.885999997,2108.0
431.886999997,2102.0
431.887999997,2122.0
431.888999997,2112.0
431.889999997,2103.0
431.890999997,2097.0
431.891999997,2069.0
431.892999997,2084.0
431.893999997,2103.0
431.894999997,2110.0
431.895999997,2118.0
431.896999997,2102.0
431.897999997,2098.0
431.898999997,2072.0
431.899999997,2065.0
431.900999997,2078.0
431.901999997,2088.0
431.902999997,2099.0
431.903999997,2104.0
431.904999997,2088.0
431.905999997,2063.0
431.906999997,2057.0
431.907999997,2041.0
431.908999997,2070.0
431.909999997,2081.0
431.910999997,2100.0
431.911999997,2102.0
431.912999997,2070.0
431.913999997,2059.0
431.914999997,2040.0
431.915999997,2033.0
431.916999997,2055.0
431.917999997,2064.0
431.918999997,2081.0
431.919999997,2084.0
431.920999997,2058.0
431.921999997,2038.0
431.922999997,2031.0
431.923999997,2045.0
431.924999997,2074.0
431.925999997,2074.0
431.926999997,2091.0
431.927999997,2086.0
431.928999997,2074.0
431.929999997,2063.0
431.930999997,2058.0
431.931999997,2080.0
431.932999997,2141.0
431.933999997,2229.0
431.934999997,2317.0
431.935999997,2437.0
431.936999997,2483.0
431.937999997,2439.0
431.938999997,2265.0
431.939999997,2050.0
431.940999997,1840.0
431.941999997,1682.0
431.942999997,1559.0
431.943999997,1431.0
431.944999997,1351.0
431.945999997,1312.0
431.946999997,1300.0
431.947999997,1341.0
431.948999997,1451.0
431.949999997,1586.0
431.950999997,1663.0
431.951999997,1702.0
431.952999997,1745.0
431.953999997,1791.0
431.954999997,1858.0
431.955999997,1946.0
431.956999997,2023.0
431.957999997,2131.0
431.958999997,2196.0
431.959999997,2237.0
431.960999997,2257.0
431.961999997,2268.0
431.962999997,2291.0
431.963999997,2309.0
431.964999997,2321.0
431.965999997,2328.0
431.966999997,2309.0
431.967999997,2295.0
431.968999997,2285.0
431.969999997,2259.0
431.970999997,2284.0
431.971999997,2290.0
431.972999997,2301.0
431.973999997,2303.0
431.974999997,2288.0
431.975999997,2259.0
431.976999997,2243.0
431.977999997,2227.0
431.978999997,2243.0
431.979999997,2257.0
431.980999997,2265.0
431.981999997,2266.0
431.982999997,2240.0
431.983999997,2228.0
431.984999997,2209.0
431.985999997,2197.0
431.986999997,2226.0
431.987999997,2232.0
431.988999997,2244.0
431.989999997,2233.0
431.990999997,2219.0
431.991999997,2210.0
431.992999997,2188.0
431.993999997,2180.0
431.994999997,2211.0
431.995999997,2232.0
431.996999997,2244.0
431.997999997,2244.0
431.998999997,2229.0
431.999999997,2214.0
432.000999997,2197.0
432.001999997,2204.0
432.002999997,2236.0
432.003999997,2253.0
432.004999997,2268.0
432.005999997,2262.0
432.006999997,2240.0
432.007999997,2242.0
432.008999997,2222.0
432.009999997,2229.0
432.010999997,2257.0
432.011999997,2269.0
432.012999997,2267.0
432.013999997,2266.0
432.014999997,2240.0
432.015999997,2219.0
432.016999997,2213.0
432.017999997,2212.0
432.018999997,2233.0
432.019999997,2237.0
432.020999997,2241.0
432.021999997,2213.0
432.022999997,2194.0
432.023999997,2169.0
432.024999997,2151.0
432.025999997,2150.0
432.026999997,2150.0
432.027999997,2161.0
432.028999997,2141.0
432.029999997,2111.0
432.030999997,2079.0
432.031999997,2048.0
432.032999997,2028.0
432.033999997,2022.0
432.034999997,2024.0
432.035999997,2031.0
432.036999997,2010.0
432.037999997,1981.0
432.038999997,1961.0
432.039999997,1933.0
432.040999997,1929.0
432.041999997,1925.0
432.042999997,1942.0
432.043999997,1943.0
432.044999997,1932.0
432.045999997,1907.0
432.046999997,1888.0
432.047999997,1861.0
432.048999997,1865.0
432.049999997,1877.0
432.050999997,1894.0
432.051999997,1897.0
432.052999997,1896.0
432.053999997,1878.0
432.054999997,1858.0
432.055999997,1852.0
432.056999997,1821.0
432.057999997,1877.0
432.058999997,1898.0
432.059999997,1906.0
432.060999997,1899.0
432.061999997,1889.0
432.062999997,1881.0
432.063999997,1871.0
432.064999997,1898.0
432.065999997,1906.0
432.066999997,1935.0
432.067999997,1929.0
432.068999997,1912.0
432.069999997,1916.0
432.070999997,1899.0
432.071999997,1903.0
432.072999997,1931.0
432.073999997,1949.0
432.074999997,1939.0
432.075999997,1945.0
432.076999997,1942.0
432.077999997,1932.0
432.078999997,1921.0
432.079999997,1925.0
432.080999997,1923.0
432.081999997,1952.0
432.082999997,1973.0
432.083999997,1949.0
432.084999997,1970.0
432.085999997,1935.0
432.086999997,1931.0
432.087999997,1959.0
432.088999997,1979.0
432.089999997,1979.0
432.090999997,1997.0
432.091999997,1989.0
432.092999997,1971.0
432.093999997,1956.0
432.094999997,1937.0
432.095999997,1944.0
432.096999997,1963.0
432.097999997,1964.0
432.098999997,1969.0
432.099999997,1958.0
432.100999997,1945.0
432.101999997,1935.0
432.102999997,1936.0
432.103999997,1956.0
432.104999997,1966.0
432.105999997,1981.0
432.106999997,1981.0
432.107999997,1963.0
432.108999997,1960.0
432.109999997,1954.0
432.110999997,1947.0
432.111999997,1971.0
432.112999997,1980.0
432.113999997,1987.0
432.114999997,1993.0
432.115999997,1985.0
432.116999997,1974.0
432.117999997,1962.0
432.118999997,1976.0
432.119999997,1995.0
432.120999997,1999.0
432.121999997,2017.0
432.122999997,2012.0
432.123999997,1996.0
432.124999997,1980.0
432.125999997,1964.0
432.126999997,1969.0
432.127999997,1986.0
432.128999997,2007.0
432.129999997,2020.0
432.130999997,2009.0
432.131999997,1995.0
432.132999997,1985.0
432.133999997,1971.0
432.134999997,1985.0
432.135999997,1996.0
432.136999997,2009.0
432.137999997,2013.0
432.138999997,2000.0
432.139999997,1995.0
432.140999997,1979.0
432.141999997,1968.0
432.142999997,1988.0
432.143999997,1998.0
432.144999997,2013.0
432.145999997,2015.0
432.146999997,1996.0
432.147999997,1995.0
432.148999997,1981.0
432.149999997,1978.0
432.150999997,2005.0
432.151999997,2017.0
432.152999997,2042.0
432.153999997,2024.0
432.154999997,2019.0
432.155999997,2011.0
432.156999997,2001.0
432.157999997,2004.0
432.158999997,2030.0
432.159999997,2036.0
432.160999997,2050.0
432.161999997,2044.0
432.162999997,2022.0
432.163999997,2018.0
432.164999997,2011.0
432.165999997,2024.0
432.166999997,2039.0
432.167999997,2047.0
432.168999997,2058.0
432.169999997,2039.0
432.170999997,2031.0
432.171999997,2019.0
432.172999997,2022.0
432.173999997,2027.0
432.174999997,2043.0
432.175999997,2049.0
432.176999997,2056.0
432.177999997,2040.0
432.178999997,2035.0
432.179999997,2019.0
432.180999997,2016.0
432.181999997,2036.0
432.182999997,2051.0
432.183999997,2068.0
432.184999997,2059.0
432.185999997,2047.0
432.186999997,2026.0
432.187999997,2025.0
432.188999997,2035.0
432.189999997,2041.0
432.190999997,2067.0
432.191999997,2073.0
432.192999997,2070.0
432.193999997,2050.0
432.194999997,2053.0
432.195999997,2041.0
432.196999997,2049.0
432.197999997,2071.0
432.198999997,2076.0
432.199999997,2096.0
432.200999997,2076.0
432.201999997,2066.0
432.202999997,2055.0
432.203999997,2044.0
432.204999997,2055.0
432.205999997,2073.0
432.206999997,2087.0
432.207999997,2094.0
432.208999997,2083.0
432.209999997,2067.0
432.210999997,2057.0
432.211999997,2048.0
432.212999997,2062.0
432.213999997,2074.0
432.214999997,2089.0
432.215999997,2088.0
432.216999997,2074.0
432.217999997,2061.0
432.218999997,2045.0
432.219999997,2051.0
432.220999997,2069.0
432.221999997,2085.0
432.222999997,2097.0
432.223999997,2106.0
432.224999997,2085.0
432.225999997,2080.0
432.226999997,2062.0
432.227999997,2062.0
432.228999997,2098.0
432.229999997,2117.0
432.230999997,2135.0
432.231999997,2133.0
432.232999997,2121.0
432.233999997,2105.0
432.234999997,2068.0
432.235999997,2087.0
432.236999997,2116.0
432.237999997,2126.0
432.238999997,2137.0
432.239999997,2131.0
432.240999997,2111.0
432.241999997,2096.0
432.242999997,2075.0
432.243999997,2086.0
432.244999997,2108.0
432.245999997,2108.0
432.246999997,2118.0
432.247999997,2104.0
432.248999997,2088.0
432.249999997,2062.0
432.250999997,2038.0
432.251999997,2054.0
432.252999997,2070.0
432.253999997,2087.0
432.254999997,2088.0
432.255999997,2068.0
432.256999997,2061.0
432.257999997,2047.0
432.258999997,2042.0
432.259999997,2067.0
432.260999997,2076.0
432.261999997,2088.0
432.262999997,2088.0
432.263999997,2073.0
432.264999997,2058.0
432.265999997,2045.0
432.266999997,2043.0
432.267999997,2061.0
432.268999997,2077.0
432.269999997,2087.0
432.270999997,2087.0
432.271999997,2070.0
432.272999997,2063.0
432.273999997,2046.0
432.274999997,2050.0
432.275999997,2077.0
432.276999997,2094.0
432.277999997,2112.0
432.278999997,2119.0
432.279999997,2124.0
432.280999997,2155.0
432.281999997,2221.0
432.282999997,2320.0
432.283999997,2445.0
432.284999997,2521.0
432.285999997,2472.0
432.286999997,2288.0
432.287999997,2036.0
432.288999997,1796.0
432.289999997,1628.0
432.290999997,1509.0
432.291999997,1430.0
432.292999997,1400.0
432.293999997,1378.0
432.294999997,1359.0
432.295999997,1383.0
432.296999997,1470.0
432.297999997,1562.0
432.298999997,1643.0
432.299999997,1711.0
432.300999997,1774.0
432.301999997,1839.0
432.302999997,1882.0
432.303999997,1938.0
432.304999997,2004.0
432.305999997,2094.0
432.306999997,2183.0
432.307999997,2249.0
432.308999997,2296.0
432.309999997,2321.0
432.310999997,2310.0
432.311999997,2304.0
432.312999997,2284.0
432.313999997,2294.0
432.314999997,2304.0
432.315999997,2317.0
432.316999997,2336.0
432.317999997,2327.0
432.318999997,2310.0
432.319999997,2296.0
432.320999997,2276.0
432.321999997,2285.0
432.322999997,2292.0
432.323999997,2305.0
432.324999997,2318.0
432.325999997,2304.0
432.326999997,2288.0
432.327999997,2258.0
432.328999997,2243.0
432.329999997,2254.0
432.330999997,2266.0
432.331999997,2274.0
432.332999997,2287.0
432.333999997,2256.0
432.334999997,2237.0
432.335999997,2225.0
432.336999997,2209.0
432.337999997,2237.0
432.338999997,2237.0
432.339999997,2246.0
432.340999997,2253.0
432.341999997,2235.0
432.342999997,2227.0
432.343999997,2212.0
432.344999997,2215.0
432.345999997,2237.0
432.346999997,2244.0
432.347999997,2254.0
432.348999997,2260.0
432.349999997,2242.0
432.350999997,2245.0
432.351999997,2228.0
432.352999997,2239.0
432.353999997,2260.0
432.354999997,2270.0
432.355999997,2287.0
432.356999997,2278.0
432.357999997,2277.0
432.358999997,2267.0
432.359999997,2247.0
432.360999997,2259.0
432.361999997,2278.0
432.362999997,2282.0
432.363999997,2285.0
432.364999997,2273.0
432.365999997,2259.0
432.366999997,2252.0
432.367999997,2226.0
432.368999997,2229.0
432.369999997,2230.0
432.370999997,2237.0
432.371999997,2225.0
432.372999997,2211.0
432.373999997,2194.0
432.374999997,2168.0
432.375999997,2152.0
432.376999997,2148.0
432.377999997,2144.0
432.378999997,2131.0
432.379999997,2113.0
432.380999997,2086.0
432.381999997,2054.0
432.382999997,2030.0
432.383999997,2018.0
432.384999997,2020.0
432.385999997,2006.0
432.386999997,2017.0
432.387999997,1990.0
432.388999997,1972.0
432.389999997,1955.0
432.390999997,1926.0
432.391999997,1924.0
432.392999997,1932.0
432.393999997,1929.0
432.394999997,1942.0
432.395999997,1927.0
432.396999997,1905.0
432.397999997,1892.0
432.398999997,1879.0
432.399999997,1891.0
432.400999997,1900.0
432.401999997,1908.0
432.402999997,1920.0
432.403999997,1907.0
432.404999997,1897.0
432.405999997,1885.0
432.406999997,1887.0
432.407999997,1898.0
432.408999997,1911.0
432.409999997,1925.0
432.410999997,1930.0
432.411999997,1919.0
432.412999997,1920.0
432.413999997,1906.0
432.414999997,1907.0
432.415999997,1927.0
432.416999997,1932.0
432.417999997,1953.0
432.418999997,1958.0
432.419999997,1942.0
432.420999997,1934.0
432.421999997,1926.0
432.422999997,1936.0
432.423999997,1951.0
432.424999997,1960.0
432.425999997,1979.0
432.426999997,1981.0
432.427999997,1959.0
432.428999997,1961.0
432.429999997,1944.0
432.430999997,1955.0
432.431999997,1976.0
432.432999997,1981.0
432.433999997,1998.0
432.434999997,1985.0
432.435999997,1973.0
432.436999997,1970.0
432.437999997,1960.0
432.438999997,1985.0
432.439999997,1996.0
432.440999997,2010.0
432.441999997,2019.0
432.442999997,2014.0
432.443999997,2000.0
432.444999997,1989.0
432.445999997,1984.0
432.446999997,2003.0
432.447999997,2030.0
432.448999997,2037.0
432.449999997,2041.0
432.450999997,2025.0
432.451999997,2015.0
432.452999997,2012.0
432.453999997,2002.0
432.454999997,2036.0
432.455999997,2039.0
432.456999997,2053.0
432.457999997,2059.0
432.458999997,2043.0
432.459999997,2028.0
432.460999997,2019.0
432.461999997,2016.0
432.462999997,2038.0
432.463999997,2052.0
432.464999997,2060.0
432.465999997,2063.0
432.466999997,2039.0
432.467999997,2036.0
432.468999997,2020.0
432.469999997,2032.0
432.470999997,2040.0
432.471999997,2056.0
432.472999997,2064.0
432.473999997,2055.0
432.474999997,2042.0
432.475999997,2031.0
432.476999997,2018.0
432.477999997,2030.0
432.478999997,2049.0
432.479999997,2053.0
432.480999997,2052.0
432.481999997,2042.0
432.482999997,2030.0
432.483999997,2019.0
432.484999997,2019.0
432.485999997,2015.0
432.486999997,2035.0
432.487999997,2052.0
432.488999997,2041.0
432.489999997,2033.0
432.490999997,2028.0
432.491999997,2005.0
432.492999997,2018.0
432.493999997,2032.0
432.494999997,2036.0
432.495999997,2051.0
432.496999997,2045.0
432.497999997,2033.0
432.498999997,2025.0
432.499999997,2009.0
432.500999997,2015.0
432.501999997,2039.0
432.502999997,2046.0
432.503999997,2059.0
432.504999997,2058.0
432.505999997,2052.0
432.506999997,2044.0
432.507999997,2025.0
432.508999997,2039.0
432.509999997,2057.0
432.510999997,2067.0
432.511999997,2074.0
432.512999997,2081.0
432.513999997,2062.0
432.514999997,2058.0
432.515999997,2045.0
432.516999997,2061.0
432.517999997,2080.0
432.518999997,2086.0
432.519999997,2095.0
432.520999997,2086.0
432.521999997,2079.0
432.522999997,2070.0
432.523999997,2063.0
432.524999997,2072.0
432.525999997,2084.0
432.526999997,2125.0
432.527999997,2106.0
432.528999997,2093.0
432.529999997,2069.0
432.530999997,2075.0
432.531999997,2075.0
432.532999997,2077.0
432.533999997,2084.0
432.534999997,2096.0
432.535999997,2098.0
432.536999997,2043.0
432.537999997,2052.0
432.538999997,2045.0
432.539999997,2006.0
432.540999997,2055.0
432.541999997,2036.0
432.542999997,2087.0
432.543999997,2064.0
432.544999997,2068.0
432.545999997,2044.0
432.546999997,2026.0
432.547999997,2025.0
432.548999997,2034.0
432.549999997,2039.0
432.550999997,2053.0
432.551999997,2037.0
432.552999997,2018.0
432.553999997,2002.0
432.554999997,1996.0
432.555999997,1991.0
432.556999997,2007.0
432.557999997,2016.0
432.558999997,2019.0
432.559999997,2007.0
432.560999997,1988.0
432.561999997,1971.0
432.562999997,1960.0
432.563999997,1972.0
432.564999997,1971.0
432.565999997,1982.0
432.566999997,1988.0
432.567999997,1972.0
432.568999997,1959.0
432.569999997,1935.0
432.570999997,1915.0
432.571999997,1889.0
432.572999997,1871.0
432.573999997,1853.0
432.574999997,1853.0
432.575999997,1845.0
432.576999997,1863.0
432.577999997,1854.0
432.578999997,1865.0
432.579999997,1882.0
432.580999997,1870.0
432.581999997,1873.0
432.582999997,1862.0
432.583999997,1836.0
432.584999997,1799.0
432.585999997,1727.0
432.586999997,1717.0
432.587999997,1725.0
432.588999997,1731.0
432.589999997,1762.0
432.590999997,1759.0
432.591999997,1760.0
432.592999997,1741.0
432.593999997,1715.0
432.594999997,1719.0
432.595999997,1643.0
432.596999997,1631.0
432.597999997,1665.0
432.598999997,1683.0
432.599999997,1681.0
432.600999997,1692.0
432.601999997,1697.0
432.602999997,1684.0
432.603999997,1698.0
432.604999997,1703.0
432.605999997,1691.0
432.606999997,1673.0
432.607999997,1651.0
432.608999997,1619.0
432.609999997,1583.0
432.610999997,1575.0
432.611999997,1550.0
432.612999997,1531.0
432.613999997,1501.0
432.614999997,1472.0
432.615999997,1465.0
432.616999997,1428.0
432.617999997,1388.0
432.618999997,1392.0
432.619999997,1383.0
432.620999997,1387.0
432.621999997,1369.0
432.622999997,1283.0
432.623999997,1222.0
432.624999997,1150.0
432.625999997,1091.0
432.626999997,1003.0
432.627999997,934.0
432.628999997,902.0
432.629999997,890.0
432.630999997,930.0
432.631999997,960.0
432.632999997,967.0
432.633999997,1004.0
432.634999997,1116.0
432.635999997,1260.0
432.636999997,1430.0
432.637999997,1523.0
432.638999997,1563.0
432.639999997,1453.0
432.640999997,1279.0
432.641999997,1118.0
432.642999997,963.0
432.643999997,887.0
432.644999997,806.0
432.645999997,747.0
432.646999997,716.0
432.647999997,712.0
432.648999997,727.0
432.649999997,806.0
432.650999997,892.0
432.651999997,948.0
432.652999997,1017.0
432.653999997,1090.0
432.654999997,1184.0
432.655999997,1234.0
432.656999997,1288.0
432.657999997,1375.0
432.658999997,1507.0
432.659999997,1599.0
432.660999997,1659.0
432.661999997,1712.0
432.662999997,1777.0
432.663999997,1824.0
432.664999997,1865.0
432.665999997,1932.0
432.666999997,1991.0
432.667999997,2035.0
432.668999997,2026.0
432.669999997,2005.0
432.670999997,1968.0
432.671999997,1983.0
432.672999997,2048.0
432.673999997,2116.0
432.674999997,2196.0
432.675999997,2250.0
432.676999997,2250.0
432.677999997,2256.0
432.678999997,2244.0
432.679999997,2227.0
432.680999997,2179.0
432.681999997,2113.0
432.682999997,2074.0
432.683999997,2113.0
432.684999997,2120.0
432.685999997,2110.0
432.686999997,2118.0
432.687999997,2147.0
432.688999997,2193.0
432.689999997,2232.0
432.690999997,2303.0
432.691999997,2383.0
432.692999997,2426.0
432.693999997,2499.0
432.694999997,2554.0
432.695999997,2625.0
432.696999997,2716.0
432.697999997,2782.0
432.698999997,2853.0
432.699999997,2898.0
432.700999997,2925.0
432.701999997,2967.0
432.702999997,2983.0
432.703999997,3022.0
432.704999997,3079.0
432.705999997,3121.0
432.706999997,3158.0
432.707999997,3171.0
432.708999997,3159.0
432.709999997,3157.0
432.710999997,3160.0
432.711999997,3176.0
432.712999997,3207.0
432.713999997,3229.0
432.714999997,3237.0
432.715999997,3240.0
432.716999997,3220.0
432.717999997,3190.0
432.718999997,3155.0
432.719999997,3106.0
432.720999997,3023.0
432.721999997,2935.0
432.722999997,2870.0
432.723999997,2763.0
432.724999997,2576.0
432.725999997,2348.0
432.726999997,2262.0
432.727999997,2212.0
432.728999997,2126.0
432.729999997,2013.0
432.730999997,1892.0
432.731999997,1741.0
432.732999997,1557.0
432.733999997,1508.0
432.734999997,1501.0
432.735999997,1472.0
432.736999997,1409.0
432.737999997,1329.0
432.738999997,1275.0
432.739999997,1134.0
432.740999997,1069.0
432.741999997,1089.0
432.742999997,1158.0
432.743999997,1246.0
432.744999997,1316.0
432.745999997,1409.0
432.746999997,1465.0
432.747999997,1537.0
432.748999997,1594.0
432.749999997,1656.0
432.750999997,1723.0
432.751999997,1789.0
432.752999997,1858.0
432.753999997,1911.0
432.754999997,1960.0
432.755999997,2014.0
432.756999997,2051.0
432.757999997,2110.0
432.758999997,2196.0
432.759999997,2261.0
432.760999997,2327.0
432.761999997,2383.0
432.762999997,2410.0
432.763999997,2431.0
432.764999997,2432.0
432.765999997,2440.0
432.766999997,2466.0
432.767999997,2464.0
432.768999997,2448.0
432.769999997,2405.0
432.770999997,2375.0
432.771999997,2352.0
432.772999997,2336.0
432.773999997,2347.0
432.774999997,2374.0
432.775999997,2381.0
432.776999997,2409.0
432.777999997,2426.0
432.778999997,2430.0
432.779999997,2443.0
432.780999997,2452.0
432.781999997,2415.0
432.782999997,2436.0
432.783999997,2472.0
432.784999997,2510.0
432.785999997,2565.0
432.786999997,2625.0
432.787999997,2674.0
432.788999997,2728.0
432.789999997,2783.0
432.790999997,2837.0
432.791999997,2888.0
432.792999997,2928.0
432.793999997,2956.0
432.794999997,2985.0
432.795999997,3024.0
432.796999997,3049.0
432.797999997,3100.0
432.798999997,3137.0
432.799999997,3161.0
432.800999997,3171.0
432.801999997,3164.0
432.802999997,3183.0
432.803999997,3181.0
432.804999997,3170.0
432.805999997,3186.0
432.806999997,3217.0
432.807999997,3208.0
432.808999997,3205.0
432.809999997,3188.0
432.810999997,3160.0
432.811999997,3138.0
432.812999997,3114.0
432.813999997,3090.0
432.814999997,3075.0
432.815999997,3068.0
432.816999997,3021.0
432.817999997,2969.0
432.818999997,2918.0
432.819999997,2883.0
432.820999997,2878.0
432.821999997,2875.0
432.822999997,2877.0
432.823999997,2886.0
432.824999997,2892.0
432.825999997,2887.0
432.826999997,2877.0
432.827999997,2859.0
432.828999997,2862.0
432.829999997,2874.0
432.830999997,2899.0
432.831999997,2923.0
432.832999997,2923.0
432.833999997,2923.0
432.834999997,2920.0
432.835999997,2920.0
432.836999997,2923.0
432.837999997,2928.0
432.838999997,2938.0
432.839999997,2942.0
432.840999997,2929.0
432.841999997,2927.0
432.842999997,2903.0
432.843999997,2888.0
432.844999997,2891.0
432.845999997,2884.0
432.846999997,2891.0
432.847999997,2881.0
432.848999997,2868.0
432.849999997,2850.0
432.850999997,2813.0
432.851999997,2804.0
432.852999997,2804.0
432.853999997,2788.0
432.854999997,2794.0
432.855999997,2775.0
432.856999997,2753.0
432.857999997,2729.0
432.858999997,2698.0
432.859999997,2689.0
432.860999997,2680.0
432.861999997,2671.0
432.862999997,2676.0
432.863999997,2659.0
432.864999997,2630.0
432.865999997,2607.0
432.866999997,2584.0
432.867999997,2586.0
432.868999997,2595.0
432.869999997,2579.0
432.870999997,2564.0
432.871999997,2536.0
432.872999997,2508.0
432.873999997,2484.0
432.874999997,2472.0
432.875999997,2464.0
432.876999997,2464.0
432.877999997,2451.0
432.878999997,2446.0
432.879999997,2430.0
432.880999997,2397.0
432.881999997,2377.0
432.882999997,2358.0
432.883999997,2352.0
432.884999997,2358.0
432.885999997,2332.0
432.886999997,2332.0
432.887999997,2313.0
432.888999997,2295.0
432.889999997,2282.0
432.890999997,2265.0
432.891999997,2274.0
432.892999997,2267.0
432.893999997,2263.0
432.894999997,2250.0
432.895999997,2235.0
432.896999997,2215.0
432.897999997,2197.0
432.898999997,2192.0
432.899999997,2197.0
432.900999997,2210.0
432.901999997,2206.0
432.902999997,2196.0
432.903999997,2176.0
432.904999997,2162.0
432.905999997,2146.0
432.906999997,2151.0
432.907999997,2160.0
432.908999997,2171.0
432.909999997,2172.0
432.910999997,2163.0
432.911999997,2136.0
432.912999997,2116.0
432.913999997,2114.0
432.914999997,2124.0
432.915999997,2129.0
432.916999997,2136.0
432.917999997,2123.0
432.918999997,2108.0
432.919999997,2096.0
432.920999997,2076.0
432.921999997,2068.0
432.922999997,2068.0
432.923999997,2071.0
432.924999997,2075.0
432.925999997,2069.0
432.926999997,2045.0
432.927999997,2053.0
432.928999997,2041.0
432.929999997,2052.0
432.930999997,2061.0
432.931999997,2061.0
432.932999997,2052.0
432.933999997,2041.0
432.934999997,2023.0
432.935999997,2022.0
432.936999997,2016.0
432.937999997,2017.0
432.938999997,2025.0
432.939999997,2022.0
432.940999997,2020.0
432.941999997,2004.0
432.942999997,1994.0
432.943999997,1975.0
432.944999997,1954.0
432.945999997,1956.0
432.946999997,1952.0
432.947999997,1948.0
432.948999997,1952.0
432.949999997,1918.0
432.950999997,1898.0
432.951999997,1877.0
432.952999997,1873.0
432.953999997,1871.0
432.954999997,1877.0
432.955999997,1889.0
432.956999997,1902.0
432.957999997,1874.0
432.958999997,1868.0
432.959999997,1863.0
432.960999997,1847.0
432.961999997,1855.0
432.962999997,1867.0
432.963999997,1879.0
432.964999997,1880.0
432.965999997,1885.0
432.966999997,1865.0
432.967999997,1857.0
432.968999997,1859.0
432.969999997,1866.0
432.970999997,1875.0
432.971999997,1859.0
432.972999997,1888.0
432.973999997,1871.0
432.974999997,1849.0
432.975999997,1838.0
432.976999997,1837.0
432.977999997,1846.0
432.978999997,1871.0
432.979999997,1913.0
432.980999997,1994.0
432.981999997,2055.0
432.982999997,2133.0
432.983999997,2193.0
432.984999997,2133.0
432.985999997,1925.0
432.986999997,1701.0
432.987999997,1415.0
432.988999997,1201.0
432.989999997,1016.0
432.990999997,790.0
432.991999997,767.0
432.992999997,825.0
432.993999997,839.0
432.994999997,930.0
432.995999997,1090.0
432.996999997,1191.0
432.997999997,1277.0
432.998999997,1302.0
432.999999997,1371.0
433.000999997,1473.0
433.001999997,1532.0
433.002999997,1663.0
433.003999997,1764.0
433.004999997,1835.0
433.005999997,1906.0
433.006999997,1952.0
433.007999997,1995.0
433.008999997,2040.0
433.009999997,2045.0
433.010999997,2065.0
433.011999997,2057.0
433.012999997,2036.0
433.013999997,2017.0
433.014999997,2020.0
433.015999997,2039.0
433.016999997,2055.0
433.017999997,2053.0
433.018999997,2059.0
433.019999997,2043.0
433.020999997,2042.0
433.021999997,2027.0
433.022999997,2008.0
433.023999997,2018.0
433.024999997,2036.0
433.025999997,2034.0
433.026999997,2036.0
433.027999997,2020.0
433.028999997,2020.0
433.029999997,2001.0
433.030999997,1992.0
433.031999997,2003.0
433.032999997,2013.0
433.033999997,2008.0
433.034999997,2004.0
433.035999997,1994.0
433.036999997,1979.0
433.037999997,1965.0
433.038999997,1961.0
433.039999997,1992.0
433.040999997,1995.0
433.041999997,2004.0
433.042999997,2000.0
433.043999997,1998.0
433.044999997,1987.0
433.045999997,1962.0
433.046999997,1962.0
433.047999997,1980.0
433.048999997,1991.0
433.049999997,2012.0
433.050999997,2009.0
433.051999997,1987.0
433.052999997,1980.0
433.053999997,1974.0
433.054999997,1966.0
433.055999997,1980.0
433.056999997,1990.0
433.057999997,1987.0
433.058999997,1987.0
433.059999997,1960.0
433.060999997,1955.0
433.061999997,1940.0
433.062999997,1934.0
433.063999997,1952.0
433.064999997,1943.0
433.065999997,1939.0
433.066999997,1917.0
433.067999997,1901.0
433.068999997,1875.0
433.069999997,1865.0
433.070999997,1857.0
433.071999997,1854.0
433.072999997,1859.0
433.073999997,1846.0
433.074999997,1820.0
433.075999997,1797.0
433.076999997,1773.0
433.077999997,1747.0
433.078999997,1734.0
433.079999997,1719.0
433.080999997,1721.0
433.081999997,1699.0
433.082999997,1673.0
433.083999997,1650.0
433.084999997,1614.0
433.085999997,1599.0
433.086999997,1589.0
433.087999997,1569.0
433.088999997,1587.0
433.089999997,1564.0
433.090999997,1550.0
433.091999997,1527.0
433.092999997,1512.0
433.093999997,1513.0
433.094999997,1519.0
433.095999997,1517.0
433.096999997,1521.0
433.097999997,1518.0
433.098999997,1503.0
433.099999997,1490.0
433.100999997,1487.0
433.101999997,1494.0
433.102999997,1506.0
433.103999997,1509.0
433.104999997,1516.0
433.105999997,1497.0
433.106999997,1495.0
433.107999997,1488.0
433.108999997,1484.0
433.109999997,1486.0
433.110999997,1492.0
433.111999997,1506.0
433.112999997,1518.0
433.113999997,1511.0
433.114999997,1506.0
433.115999997,1500.0
433.116999997,1499.0
433.117999997,1518.0
433.118999997,1528.0
433.119999997,1540.0
433.120999997,1556.0
433.121999997,1541.0
433.122999997,1546.0
433.123999997,1534.0
433.124999997,1537.0
433.125999997,1546.0
433.126999997,1552.0
433.127999997,1561.0
433.128999997,1554.0
433.129999997,1545.0
433.130999997,1544.0
433.131999997,1535.0
433.132999997,1554.0
433.133999997,1581.0
433.134999997,1574.0
433.135999997,1599.0
433.136999997,1599.0
433.137999997,1605.0
433.138999997,1593.0
433.139999997,1598.0
433.140999997,1615.0
433.141999997,1631.0
433.142999997,1639.0
433.143999997,1655.0
433.144999997,1666.0
433.145999997,1666.0
433.146999997,1662.0
433.147999997,1660.0
433.148999997,1679.0
433.149999997,1687.0
433.150999997,1705.0
433.151999997,1714.0
433.152999997,1720.0
433.153999997,1725.0
433.154999997,1717.0
433.155999997,1734.0
433.156999997,1752.0
433.157999997,1760.0
433.158999997,1776.0
433.159999997,1786.0
433.160999997,1780.0
433.161999997,1783.0
433.162999997,1784.0
433.163999997,1784.0
433.164999997,1823.0
433.165999997,1824.0
433.166999997,1851.0
433.167999997,1850.0
433.168999997,1855.0
433.169999997,1848.0
433.170999997,1847.0
433.171999997,1865.0
433.172999997,1888.0
433.173999997,1894.0
433.174999997,1910.0
433.175999997,1914.0
433.176999997,1916.0
433.177999997,1906.0
433.178999997,1911.0
433.179999997,1928.0
433.180999997,1944.0
433.181999997,1960.0
433.182999997,1964.0
433.183999997,1965.0
433.184999997,1968.0
433.185999997,1963.0
433.186999997,1974.0
433.187999997,1988.0
433.188999997,2006.0
433.189999997,2020.0
433.190999997,2027.0
433.191999997,2012.0
433.192999997,2013.0
433.193999997,2013.0
433.194999997,2015.0
433.195999997,2023.0
433.196999997,2040.0
433.197999997,2064.0
433.198999997,2064.0
433.199999997,2060.0
433.200999997,2070.0
433.201999997,2072.0
433.202999997,2086.0
433.203999997,2109.0
433.204999997,2127.0
433.205999997,2146.0
433.206999997,2160.0
433.207999997,2147.0
433.208999997,2153.0
433.209999997,2148.0
433.210999997,2164.0
433.211999997,2192.0
433.212999997,2203.0
433.213999997,2224.0
433.214999997,2244.0
433.215999997,2249.0
433.216999997,2245.0
433.217999997,2260.0
433.218999997,2274.0
433.219999997,2291.0
433.220999997,2308.0
433.221999997,2332.0
433.222999997,2337.0
433.223999997,2357.0
433.224999997,2390.0
433.225999997,2398.0
433.226999997,2445.0
433.227999997,2486.0
433.228999997,2522.0
433.229999997,2559.0
433.230999997,2564.0
433.231999997,2583.0
433.232999997,2589.0
433.233999997,2606.0
433.234999997,2654.0
433.235999997,2691.0
433.236999997,2716.0
433.237999997,2750.0
433.238999997,2766.0
433.239999997,2777.0
433.240999997,2801.0
433.241999997,2822.0
433.242999997,2851.0
433.243999997,2865.0
433.244999997,2886.0
433.245999997,2890.0
433.246999997,2905.0
433.247999997,2895.0
433.248999997,2890.0
433.249999997,2906.0
433.250999997,2934.0
433.251999997,2942.0
433.252999997,2941.0
433.253999997,2927.0
433.254999997,2919.0
433.255999997,2880.0
433.256999997,2859.0
433.257999997,2870.0
433.258999997,2883.0
433.259999997,2875.0
433.260999997,2868.0
433.261999997,2852.0
433.262999997,2835.0
433.263999997,2812.0
433.264999997,2809.0
433.265999997,2809.0
433.266999997,2805.0
433.267999997,2795.0
433.268999997,2790.0
433.269999997,2769.0
433.270999997,2755.0
433.271999997,2735.0
433.272999997,2718.0
433.273999997,2708.0
433.274999997,2708.0
433.275999997,2703.0
433.276999997,2688.0
433.277999997,2663.0
433.278999997,2647.0
433.279999997,2627.0
433.280999997,2606.0
433.281999997,2602.0
433.282999997,2587.0
433.283999997,2579.0
433.284999997,2562.0
433.285999997,2526.0
433.286999997,2506.0
433.287999997,2473.0
433.288999997,2462.0
433.289999997,2459.0
433.290999997,2456.0
433.291999997,2447.0
433.292999997,2426.0
433.293999997,2401.0
433.294999997,2385.0
433.295999997,2370.0
433.296999997,2365.0
433.297999997,2381.0
433.298999997,2369.0
433.299999997,2370.0
433.300999997,2363.0
433.301999997,2373.0
433.302999997,2408.0
433.303999997,2473.0
433.304999997,2564.0
433.305999997,2662.0
433.306999997,2716.0
433.307999997,2647.0
433.308999997,2454.0
433.309999997,2246.0
433.310999997,2010.0
433.311999997,1809.0
433.312999997,1672.0
433.313999997,1565.0
433.314999997,1513.0
433.315999997,1483.0
433.316999997,1450.0
433.317999997,1459.0
433.318999997,1549.0
433.319999997,1627.0
433.320999997,1704.0
433.321999997,1754.0
433.322999997,1780.0
433.323999997,1821.0
433.324999997,1863.0
433.325999997,1910.0
433.326999997,1966.0
433.327999997,2044.0
433.328999997,2123.0
433.329999997,2180.0
433.330999997,2215.0
433.331999997,2236.0
433.332999997,2228.0
433.333999997,2216.0
433.334999997,2206.0
433.335999997,2196.0
433.336999997,2205.0
433.337999997,2205.0
433.338999997,2205.0
433.339999997,2192.0
433.340999997,2168.0
433.341999997,2152.0
433.342999997,2136.0
433.343999997,2144.0
433.344999997,2141.0
433.345999997,2138.0
433.346999997,2136.0
433.347999997,2123.0
433.348999997,2106.0
433.349999997,2082.0
433.350999997,2076.0
433.351999997,2089.0
433.352999997,2084.0
433.353999997,2083.0
433.354999997,2083.0
433.355999997,2066.0
433.356999997,2055.0
433.357999997,2039.0
433.358999997,2034.0
433.359999997,2028.0
433.360999997,2019.0
433.361999997,2030.0
433.362999997,2022.0
433.363999997,2021.0
433.364999997,2003.0
433.365999997,1997.0
433.366999997,1978.0
433.367999997,1996.0
433.368999997,1984.0
433.369999997,2003.0
433.370999997,1993.0
433.371999997,1987.0
433.372999997,1980.0
433.373999997,1969.0
433.374999997,1984.0
433.375999997,1993.0
433.376999997,1994.0
433.377999997,2006.0
433.378999997,1997.0
433.379999997,1992.0
433.380999997,1984.0
433.381999997,1987.0
433.382999997,1991.0
433.383999997,1993.0
433.384999997,1997.0
433.385999997,2004.0
433.386999997,1984.0
433.387999997,1974.0
433.388999997,1962.0
433.389999997,1961.0
433.390999997,1959.0
433.391999997,1950.0
433.392999997,1943.0
433.393999997,1925.0
433.394999997,1918.0
433.395999997,1902.0
433.396999997,1875.0
433.397999997,1867.0
433.398999997,1864.0
433.399999997,1837.0
433.400999997,1834.0
433.401999997,1817.0
433.402999997,1792.0
433.403999997,1771.0
433.404999997,1745.0
433.405999997,1731.0
433.406999997,1728.0
433.407999997,1718.0
433.408999997,1712.0
433.409999997,1702.0
433.410999997,1676.0
433.411999997,1665.0
433.412999997,1652.0
433.413999997,1647.0
433.414999997,1654.0
433.415999997,1659.0
433.416999997,1655.0
433.417999997,1646.0
433.418999997,1635.0
433.419999997,1624.0
433.420999997,1616.0
433.421999997,1621.0
433.422999997,1636.0
433.423999997,1649.0
433.424999997,1655.0
433.425999997,1643.0
433.426999997,1641.0
433.427999997,1639.0
433.428999997,1639.0
433.429999997,1657.0
433.430999997,1656.0
433.431999997,1666.0
433.432999997,1663.0
433.433999997,1666.0
433.434999997,1651.0
433.435999997,1652.0
433.436999997,1670.0
433.437999997,1686.0
433.438999997,1708.0
433.439999997,1714.0
433.440999997,1707.0
433.441999997,1717.0
433.442999997,1736.0
433.443999997,1709.0
433.444999997,1718.0
433.445999997,1701.0
433.446999997,1718.0
433.447999997,1755.0
433.448999997,1747.0
433.449999997,1743.0
433.450999997,1745.0
433.451999997,1739.0
433.452999997,1746.0
433.453999997,1763.0
433.454999997,1779.0
433.455999997,1786.0
433.456999997,1781.0
433.457999997,1779.0
433.458999997,1795.0
433.459999997,1783.0
433.460999997,1786.0
433.461999997,1795.0
433.462999997,1808.0
433.463999997,1824.0
433.464999997,1817.0
433.465999997,1823.0
433.466999997,1803.0
433.467999997,1812.0
433.468999997,1827.0
433.469999997,1832.0
433.470999997,1835.0
433.471999997,1848.0
433.472999997,1838.0
433.473999997,1839.0
433.474999997,1841.0
433.475999997,1838.0
433.476999997,1859.0
433.477999997,1867.0
433.478999997,1871.0
433.479999997,1870.0
433.480999997,1861.0
433.481999997,1862.0
433.482999997,1857.0
433.483999997,1858.0
433.484999997,1873.0
433.485999997,1881.0
433.486999997,1890.0
433.487999997,1885.0
433.488999997,1873.0
433.489999997,1874.0
433.490999997,1869.0
433.491999997,1883.0
433.492999997,1894.0
433.493999997,1900.0
433.494999997,1896.0
433.495999997,1898.0
433.496999997,1894.0
433.497999997,1885.0
433.498999997,1881.0
433.499999997,1881.0
433.500999997,1894.0
433.501999997,1900.0
433.502999997,1902.0
433.503999997,1902.0
433.504999997,1897.0
433.505999997,1889.0
433.506999997,1887.0
433.507999997,1890.0
433.508999997,1906.0
433.509999997,1910.0
433.510999997,1909.0
433.511999997,1908.0
433.512999997,1907.0
433.513999997,1895.0
433.514999997,1904.0
433.515999997,1911.0
433.516999997,1927.0
433.517999997,1936.0
433.518999997,1929.0
433.519999997,1922.0
433.520999997,1918.0
433.521999997,1908.0
433.522999997,1914.0
433.523999997,1924.0
433.524999997,1931.0
433.525999997,1936.0
433.526999997,1932.0
433.527999997,1915.0
433.528999997,1909.0
433.529999997,1906.0
433.530999997,1910.0
433.531999997,1928.0
433.532999997,1945.0
433.533999997,1939.0
433.534999997,1936.0
433.535999997,1939.0
433.536999997,1926.0
433.537999997,1922.0
433.538999997,1933.0
433.539999997,1941.0
433.540999997,1955.0
433.541999997,1949.0
433.542999997,1943.0
433.543999997,1945.0
433.544999997,1936.0
433.545999997,1937.0
433.546999997,1946.0
433.547999997,1941.0
433.548999997,1956.0
433.549999997,1965.0
433.550999997,1951.0
433.551999997,1948.0
433.552999997,1944.0
433.553999997,1944.0
433.554999997,1957.0
433.555999997,1962.0
433.556999997,1971.0
433.557999997,1980.0
433.558999997,1984.0
433.559999997,1989.0
433.560999997,1983.0
433.561999997,1979.0
433.562999997,1985.0
433.563999997,1982.0
433.564999997,1985.0
433.565999997,1984.0
433.566999997,1982.0
433.567999997,1971.0
433.568999997,1958.0
433.569999997,1971.0
433.570999997,1973.0
433.571999997,1978.0
433.572999997,1983.0
433.573999997,1974.0
433.574999997,1968.0
433.575999997,1959.0
433.576999997,1958.0
433.577999997,1960.0
433.578999997,1966.0
433.579999997,1969.0
433.580999997,1973.0
433.581999997,1966.0
433.582999997,1960.0
433.583999997,1957.0
433.584999997,1944.0
433.585999997,1955.0
433.586999997,1963.0
433.587999997,1966.0
433.588999997,1980.0
433.589999997,1970.0
433.590999997,1973.0
433.591999997,1952.0
433.592999997,1949.0
433.593999997,1956.0
433.594999997,1963.0
433.595999997,1970.0
433.596999997,1974.0
433.597999997,1969.0
433.598999997,1963.0
433.599999997,1960.0
433.600999997,1964.0
433.601999997,1969.0
433.602999997,1988.0
433.603999997,1995.0
433.604999997,1992.0
433.605999997,1998.0
433.606999997,1994.0
433.607999997,1998.0
433.608999997,2014.0
433.609999997,2046.0
433.610999997,2104.0
433.611999997,2199.0
433.612999997,2287.0
433.613999997,2384.0
433.614999997,2424.0
433.615999997,2354.0
433.616999997,2167.0
433.617999997,1962.0
433.618999997,1740.0
433.619999997,1579.0
433.620999997,1432.0
433.621999997,1319.0
433.622999997,1269.0
433.623999997,1242.0
433.624999997,1247.0
433.625999997,1278.0
433.626999997,1402.0
433.627999997,1492.0
433.628999997,1553.0
433.629999997,1600.0
433.630999997,1655.0
433.631999997,1714.0
433.632999997,1785.0
433.633999997,1859.0
433.634999997,1952.0
433.635999997,2045.0
433.636999997,2116.0
433.637999997,2168.0
433.638999997,2193.0
433.639999997,2235.0
433.640999997,2241.0
433.641999997,2244.0
433.642999997,2247.0
433.643999997,2238.0
433.644999997,2235.0
433.645999997,2230.0
433.646999997,2220.0
433.647999997,2226.0
433.648999997,2237.0
433.649999997,2241.0
433.650999997,2244.0
433.651999997,2240.0
433.652999997,2221.0
433.653999997,2222.0
433.654999997,2200.0
433.655999997,2217.0
433.656999997,2215.0
433.657999997,2214.0
433.658999997,2216.0
433.659999997,2213.0
433.660999997,2201.0
433.661999997,2182.0
433.662999997,2184.0
433.663999997,2201.0
433.664999997,2201.0
433.665999997,2201.0
433.666999997,2192.0
433.667999997,2193.0
433.668999997,2186.0
433.669999997,2184.0
433.670999997,2180.0
433.671999997,2185.0
433.672999997,2190.0
433.673999997,2197.0
433.674999997,2192.0
433.675999997,2178.0
433.676999997,2178.0
433.677999997,2167.0
433.678999997,2179.0
433.679999997,2190.0
433.680999997,2191.0
433.681999997,2202.0
433.682999997,2207.0
433.683999997,2204.0
433.684999997,2204.0
433.685999997,2205.0
433.686999997,2216.0
433.687999997,2216.0
433.688999997,2231.0
433.689999997,2231.0
433.690999997,2226.0
433.691999997,2220.0
433.692999997,2214.0
433.693999997,2207.0
433.694999997,2211.0
433.695999997,2219.0
433.696999997,2226.0
433.697999997,2223.0
433.698999997,2212.0
433.699999997,2199.0
433.700999997,2187.0
433.701999997,2171.0
433.702999997,2172.0
433.703999997,2160.0
433.704999997,2165.0
433.705999997,2147.0
433.706999997,2118.0
433.707999997,2095.0
433.708999997,2077.0
433.709999997,2053.0
433.710999997,2048.0
433.711999997,2030.0
433.712999997,2027.0
433.713999997,2002.0
433.714999997,1977.0
433.715999997,1956.0
433.716999997,1934.0
433.717999997,1934.0
433.718999997,1934.0
433.719999997,1931.0
433.720999997,1927.0
433.721999997,1906.0
433.722999997,1886.0
433.723999997,1880.0
433.724999997,1866.0
433.725999997,1865.0
433.726999997,1866.0
433.727999997,1872.0
433.728999997,1874.0
433.729999997,1866.0
433.730999997,1858.0
433.731999997,1843.0
433.732999997,1839.0
433.733999997,1854.0
433.734999997,1856.0
433.735999997,1868.0
433.736999997,1873.0
433.737999997,1863.0
433.738999997,1860.0
433.739999997,1849.0
433.740999997,1861.0
433.741999997,1870.0
433.742999997,1877.0
433.743999997,1883.0
433.744999997,1889.0
433.745999997,1888.0
433.746999997,1890.0
433.747999997,1884.0
433.748999997,1896.0
433.749999997,1897.0
433.750999997,1905.0
433.751999997,1913.0
433.752999997,1917.0
433.753999997,1910.0
433.754999997,1907.0
433.755999997,1908.0
433.756999997,1921.0
433.757999997,1936.0
433.758999997,1945.0
433.759999997,1948.0
433.760999997,1959.0
433.761999997,1942.0
433.762999997,1950.0
433.763999997,1956.0
433.764999997,1957.0
433.765999997,1971.0
433.766999997,1984.0
433.767999997,1981.0
433.768999997,1980.0
433.769999997,1983.0
433.770999997,1973.0
433.771999997,1972.0
433.772999997,1982.0
433.773999997,1997.0
433.774999997,2001.0
433.775999997,2004.0
433.776999997,1998.0
433.777999997,1997.0
433.778999997,1990.0
433.779999997,1996.0
433.780999997,2006.0
433.781999997,2008.0
433.782999997,2021.0
433.783999997,2015.0
433.784999997,2008.0
433.785999997,1995.0
433.786999997,1995.0
433.787999997,1987.0
433.788999997,2007.0
433.789999997,2012.0
433.790999997,2009.0
433.791999997,2010.0
433.792999997,2004.0
433.793999997,2003.0
433.794999997,1997.0
433.795999997,2009.0
433.796999997,2022.0
433.797999997,2028.0
433.798999997,2039.0
433.799999997,2026.0
433.800999997,2021.0
433.801999997,2009.0
433.802999997,2007.0
433.803999997,2011.0
433.804999997,2026.0
433.805999997,2025.0
433.806999997,2025.0
433.807999997,2026.0
433.808999997,2025.0
433.809999997,2007.0
433.810999997,2006.0
433.811999997,2017.0
433.812999997,2030.0
433.813999997,2032.0
433.814999997,2038.0
433.815999997,2029.0
433.816999997,2024.0
433.817999997,2022.0
433.818999997,2015.0
433.819999997,2024.0
433.820999997,2031.0
433.821999997,2036.0
433.822999997,2030.0
433.823999997,2029.0
433.824999997,2026.0
433.825999997,2015.0
433.826999997,2019.0
433.827999997,2026.0
433.828999997,2034.0
433.829999997,2032.0
433.830999997,2039.0
433.831999997,2026.0
433.832999997,2022.0
433.833999997,2013.0
433.834999997,2020.0
433.835999997,2028.0
433.836999997,2037.0
433.837999997,2041.0
433.838999997,2039.0
433.839999997,2030.0
433.840999997,2032.0
433.841999997,2025.0
433.842999997,2022.0
433.843999997,2034.0
433.844999997,2039.0
433.845999997,2039.0
433.846999997,2034.0
433.847999997,2036.0
433.848999997,2024.0
433.849999997,2016.0
433.850999997,2029.0
433.851999997,2030.0
433.852999997,2044.0
433.853999997,2049.0
433.854999997,2040.0
433.855999997,2029.0
433.856999997,2028.0
433.857999997,2041.0
433.858999997,2039.0
433.859999997,2046.0
433.860999997,2054.0
433.861999997,2051.0
433.862999997,2040.0
433.863999997,2036.0
433.864999997,2037.0
433.865999997,2044.0
433.866999997,2040.0
433.867999997,2050.0
433.868999997,2060.0
433.869999997,2051.0
433.870999997,2050.0
433.871999997,2038.0
433.872999997,2036.0
433.873999997,2037.0
433.874999997,2050.0
433.875999997,2052.0
433.876999997,2065.0
433.877999997,2052.0
433.878999997,2048.0
433.879999997,2032.0
433.880999997,2041.0
433.881999997,2039.0
433.882999997,2050.0
433.883999997,2062.0
433.884999997,2067.0
433.885999997,2063.0
433.886999997,2054.0
433.887999997,2052.0
433.888999997,2058.0
433.889999997,2083.0
433.890999997,2084.0
433.891999997,2085.0
433.892999997,2086.0
433.893999997,2068.0
433.894999997,2056.0
433.895999997,2043.0
433.896999997,2052.0
433.897999997,2063.0
433.898999997,2057.0
433.899999997,2068.0
433.900999997,2059.0
433.901999997,2072.0
433.902999997,2048.0
433.903999997,2004.0
433.904999997,2035.0
433.905999997,2036.0
433.906999997,2050.0
433.907999997,2051.0
433.908999997,2049.0
433.909999997,2034.0
433.910999997,2027.0
433.911999997,2064.0
433.912999997,2029.0
433.913999997,2027.0
433.914999997,2012.0
433.915999997,2041.0
433.916999997,2050.0
433.917999997,2042.0
433.918999997,2060.0
433.919999997,2011.0
433.920999997,2039.0
433.921999997,2048.0
433.922999997,2041.0
433.923999997,2036.0
433.924999997,2030.0
433.925999997,2026.0
433.926999997,2021.0
433.927999997,2020.0
433.928999997,2024.0
433.929999997,2035.0
433.930999997,2045.0
433.931999997,2043.0
433.932999997,2039.0
433.933999997,2040.0
433.934999997,2043.0
433.935999997,2047.0
433.936999997,2059.0
433.937999997,2069.0
433.938999997,2082.0
433.939999997,2097.0
433.940999997,2139.0
433.941999997,2209.0
433.942999997,2286.0
433.943999997,2408.0
433.944999997,2470.0
433.945999997,2427.0
433.946999997,2240.0
433.947999997,2035.0
433.948999997,1787.0
433.949999997,1607.0
433.950999997,1476.0
433.951999997,1373.0
433.952999997,1314.0
433.953999997,1275.0
433.954999997,1256.0
433.955999997,1281.0
433.956999997,1386.0
433.957999997,1490.0
433.958999997,1564.0
433.959999997,1629.0
433.960999997,1697.0
433.961999997,1780.0
433.962999997,1843.0
433.963999997,1908.0
433.964999997,2003.0
433.965999997,2099.0
433.966999997,2168.0
433.967999997,2236.0
433.968999997,2277.0
433.969999997,2305.0
433.970999997,2315.0
433.971999997,2309.0
433.972999997,2308.0
433.973999997,2290.0
433.974999997,2301.0
433.975999997,2298.0
433.976999997,2302.0
433.977999997,2305.0
433.978999997,2297.0
433.979999997,2286.0
433.980999997,2283.0
433.981999997,2269.0
433.982999997,2270.0
433.983999997,2276.0
433.984999997,2272.0
433.985999997,2278.0
433.986999997,2268.0
433.987999997,2257.0
433.988999997,2243.0
433.989999997,2238.0
433.990999997,2240.0
433.991999997,2241.0
433.992999997,2245.0
433.993999997,2241.0
433.994999997,2233.0
433.995999997,2223.0
433.996999997,2216.0
433.997999997,2210.0
433.998999997,2214.0
433.999999997,2230.0
434.000999997,2222.0
434.001999997,2234.0
434.002999997,2223.0
434.003999997,2216.0
434.004999997,2214.0
434.005999997,2216.0
434.006999997,2224.0
434.007999997,2230.0
434.008999997,2239.0
434.009999997,2233.0
434.010999997,2239.0
434.011999997,2236.0
434.012999997,2229.0
434.013999997,2233.0
434.014999997,2245.0
434.015999997,2247.0
434.016999997,2249.0
434.017999997,2253.0
434.018999997,2254.0
434.019999997,2248.0
434.020999997,2241.0
434.021999997,2239.0
434.022999997,2250.0
434.023999997,2249.0
434.024999997,2256.0
434.025999997,2257.0
434.026999997,2234.0
434.027999997,2226.0
434.028999997,2216.0
434.029999997,2218.0
434.030999997,2216.0
434.031999997,2213.0
434.032999997,2205.0
434.033999997,2191.0
434.034999997,2175.0
434.035999997,2150.0
434.036999997,2136.0
434.037999997,2123.0
434.038999997,2115.0
434.039999997,2100.0
434.040999997,2075.0
434.041999997,2050.0
434.042999997,2024.0
434.043999997,1995.0
434.044999997,1988.0
434.045999997,1976.0
434.046999997,1962.0
434.047999997,1961.0
434.048999997,1956.0
434.049999997,1932.0
434.050999997,1921.0
434.051999997,1904.0
434.052999997,1899.0
434.053999997,1903.0
434.054999997,1904.0
434.055999997,1899.0
434.056999997,1886.0
434.057999997,1871.0
434.058999997,1866.0
434.059999997,1849.0
434.060999997,1855.0
434.061999997,1865.0
434.062999997,1863.0
434.063999997,1870.0
434.064999997,1871.0
434.065999997,1857.0
434.066999997,1857.0
434.067999997,1850.0
434.068999997,1870.0
434.069999997,1876.0
434.070999997,1875.0
434.071999997,1884.0
434.072999997,1878.0
434.073999997,1882.0
434.074999997,1885.0
434.075999997,1867.0
434.076999997,1882.0
434.077999997,1898.0
434.078999997,1902.0
434.079999997,1905.0
434.080999997,1902.0
434.081999997,1902.0
434.082999997,1902.0
434.083999997,1893.0
434.084999997,1911.0
434.085999997,1917.0
434.086999997,1928.0
434.087999997,1930.0
434.088999997,1929.0
434.089999997,1923.0
434.090999997,1922.0
434.091999997,1920.0
434.092999997,1934.0
434.093999997,1947.0
434.094999997,1953.0
434.095999997,1956.0
434.096999997,1962.0
434.097999997,1958.0
434.098999997,1955.0
434.099999997,1954.0
434.100999997,1967.0
434.101999997,1980.0
434.102999997,1989.0
434.103999997,1983.0
434.104999997,1979.0
434.105999997,1982.0
434.106999997,1972.0
434.107999997,1977.0
434.108999997,1992.0
434.109999997,2007.0
434.110999997,2007.0
434.111999997,2006.0
434.112999997,2002.0
434.113999997,1993.0
434.114999997,1995.0
434.115999997,2004.0
434.116999997,2015.0
434.117999997,2017.0
434.118999997,2031.0
434.119999997,2025.0
434.120999997,2022.0
434.121999997,2019.0
434.122999997,2019.0
434.123999997,2021.0
434.124999997,2021.0
434.125999997,2034.0
434.126999997,2033.0
434.127999997,2033.0
434.128999997,2023.0
434.129999997,2021.0
434.130999997,2015.0
434.131999997,2033.0
434.132999997,2029.0
434.133999997,2038.0
434.134999997,2038.0
434.135999997,2029.0
434.136999997,2032.0
434.137999997,2013.0
434.138999997,2023.0
434.139999997,2029.0
434.140999997,2033.0
434.141999997,2041.0
434.142999997,2042.0
434.143999997,2034.0
434.144999997,2035.0
434.145999997,2025.0
434.146999997,2031.0
434.147999997,2030.0
434.148999997,2037.0
434.149999997,2049.0
434.150999997,2036.0
434.151999997,2034.0
434.152999997,2027.0
434.153999997,2024.0
434.154999997,2031.0
434.155999997,2031.0
434.156999997,2038.0
434.157999997,2047.0
434.158999997,2040.0
434.159999997,2031.0
434.160999997,2036.0
434.161999997,2035.0
434.162999997,2046.0
434.163999997,2042.0
434.164999997,2045.0
434.165999997,2047.0
434.166999997,2042.0
434.167999997,2044.0
434.168999997,2032.0
434.169999997,2034.0
434.170999997,2038.0
434.171999997,2039.0
434.172999997,2052.0
434.173999997,2058.0
434.174999997,2013.0
434.175999997,2044.0
434.176999997,2036.0
434.177999997,2034.0
434.178999997,2041.0
434.179999997,2055.0
434.180999997,2047.0
434.181999997,2052.0
434.182999997,2040.0
434.183999997,2031.0
434.184999997,2017.0
434.185999997,2028.0
434.186999997,2037.0
434.187999997,2038.0
434.188999997,2044.0
434.189999997,2047.0
434.190999997,2035.0
434.191999997,2035.0
434.192999997,2023.0
434.193999997,2040.0
434.194999997,2043.0
434.195999997,2048.0
434.196999997,2044.0
434.197999997,2039.0
434.198999997,2028.0
434.199999997,2031.0
434.200999997,2030.0
434.201999997,2041.0
434.202999997,2046.0
434.203999997,2053.0
434.204999997,2051.0
434.205999997,2052.0
434.206999997,2051.0
434.207999997,2041.0
434.208999997,2034.0
434.209999997,2046.0
434.210999997,2050.0
434.211999997,2057.0
434.212999997,2051.0
434.213999997,2045.0
434.214999997,2041.0
434.215999997,2040.0
434.216999997,2033.0
434.217999997,2051.0
434.218999997,2053.0
434.219999997,2057.0
434.220999997,2054.0
434.221999997,2050.0
434.222999997,2042.0
434.223999997,2042.0
434.224999997,2048.0
434.225999997,2048.0
434.226999997,2061.0
434.227999997,2065.0
434.228999997,2065.0
434.229999997,2057.0
434.230999997,2039.0
434.231999997,2042.0
434.232999997,2046.0
434.233999997,2045.0
434.234999997,2040.0
434.235999997,2052.0
434.236999997,2051.0
434.237999997,2040.0
434.238999997,2040.0
434.239999997,2042.0
434.240999997,2052.0
434.241999997,2051.0
434.242999997,2061.0
434.243999997,2069.0
434.244999997,2044.0
434.245999997,2044.0
434.246999997,2033.0
434.247999997,2036.0
434.248999997,2044.0
434.249999997,2047.0
434.250999997,2054.0
434.251999997,2061.0
434.252999997,2055.0
434.253999997,2049.0
434.254999997,2042.0
434.255999997,2040.0
434.256999997,2052.0
434.257999997,2044.0
434.258999997,2060.0
434.259999997,2077.0
434.260999997,2066.0
434.261999997,2066.0
434.262999997,2054.0
434.263999997,2051.0
434.264999997,2059.0
434.265999997,2057.0
434.266999997,2084.0
434.267999997,2069.0
434.268999997,2059.0
434.269999997,2064.0
434.270999997,2040.0
434.271999997,2046.0
434.272999997,2052.0
434.273999997,2064.0
434.274999997,2049.0
434.275999997,2037.0
434.276999997,2029.0
434.277999997,2022.0
434.278999997,2015.0
434.279999997,2023.0
434.280999997,2013.0
434.281999997,2011.0
434.282999997,2025.0
434.283999997,2014.0
434.284999997,2000.0
434.285999997,2002.0
434.286999997,1997.0
434.287999997,2016.0
434.288999997,2020.0
434.289999997,2034.0
434.290999997,2024.0
434.291999997,2007.0
434.292999997,2009.0
434.293999997,1990.0
434.294999997,1994.0
434.295999997,1998.0
434.296999997,2005.0
434.297999997,2009.0
434.298999997,2005.0
434.299999997,2006.0
434.300999997,1991.0
434.301999997,1997.0
434.302999997,2009.0
434.303999997,2019.0
434.304999997,2030.0
434.305999997,2035.0
434.306999997,2036.0
434.307999997,2036.0
434.308999997,2035.0
434.309999997,2050.0
434.310999997,2120.0
434.311999997,2222.0
434.312999997,2345.0
434.313999997,2438.0
434.314999997,2455.0
434.315999997,2322.0
434.316999997,2090.0
434.317999997,1868.0
434.318999997,1657.0
434.319999997,1525.0
434.320999997,1418.0
434.321999997,1315.0
434.322999997,1263.0
434.323999997,1216.0
434.324999997,1220.0
434.325999997,1290.0
434.326999997,1444.0
434.327999997,1548.0
434.328999997,1622.0
434.329999997,1689.0
434.330999997,1747.0
434.331999997,1817.0
434.332999997,1868.0
434.333999997,1948.0
434.334999997,2069.0
434.335999997,2160.0
434.336999997,2225.0
434.337999997,2259.0
434.338999997,2287.0
434.339999997,2296.0
434.340999997,2287.0
434.341999997,2300.0
434.342999997,2314.0
434.343999997,2327.0
434.344999997,2318.0
434.345999997,2316.0
434.346999997,2297.0
434.347999997,2297.0
434.348999997,2287.0
434.349999997,2286.0
434.350999997,2289.0
434.351999997,2265.0
434.352999997,2290.0
434.353999997,2314.0
434.354999997,2263.0
434.355999997,2256.0
434.356999997,2241.0
434.357999997,2235.0
434.358999997,2240.0
434.359999997,2242.0
434.360999997,2286.0
434.361999997,2271.0
434.362999997,2266.0
434.363999997,2235.0
434.364999997,2234.0
434.365999997,2241.0
434.366999997,2240.0
434.367999997,2234.0
434.368999997,2241.0
434.369999997,2233.0
434.370999997,2221.0
434.371999997,2210.0
434.372999997,2216.0
434.373999997,2216.0
434.374999997,2228.0
434.375999997,2218.0
434.376999997,2218.0
434.377999997,2223.0
434.378999997,2205.0
434.379999997,2219.0
434.380999997,2225.0
434.381999997,2238.0
434.382999997,2244.0
434.383999997,2252.0
434.384999997,2253.0
434.385999997,2246.0
434.386999997,2241.0
434.387999997,2232.0
434.388999997,2242.0
434.389999997,2252.0
434.390999997,2268.0
434.391999997,2260.0
434.392999997,2257.0
434.393999997,2259.0
434.394999997,2245.0
434.395999997,2235.0
434.396999997,2236.0
434.397999997,2235.0
434.398999997,2236.0
434.399999997,2223.0
434.400999997,2214.0
434.401999997,2200.0
434.402999997,2180.0
434.403999997,2166.0
434.404999997,2162.0
434.405999997,2139.0
434.406999997,2127.0
434.407999997,2105.0
434.408999997,2092.0
434.409999997,2074.0
434.410999997,2051.0
434.411999997,2040.0
434.412999997,2034.0
434.413999997,2018.0
434.414999997,2011.0
434.415999997,1984.0
434.416999997,1968.0
434.417999997,1937.0
434.418999997,1903.0
434.419999997,1905.0
434.420999997,1891.0
434.421999997,1888.0
434.422999997,1878.0
434.423999997,1871.0
434.424999997,1860.0
434.425999997,1846.0
434.426999997,1834.0
434.427999997,1828.0
434.428999997,1835.0
434.429999997,1833.0
434.430999997,1824.0
434.431999997,1825.0
434.432999997,1833.0
434.433999997,1815.0
434.434999997,1807.0
434.435999997,1812.0
434.436999997,1816.0
434.437999997,1820.0
434.438999997,1829.0
434.439999997,1835.0
434.440999997,1836.0
434.441999997,1826.0
434.442999997,1824.0
434.443999997,1826.0
434.444999997,1829.0
434.445999997,1820.0
434.446999997,1831.0
434.447999997,1811.0
434.448999997,1817.0
434.449999997,1813.0
434.450999997,1816.0
434.451999997,1837.0
434.452999997,1834.0
434.453999997,1840.0
434.454999997,1833.0
434.455999997,1831.0
434.456999997,1815.0
434.457999997,1815.0
434.458999997,1821.0
434.459999997,1831.0
434.460999997,1844.0
434.461999997,1846.0
434.462999997,1851.0
434.463999997,1849.0
434.464999997,1843.0
434.465999997,1845.0
434.466999997,1857.0
434.467999997,1868.0
434.468999997,1877.0
434.469999997,1890.0
434.470999997,1892.0
434.471999997,1887.0
434.472999997,1888.0
434.473999997,1889.0
434.474999997,1901.0
434.475999997,1910.0
434.476999997,1928.0
434.477999997,1924.0
434.478999997,1907.0
434.479999997,1916.0
434.480999997,1914.0
434.481999997,1924.0
434.482999997,1950.0
434.483999997,1966.0
434.484999997,1981.0
434.485999997,1970.0
434.486999997,1967.0
434.487999997,1957.0
434.488999997,1950.0
434.489999997,1952.0
434.490999997,1972.0
434.491999997,1962.0
434.492999997,1989.0
434.493999997,1992.0
434.494999997,1977.0
434.495999997,1982.0
434.496999997,1964.0
434.497999997,1976.0
434.498999997,1985.0
434.499999997,1984.0
434.500999997,1993.0
434.501999997,1982.0
434.502999997,1985.0
434.503999997,1986.0
434.504999997,1980.0
434.505999997,1989.0
434.506999997,1986.0
434.507999997,1999.0
434.508999997,2006.0
434.509999997,2003.0
434.510999997,2000.0
434.511999997,1992.0
434.512999997,1988.0
434.513999997,1990.0
434.514999997,2011.0
434.515999997,2020.0
434.516999997,2016.0
434.517999997,2007.0
434.518999997,2004.0
434.519999997,1997.0
434.520999997,1996.0
434.521999997,1998.0
434.522999997,1998.0
434.523999997,2010.0
434.524999997,2007.0
434.525999997,1995.0
434.526999997,1982.0
434.527999997,1991.0
434.528999997,1983.0
434.529999997,1993.0
434.530999997,1989.0
434.531999997,1993.0
434.532999997,1982.0
434.533999997,1978.0
434.534999997,1963.0
434.535999997,1960.0
434.536999997,1967.0
434.537999997,1976.0
434.538999997,1989.0
434.539999997,1991.0
434.540999997,1992.0
434.541999997,1986.0
434.542999997,1986.0
434.543999997,1981.0
434.544999997,1993.0
434.545999997,2000.0
434.546999997,1997.0
434.547999997,2003.0
434.548999997,2006.0
434.549999997,1991.0
434.550999997,1983.0
434.551999997,1989.0
434.552999997,1997.0
434.553999997,1997.0
434.554999997,2008.0
434.555999997,2002.0
434.556999997,2009.0
434.557999997,1994.0
434.558999997,2001.0
434.559999997,2001.0
434.560999997,2025.0
434.561999997,2014.0
434.562999997,2033.0
434.563999997,2023.0
434.564999997,2011.0
434.565999997,2005.0
434.566999997,2003.0
434.567999997,2022.0
434.568999997,2018.0
434.569999997,2033.0
434.570999997,2050.0
434.571999997,2025.0
434.572999997,2036.0
434.573999997,2027.0
434.574999997,2014.0
434.575999997,2025.0
434.576999997,2049.0
434.577999997,2019.0
434.578999997,2046.0
434.579999997,2038.0
434.580999997,2029.0
434.581999997,2040.0
434.582999997,2031.0
434.583999997,2040.0
434.584999997,2050.0
434.585999997,2050.0
434.586999997,2055.0
434.587999997,2050.0
434.588999997,2039.0
434.589999997,2022.0
434.590999997,2017.0
434.591999997,2039.0
434.592999997,2042.0
434.593999997,2052.0
434.594999997,2060.0
434.595999997,2050.0
434.596999997,2046.0
434.597999997,2032.0
434.598999997,2028.0
434.599999997,2047.0
434.600999997,2040.0
434.601999997,2046.0
434.602999997,2045.0
434.603999997,2047.0
434.604999997,2055.0
434.605999997,2038.0
434.606999997,2044.0
434.607999997,2048.0
434.608999997,2047.0
434.609999997,2054.0
434.610999997,2067.0
434.611999997,2052.0
434.612999997,2044.0
434.613999997,2048.0
434.614999997,2051.0
434.615999997,2059.0
434.616999997,2054.0
434.617999997,2061.0
434.618999997,2058.0
434.619999997,2054.0
434.620999997,2057.0
434.621999997,2049.0
434.622999997,2055.0
434.623999997,2064.0
434.624999997,2072.0
434.625999997,2069.0
434.626999997,2064.0
434.627999997,2061.0
434.628999997,2057.0
434.629999997,2049.0
434.630999997,2052.0
434.631999997,2048.0
434.632999997,2058.0
434.633999997,2049.0
434.634999997,2034.0
434.635999997,2026.0
434.636999997,2011.0
434.637999997,2044.0
434.638999997,2025.0
434.639999997,2047.0
434.640999997,2048.0
434.641999997,2032.0
434.642999997,2026.0
434.643999997,2017.0
434.644999997,1995.0
434.645999997,1992.0
434.646999997,1996.0
434.647999997,2004.0
434.648999997,2020.0
434.649999997,2014.0
434.650999997,1998.0
434.651999997,1982.0
434.652999997,1960.0
434.653999997,1964.0
434.654999997,1960.0
434.655999997,1973.0
434.656999997,1968.0
434.657999997,1958.0
434.658999997,1952.0
434.659999997,1934.0
434.660999997,1908.0
434.661999997,1905.0
434.662999997,1910.0
434.663999997,1919.0
434.664999997,1914.0
434.665999997,1911.0
434.666999997,1890.0
434.667999997,1878.0
434.668999997,1878.0
434.669999997,1878.0
434.670999997,1880.0
434.671999997,1884.0
434.672999997,1893.0
434.673999997,1882.0
434.674999997,1888.0
434.675999997,1872.0
434.676999997,1878.0
434.677999997,1872.0
434.678999997,1885.0
434.679999997,1904.0
434.680999997,1900.0
434.681999997,1866.0
434.682999997,1887.0
434.683999997,1881.0
434.684999997,1877.0
434.685999997,1892.0
434.686999997,1891.0
434.687999997,1887.0
434.688999997,1878.0
434.689999997,1868.0
434.690999997,1866.0
434.691999997,1853.0
434.692999997,1849.0
434.693999997,1858.0
434.694999997,1844.0
434.695999997,1859.0
434.696999997,1861.0
434.697999997,1859.0
434.698999997,1876.0
434.699999997,1918.0
434.700999997,2004.0
434.701999997,2104.0
434.702999997,2213.0
434.703999997,2267.0
434.704999997,2217.0
434.705999997,2027.0
434.706999997,1820.0
434.707999997,1603.0
434.708999997,1457.0
434.709999997,1333.0
434.710999997,1238.0
434.711999997,1190.0
434.712999997,1181.0
434.713999997,1129.0
434.714999997,1161.0
434.715999997,1253.0
434.716999997,1387.0
434.717999997,1484.0
434.718999997,1563.0
434.719999997,1610.0
434.720999997,1649.0
434.721999997,1717.0
434.722999997,1765.0
434.723999997,1833.0
434.724999997,1900.0
434.725999997,1994.0
434.726999997,2057.0
434.727999997,2091.0
434.728999997,2128.0
434.729999997,2144.0
434.730999997,2148.0
434.731999997,2159.0
434.732999997,2170.0
434.733999997,2168.0
434.734999997,2182.0
434.735999997,2178.0
434.736999997,2172.0
434.737999997,2167.0
434.738999997,2159.0
434.739999997,2154.0
434.740999997,2163.0
434.741999997,2175.0
434.742999997,2176.0
434.743999997,2167.0
434.744999997,2175.0
434.745999997,2159.0
434.746999997,2157.0
434.747999997,2167.0
434.748999997,2171.0
434.749999997,2187.0
434.750999997,2194.0
434.751999997,2186.0
434.752999997,2179.0
434.753999997,2172.0
434.754999997,2166.0
434.755999997,2172.0
434.756999997,2181.0
434.757999997,2196.0
434.758999997,2202.0
434.759999997,2181.0
434.760999997,2186.0
434.761999997,2184.0
434.762999997,2187.0
434.763999997,2193.0
434.764999997,2198.0
434.765999997,2209.0
434.766999997,2214.0
434.767999997,2203.0
434.768999997,2204.0
434.769999997,2204.0
434.770999997,2207.0
434.771999997,2229.0
434.772999997,2229.0
434.773999997,2240.0
434.774999997,2247.0
434.775999997,2223.0
434.776999997,2235.0
434.777999997,2236.0
434.778999997,2237.0
434.779999997,2250.0
434.780999997,2258.0
434.781999997,2255.0
434.782999997,2262.0
434.783999997,2254.0
434.784999997,2259.0
434.785999997,2254.0
434.786999997,2258.0
434.787999997,2252.0
434.788999997,2257.0
434.789999997,2255.0
434.790999997,2245.0
434.791999997,2225.0
434.792999997,2214.0
434.793999997,2197.0
434.794999997,2196.0
434.795999997,2179.0
434.796999997,2177.0
434.797999997,2162.0
434.798999997,2151.0
434.799999997,2121.0
434.800999997,2123.0
434.801999997,2089.0
434.802999997,2087.0
434.803999997,2075.0
434.804999997,2069.0
434.805999997,2046.0
434.806999997,2045.0
434.807999997,2046.0
434.808999997,2009.0
434.809999997,1999.0
434.810999997,2012.0
434.811999997,2001.0
434.812999997,1996.0
434.813999997,1980.0
434.814999997,1978.0
434.815999997,1966.0
434.816999997,1982.0
434.817999997,1964.0
434.818999997,1926.0
434.819999997,1982.0
434.820999997,1970.0
434.821999997,1968.0
434.822999997,1962.0
434.823999997,1959.0
434.824999997,1971.0
434.825999997,1986.0
434.826999997,1984.0
434.827999997,1997.0
434.828999997,1980.0
434.829999997,1964.0
434.830999997,1988.0
434.831999997,1989.0
434.832999997,1978.0
434.833999997,1970.0
434.834999997,2012.0
434.835999997,2020.0
434.836999997,2011.0
434.837999997,2012.0
434.838999997,2003.0
434.839999997,1999.0
434.840999997,1997.0
434.841999997,2013.0
434.842999997,2013.0
434.843999997,2029.0
434.844999997,2032.0
434.845999997,2027.0
434.846999997,2032.0
434.847999997,2020.0
434.848999997,2034.0
434.849999997,2039.0
434.850999997,2065.0
434.851999997,2078.0
434.852999997,2079.0
434.853999997,2071.0
434.854999997,2070.0
434.855999997,2073.0
434.856999997,2087.0
434.857999997,2097.0
434.858999997,2102.0
434.859999997,2108.0
434.860999997,2109.0
434.861999997,2110.0
434.862999997,2105.0
434.863999997,2101.0
434.864999997,2113.0
434.865999997,2124.0
434.866999997,2123.0
434.867999997,2130.0
434.868999997,2127.0
434.869999997,2132.0
434.870999997,2129.0
434.871999997,2135.0
434.872999997,2154.0
434.873999997,2147.0
434.874999997,2152.0
434.875999997,2154.0
434.876999997,2153.0
434.877999997,2153.0
434.878999997,2137.0
434.879999997,2134.0
434.880999997,2145.0
434.881999997,2148.0
434.882999997,2161.0
434.883999997,2154.0
434.884999997,2147.0
434.885999997,2142.0
434.886999997,2133.0
434.887999997,2129.0
434.888999997,2144.0
434.889999997,2161.0
434.890999997,2165.0
434.891999997,2159.0
434.892999997,2142.0
434.893999997,2129.0
434.894999997,2137.0
434.895999997,2139.0
434.896999997,2147.0
434.897999997,2152.0
434.898999997,2155.0
434.899999997,2148.0
434.900999997,2142.0
434.901999997,2138.0
434.902999997,2136.0
434.903999997,2131.0
434.904999997,2125.0
434.905999997,2130.0
434.906999997,2131.0
434.907999997,2122.0
434.908999997,2132.0
434.909999997,2132.0
434.910999997,2119.0
434.911999997,2128.0
434.912999997,2136.0
434.913999997,2133.0
434.914999997,2136.0
434.915999997,2131.0
434.916999997,2124.0
434.917999997,2120.0
434.918999997,2132.0
434.919999997,2142.0
434.920999997,2135.0
434.921999997,2151.0
434.922999997,2147.0
434.923999997,2136.0
434.924999997,2129.0
434.925999997,2127.0
434.926999997,2129.0
434.927999997,2139.0
434.928999997,2139.0
434.929999997,2151.0
434.930999997,2141.0
434.931999997,2134.0
434.932999997,2124.0
434.933999997,2122.0
434.934999997,2133.0
434.935999997,2130.0
434.936999997,2127.0
434.937999997,2138.0
434.938999997,2134.0
434.939999997,2132.0
434.940999997,2123.0
434.941999997,2107.0
434.942999997,2108.0
434.943999997,2113.0
434.944999997,2114.0
434.945999997,2129.0
434.946999997,2130.0
434.947999997,2125.0
434.948999997,2123.0
434.949999997,2110.0
434.950999997,2120.0
434.951999997,2115.0
434.952999997,2127.0
434.953999997,2115.0
434.954999997,2107.0
434.955999997,2105.0
434.956999997,2089.0
434.957999997,2100.0
434.958999997,2113.0
434.959999997,2105.0
434.960999997,2097.0
434.961999997,2103.0
434.962999997,2092.0
434.963999997,2089.0
434.964999997,2085.0
434.965999997,2089.0
434.966999997,2098.0
434.967999997,2097.0
434.968999997,2095.0
434.969999997,2096.0
434.970999997,2102.0
434.971999997,2087.0
434.972999997,2098.0
434.973999997,2117.0
434.974999997,2117.0
434.975999997,2118.0
434.976999997,2120.0
434.977999997,2110.0
434.978999997,2109.0
434.979999997,2115.0
434.980999997,2115.0
434.981999997,2133.0
434.982999997,2125.0
434.983999997,2121.0
434.984999997,2108.0
434.985999997,2110.0
434.986999997,2117.0
434.987999997,2117.0
434.988999997,2126.0
434.989999997,2124.0
434.990999997,2123.0
434.991999997,2119.0
434.992999997,2106.0
434.993999997,2111.0
434.994999997,2114.0
434.995999997,2095.0
434.996999997,2093.0
434.997999997,2097.0
434.998999997,2093.0
434.999999997,2093.0
435.000999997,2091.0
435.001999997,2082.0
435.002999997,2074.0
435.003999997,2068.0
435.004999997,2074.0
435.005999997,2082.0
435.006999997,2084.0
435.007999997,2089.0
435.008999997,2085.0
435.009999997,2084.0
435.010999997,2074.0
435.011999997,2067.0
435.012999997,2067.0
435.013999997,2068.0
435.014999997,2085.0
435.015999997,2089.0
435.016999997,2080.0
435.017999997,2082.0
435.018999997,2072.0
435.019999997,2067.0
435.020999997,2065.0
435.021999997,2069.0
435.022999997,2078.0
435.023999997,2076.0
435.024999997,2069.0
435.025999997,2081.0
435.026999997,2086.0
435.027999997,2109.0
435.028999997,2115.0
435.029999997,2135.0
435.030999997,2158.0
435.031999997,2188.0
435.032999997,2250.0
435.033999997,2331.0
435.034999997,2425.0
435.035999997,2491.0
435.036999997,2475.0
435.037999997,2327.0
435.038999997,2142.0
435.039999997,1956.0
435.040999997,1752.0
435.041999997,1590.0
435.042999997,1471.0
435.043999997,1386.0
435.044999997,1374.0
435.045999997,1342.0
435.046999997,1372.0
435.047999997,1451.0
435.048999997,1560.0
435.049999997,1632.0
435.050999997,1698.0
435.051999997,1743.0
435.052999997,1791.0
435.053999997,1851.0
435.054999997,1911.0
435.055999997,1970.0
435.056999997,2026.0
435.057999997,2105.0
435.058999997,2169.0
435.059999997,2220.0
435.060999997,2246.0
435.061999997,2272.0
435.062999997,2276.0
435.063999997,2276.0
435.064999997,2262.0
435.065999997,2258.0
435.066999997,2258.0
435.067999997,2259.0
435.068999997,2260.0
435.069999997,2265.0
435.070999997,2265.0
435.071999997,2252.0
435.072999997,2251.0
435.073999997,2250.0
435.074999997,2245.0
435.075999997,2245.0
435.076999997,2243.0
435.077999997,2248.0
435.078999997,2244.0
435.079999997,2238.0
435.080999997,2236.0
435.081999997,2224.0
435.082999997,2221.0
435.083999997,2219.0
435.084999997,2221.0
435.085999997,2238.0
435.086999997,2217.0
435.087999997,2208.0
435.088999997,2200.0
435.089999997,2202.0
435.090999997,2216.0
435.091999997,2223.0
435.092999997,2228.0
435.093999997,2231.0
435.094999997,2228.0
435.095999997,2225.0
435.096999997,2209.0
435.097999997,2218.0
435.098999997,2224.0
435.099999997,2226.0
435.100999997,2236.0
435.101999997,2243.0
435.102999997,2227.0
435.103999997,2232.0
435.104999997,2222.0
435.105999997,2232.0
435.106999997,2244.0
435.107999997,2256.0
435.108999997,2258.0
435.109999997,2266.0
435.110999997,2260.0
435.111999997,2251.0
435.112999997,2250.0
435.113999997,2245.0
435.114999997,2255.0
435.115999997,2253.0
435.116999997,2258.0
435.117999997,2260.0
435.118999997,2256.0
435.119999997,2248.0
435.120999997,2237.0
435.121999997,2226.0
435.122999997,2230.0
435.123999997,2221.0
435.124999997,2215.0
435.125999997,2200.0
435.126999997,2174.0
435.127999997,2163.0
435.128999997,2140.0
435.129999997,2124.0
435.130999997,2114.0
435.131999997,2103.0
435.132999997,2080.0
435.133999997,2063.0
435.134999997,2038.0
435.135999997,2012.0
435.136999997,2008.0
435.137999997,1991.0
435.138999997,1984.0
435.139999997,1976.0
435.140999997,1968.0
435.141999997,1951.0
435.142999997,1932.0
435.143999997,1916.0
435.144999997,1904.0
435.145999997,1906.0
435.146999997,1908.0
435.147999997,1894.0
435.148999997,1896.0
435.149999997,1885.0
435.150999997,1875.0
435.151999997,1869.0
435.152999997,1872.0
435.153999997,1867.0
435.154999997,1877.0
435.155999997,1879.0
435.156999997,1878.0
435.157999997,1860.0
435.158999997,1872.0
435.159999997,1854.0
435.160999997,1867.0
435.161999997,1886.0
435.162999997,1895.0
435.163999997,1899.0
435.164999997,1898.0
435.165999997,1908.0
435.166999997,1889.0
435.167999997,1894.0
435.168999997,1887.0
435.169999997,1896.0
435.170999997,1913.0
435.171999997,1925.0
435.172999997,1917.0
435.173999997,1920.0
435.174999997,1917.0
435.175999997,1913.0
435.176999997,1926.0
435.177999997,1928.0
435.178999997,1947.0
435.179999997,1947.0
435.180999997,1952.0
435.181999997,1956.0
435.182999997,1949.0
435.183999997,1946.0
435.184999997,1955.0
435.185999997,1951.0
435.186999997,1968.0
435.187999997,1969.0
435.188999997,1966.0
435.189999997,1972.0
435.190999997,1981.0
435.191999997,1988.0
435.192999997,1997.0
435.193999997,1994.0
435.194999997,2001.0
435.195999997,1997.0
435.196999997,1999.0
435.197999997,1987.0
435.198999997,1986.0
435.199999997,1996.0
435.200999997,2007.0
435.201999997,2010.0
435.202999997,2011.0
435.203999997,2016.0
435.204999997,2017.0
435.205999997,2013.0
435.206999997,2014.0
435.207999997,2030.0
435.208999997,2024.0
435.209999997,2011.0
435.210999997,2019.0
435.211999997,2014.0
435.212999997,2007.0
435.213999997,2014.0
435.214999997,2015.0
435.215999997,2025.0
435.216999997,2033.0
435.217999997,2034.0
435.218999997,2034.0
435.219999997,2030.0
435.220999997,2032.0
435.221999997,2020.0
435.222999997,2016.0
435.223999997,2027.0
435.224999997,2022.0
435.225999997,2033.0
435.226999997,2024.0
435.227999997,2032.0
435.228999997,2033.0
435.229999997,2008.0
435.230999997,2009.0
435.231999997,2022.0
435.232999997,2017.0
435.233999997,2028.0
435.234999997,2024.0
435.235999997,2011.0
435.236999997,2021.0
435.237999997,2018.0
435.238999997,2023.0
435.239999997,2021.0
435.240999997,2041.0
435.241999997,2038.0
435.242999997,2028.0
435.243999997,2033.0
435.244999997,2039.0
435.245999997,2032.0
435.246999997,2040.0
435.247999997,2040.0
435.248999997,2042.0
435.249999997,2034.0
435.250999997,2041.0
435.251999997,2030.0
435.252999997,2022.0
435.253999997,2019.0
435.254999997,2023.0
435.255999997,2020.0
435.256999997,2026.0
435.257999997,2046.0
435.258999997,2031.0
435.259999997,2029.0
435.260999997,1972.0
435.261999997,2009.0
435.262999997,2029.0
435.263999997,2033.0
435.264999997,2039.0
435.265999997,2023.0
435.266999997,2034.0
435.267999997,2035.0
435.268999997,2026.0
435.269999997,2018.0
435.270999997,2032.0
435.271999997,2027.0
435.272999997,2040.0
435.273999997,2031.0
435.274999997,2030.0
435.275999997,2023.0
435.276999997,2048.0
435.277999997,2034.0
435.278999997,2043.0
435.279999997,2039.0
435.280999997,2050.0
435.281999997,2024.0
435.282999997,2027.0
435.283999997,2033.0
435.284999997,2026.0
435.285999997,2028.0
435.286999997,2047.0
435.287999997,2046.0
435.288999997,2037.0
435.289999997,2062.0
435.290999997,2041.0
435.291999997,2028.0
435.292999997,2034.0
435.293999997,2068.0
435.294999997,2046.0
435.295999997,2052.0
435.296999997,2054.0
435.297999997,2044.0
435.298999997,2048.0
435.299999997,2040.0
435.300999997,2040.0
435.301999997,2041.0
435.302999997,2037.0
435.303999997,2051.0
435.304999997,2052.0
435.305999997,2044.0
435.306999997,2042.0
435.307999997,2039.0
435.308999997,2036.0
435.309999997,2036.0
435.310999997,2037.0
435.311999997,2037.0
435.312999997,2045.0
435.313999997,2025.0
435.314999997,2026.0
435.315999997,2032.0
435.316999997,2041.0
435.317999997,2050.0
435.318999997,2054.0
435.319999997,2056.0
435.320999997,2038.0
435.321999997,2028.0
435.322999997,2016.0
435.323999997,2012.0
435.324999997,2029.0
435.325999997,2043.0
435.326999997,2057.0
435.327999997,2064.0
435.328999997,2049.0
435.329999997,2044.0
435.330999997,2026.0
435.331999997,2027.0
435.332999997,2033.0
435.333999997,2037.0
435.334999997,2037.0
435.335999997,2040.0
435.336999997,2043.0
435.337999997,2035.0
435.338999997,2034.0
435.339999997,2024.0
435.340999997,2039.0
435.341999997,2046.0
435.342999997,2063.0
435.343999997,2058.0
435.344999997,2048.0
435.345999997,2040.0
435.346999997,2018.0
435.347999997,2018.0
435.348999997,2031.0
435.349999997,2039.0
435.350999997,2045.0
435.351999997,2046.0
435.352999997,2037.0
435.353999997,2014.0
435.354999997,2000.0
435.355999997,2013.0
435.356999997,2015.0
435.357999997,2009.0
435.358999997,2019.0
435.359999997,2014.0
435.360999997,2020.0
435.361999997,2002.0
435.362999997,2003.0
435.363999997,2009.0
435.364999997,2024.0
435.365999997,2038.0
435.366999997,2043.0
435.367999997,2028.0
435.368999997,2038.0
435.369999997,2031.0
435.370999997,2034.0
435.371999997,2048.0
435.372999997,2044.0
435.373999997,2053.0
435.374999997,2051.0
435.375999997,2043.0
435.376999997,2042.0
435.377999997,2042.0
435.378999997,2035.0
435.379999997,2048.0
435.380999997,2045.0
435.381999997,2056.0
435.382999997,2054.0
435.383999997,2044.0
435.384999997,2045.0
435.385999997,2051.0
435.386999997,2058.0
435.387999997,2076.0
435.388999997,2067.0
435.389999997,2074.0
435.390999997,2074.0
435.391999997,2075.0
435.392999997,2105.0
435.393999997,2144.0
435.394999997,2239.0
435.395999997,2370.0
435.396999997,2459.0
435.397999997,2485.0
435.398999997,2332.0
435.399999997,2110.0
435.400999997,1903.0
435.401999997,1701.0
435.402999997,1573.0
435.403999997,1465.0
435.404999997,1358.0
435.405999997,1308.0
435.406999997,1260.0
435.407999997,1286.0
435.408999997,1359.0
435.409999997,1497.0
435.410999997,1610.0
435.411999997,1693.0
435.412999997,1757.0
435.413999997,1821.0
435.414999997,1883.0
435.415999997,1935.0
435.416999997,2002.0
435.417999997,2090.0
435.418999997,2178.0
435.419999997,2245.0
435.420999997,2298.0
435.421999997,2326.0
435.422999997,2335.0
435.423999997,2331.0
435.424999997,2325.0
435.425999997,2332.0
435.426999997,2330.0
435.427999997,2327.0
435.428999997,2332.0
