172.448,1.0
172.449,0.0
172.45,3.0
172.451,9.0
172.452,6.0
172.453,3.0
172.454,1.0
172.455,2.0
172.456,0.0
172.457,6.0
172.458,4.0
172.459,6.0
172.46,6.0
172.461,4.0
172.462,1.0
172.463,2.0
172.464,1.0
172.465,7.0
172.466,9.0
172.467,0.0
172.468,3.0
172.469,2.0
172.47,1.0
172.471,4.0
172.472,3.0
172.473,9.0
172.474,1.0
172.475,6.0
172.476,4.0
172.477,9.0
172.478,7.0
172.479,11.0
172.48,2.0
172.481,4.0
172.482,7.0
172.483,2.0
172.484,2.0
172.485,2.0
172.486,0.0
172.487,8.0
172.488,10.0
172.489,6.0
172.49,8.0
172.491,8.0
172.492,8.0
172.493,5.0
172.494,3.0
172.495,6.0
172.496,6.0
172.497,9.0
172.498,9.0
172.499,0.0
172.5,9.0
172.501,3.0
172.502,8.0
172.503,1.0
172.504,6.0
172.505,9.0
172.506,0.0
172.507,6.0
172.508,5.0
172.509,1.0
172.51,2.0
172.511,0.0
172.512,2.0
172.513,6.0
172.514,0.0
172.515,6.0
172.516,9.0
172.517,3.0
172.518,9.0
172.519,9.0
172.52,6.0
172.521,2.0
172.522,8.0
172.523,1.0
172.524,9.0
172.525,10.0
172.526,2.0
172.527,3.0
172.528,7.0
172.529,3.0
172.53,6.0
172.531,1.0
172.532,7.0
172.533,0.0
172.534,3.0
172.535,8.0
172.536,4.0
172.537,4.0
172.538,6.0
172.539,8.0
172.54,8.0
172.541,7.0
172.542,6.0
172.543,0.0
172.544,2.0
172.545,4.0
172.546,11.0
172.547,2.0
172.548,0.0
172.549,2.0
172.55,5.0
172.551,1.0
172.552,9.0
172.553,6.0
172.554,9.0
172.555,9.0
172.556,12.0
172.557,6.0
172.558,1.0
172.559,3.0
172.56,1.0
172.561,11.0
172.562,1.0
172.563,4.0
172.564,9.0
172.565,5.0
172.566,0.0
172.567,0.0
172.568,0.0
172.569,5.0
172.57,0.0
172.571,4.0
172.572,3.0
172.573,0.0
172.574,8.0
172.575,1.0
172.576,4.0
172.577,7.0
172.578,10.0
172.579,9.0
172.58,4.0
172.581,3.0
172.582,3.0
172.583,1.0
172.584,3.0
172.585,8.0
172.586,4.0
172.587,9.0
172.588,9.0
172.589,14.0
172.59,1.0
172.591,9.0
172.592,0.0
172.593,8.0
172.594,0.0
172.595,8.0
172.596,1.0
172.597,0.0
172.598,8.0
172.599,6.0
172.6,2.0
172.601,1.0
172.602,0.0
172.603,0.0
172.604,4.0
172.605,7.0
172.606,0.0
172.607,2.0
172.608,15.0
172.609,0.0
172.61,7.0
172.611,8.0
172.612,12.0
172.613,0.0
172.614,1.0
172.615,7.0
172.616,0.0
172.617,6.0
172.618,11.0
172.619,9.0
172.62,2.0
172.621,7.0
172.622,4.0
172.623,6.0
172.624,6.0
172.625,7.0
172.626,0.0
172.627,6.0
172.628,7.0
172.629,8.0
172.63,7.0
172.631,8.0
172.632,0.0
172.633,0.0
172.634,6.0
172.635,4.0
172.636,2.0
172.637,7.0
172.638,4.0
172.639,0.0
172.64,7.0
172.641,7.0
172.642,8.0
172.643,0.0
172.644,4.0
172.645,5.0
172.646,0.0
172.647,1.0
172.648,0.0
172.649,0.0
172.65,7.0
172.651,6.0
172.652,1.0
172.653,9.0
172.654,1.0
172.655,8.0
172.656,5.0
172.657,4.0
172.658,1.0
172.659,11.0
172.66,9.0
172.661,7.0
172.662,3.0
172.663,13.0
172.664,10.0
172.665,0.0
172.666,0.0
172.667,6.0
172.668,3.0
172.669,12.0
172.67,8.0
172.671,9.0
172.672,2.0
172.673,10.0
172.674,0.0
172.675,3.0
172.676,6.0
172.677,0.0
172.678,3.0
172.679,9.0
172.68,9.0
172.681,13.0
172.682,1.0
172.683,5.0
172.684,11.0
172.685,6.0
172.686,9.0
172.687,9.0
172.688,8.0
172.689,7.0
172.69,2.0
172.691,0.0
172.692,6.0
172.693,9.0
172.694,1.0
172.695,6.0
172.696,7.0
172.697,0.0
172.698,1.0
172.699,0.0
172.7,4.0
172.701,5.0
172.702,1.0
172.703,5.0
172.704,8.0
172.705,8.0
172.706,0.0
172.707,8.0
172.708,0.0
172.709,9.0
172.71,1.0
172.711,4.0
172.712,8.0
172.713,0.0
172.714,1.0
172.715,7.0
172.716,0.0
172.717,1.0
172.718,0.0
172.719,6.0
172.72,7.0
172.721,1.0
172.722,3.0
172.723,7.0
172.724,9.0
172.725,1.0
172.726,2.0
172.727,0.0
172.728,0.0
172.729,3.0
172.73,6.0
172.731,4.0
172.732,8.0
172.733,9.0
172.734,3.0
172.735,7.0
172.736,12.0
172.737,0.0
172.738,0.0
172.739,2.0
172.74,24.0
172.741,9.0
172.742,20.0
172.743,0.0
172.744,28.0
172.745,10.0
172.746,0.0
172.747,16.0
172.748,4.0
172.749,24.0
172.75,8.0
172.751,10.0
172.752,5.0
172.753,15.0
172.754,7.0
172.755,2.0
172.756,0.0
172.757,6.0
172.758,8.0
172.759,6.0
172.76,3.0
172.761,3.0
172.762,8.0
172.763,8.0
172.764,0.0
172.765,5.0
172.766,9.0
172.767,6.0
172.768,4.0
172.769,2.0
172.77,5.0
172.771,7.0
172.772,5.0
172.773,1.0
172.774,4.0
172.775,2.0
172.776,3.0
172.777,3.0
172.778,1.0
172.779,1.0
172.78,10.0
172.781,6.0
172.782,7.0
172.783,5.0
172.784,5.0
172.785,3.0
172.786,7.0
172.787,0.0
172.788,8.0
172.789,2.0
172.79,6.0
172.791,6.0
172.792,0.0
172.793,3.0
172.794,5.0
172.795,3.0
172.796,2.0
172.797,1.0
172.798,8.0
172.799,0.0
172.8,7.0
172.801,1.0
172.802,7.0
172.803,4.0
172.804,9.0
172.805,8.0
172.806,8.0
172.807,3.0
172.808,4.0
172.809,1.0
172.81,0.0
172.811,1.0
172.812,3.0
172.813,1.0
172.814,8.0
172.815,2.0
172.816,8.0
172.817,8.0
172.818,5.0
172.819,1.0
172.82,8.0
172.821,0.0
172.822,8.0
172.823,4.0
172.824,2.0
172.825,2.0
172.826,5.0
172.827,2.0
172.828,7.0
172.829,9.0
172.83,7.0
172.831,3.0
172.832,7.0
172.833,0.0
172.834,8.0
172.835,7.0
172.836,0.0
172.837,8.0
172.838,0.0
172.839,1.0
172.84,2.0
172.841,0.0
172.842,0.0
172.843,0.0
172.844,7.0
172.845,10.0
172.846,2.0
172.847,8.0
172.848,1.0
172.849,4.0
172.85,0.0
172.851,9.0
172.852,6.0
172.853,4.0
172.854,5.0
172.855,8.0
172.856,1.0
172.857,7.0
172.858,3.0
172.859,11.0
172.86,2.0
172.861,0.0
172.862,2.0
172.863,0.0
172.864,3.0
172.865,2.0
172.866,8.0
172.867,1.0
172.868,8.0
172.869,3.0
172.87,4.0
172.871,2.0
172.872,3.0
172.873,5.0
172.874,6.0
172.875,5.0
172.876,8.0
172.877,3.0
172.878,4.0
172.879,0.0
172.88,0.0
172.881,10.0
172.882,1.0
172.883,7.0
172.884,7.0
172.885,0.0
172.886,0.0
172.887,4.0
172.888,4.0
172.889,8.0
172.89,0.0
172.891,4.0
172.892,9.0
172.893,10.0
172.894,4.0
172.895,3.0
172.896,3.0
172.897,0.0
172.898,0.0
172.899,7.0
172.9,1.0
172.901,4.0
172.902,8.0
172.903,1.0
172.904,6.0
172.905,3.0
172.906,0.0
172.907,1.0
172.908,9.0
172.909,5.0
172.91,8.0
172.911,4.0
172.912,7.0
172.913,0.0
172.914,6.0
172.915,5.0
172.916,0.0
172.917,7.0
172.918,2.0
172.919,1.0
172.92,0.0
172.921,4.0
172.922,5.0
172.923,3.0
172.924,4.0
172.925,3.0
172.926,9.0
172.927,8.0
172.928,0.0
172.929,6.0
172.93,6.0
172.931,1.0
172.932,0.0
172.933,9.0
172.934,7.0
172.935,9.0
172.936,8.0
172.937,1.0
172.938,3.0
172.939,0.0
172.94,10.0
172.941,4.0
172.942,2.0
172.943,3.0
172.944,4.0
172.945,8.0
172.946,0.0
172.947,0.0
172.948,9.0
172.949,0.0
172.95,8.0
172.951,5.0
172.952,4.0
172.953,4.0
172.954,7.0
172.955,10.0
172.956,5.0
172.957,5.0
172.958,0.0
172.959,6.0
172.96,5.0
172.961,5.0
172.962,2.0
172.963,5.0
172.964,1.0
172.965,1.0
172.966,9.0
172.967,7.0
172.968,4.0
172.969,0.0
172.97,2.0
172.971,4.0
172.972,3.0
172.973,6.0
172.974,6.0
172.975,6.0
172.976,0.0
172.977,7.0
172.978,6.0
172.979,0.0
172.98,0.0
172.981,0.0
172.982,0.0
172.983,1.0
172.984,11.0
172.985,0.0
172.986,2.0
172.987,4.0
172.988,0.0
172.989,0.0
172.99,1.0
172.991,0.0
172.992,3.0
172.993,4.0
172.994,2.0
172.995,2.0
172.996,6.0
172.997,0.0
172.998,1.0
172.999,7.0
173.0,2.0
173.001,7.0
173.002,0.0
173.003,3.0
173.004,2.0
173.005,1.0
173.006,0.0
173.007,2.0
173.008,7.0
173.009,0.0
173.01,0.0
173.011,9.0
173.012,0.0
173.013,0.0
173.014,0.0
173.015,0.0
173.016,0.0
173.017,4.0
173.018,0.0
173.019,9.0
173.02,0.0
173.021,1.0
173.022,0.0
173.023,0.0
173.024,4.0
173.025,0.0
173.026,7.0
173.027,4.0
173.028,0.0
173.029,3.0
173.03,2.0
173.031,0.0
173.032,2.0
173.033,0.0
173.034,0.0
173.035,2.0
173.036,4.0
173.037,6.0
173.038,5.0
173.039,0.0
173.04,0.0
173.041,0.0
173.042,7.0
173.043,4.0
173.044,0.0
173.045,0.0
173.046,6.0
173.047,2.0
173.048,0.0
173.049,0.0
173.05,6.0
173.051,0.0
173.052,6.0
173.053,0.0
173.054,6.0
173.055,0.0
173.056,0.0
173.057,6.0
173.058,3.0
173.059,0.0
173.06,0.0
173.061,0.0
173.062,2.0
173.063,3.0
173.064,0.0
173.065,0.0
173.066,0.0
173.067,0.0
173.068,2.0
173.069,4.0
173.07,6.0
173.071,0.0
173.072,5.0
173.073,4.0
173.074,0.0
173.075,9.0
173.076,6.0
173.077,0.0
173.078,0.0
173.079,0.0
173.08,0.0
173.081,5.0
173.082,0.0
173.083,4.0
173.084,0.0
173.085,0.0
173.086,0.0
173.087,0.0
173.088,0.0
173.089,0.0
173.09,0.0
173.091,0.0
173.092,0.0
173.093,4.0
173.094,6.0
173.095,2.0
173.096,0.0
173.097,0.0
173.098,3.0
173.099,0.0
173.1,6.0
173.101,5.0
173.102,5.0
173.103,6.0
173.104,0.0
173.105,0.0
173.106,0.0
173.107,2.0
173.108,0.0
173.109,1.0
173.11,0.0
173.111,0.0
173.112,6.0
173.113,5.0
173.114,9.0
173.115,12.0
173.116,6.0
173.117,0.0
173.118,5.0
173.119,0.0
173.12,0.0
173.121,1.0
173.122,0.0
173.123,0.0
173.124,0.0
173.125,4.0
173.126,3.0
173.127,1.0
173.128,0.0
173.129,1.0
173.13,3.0
173.131,0.0
173.132,4.0
173.133,0.0
173.134,0.0
173.135,0.0
173.136,1.0
173.137,1.0
173.138,0.0
173.139,0.0
173.14,4.0
173.141,3.0
173.142,0.0
173.143,0.0
173.144,0.0
173.145,1.0
173.146,0.0
173.147,4.0
173.148,3.0
173.149,2.0
173.15,0.0
173.151,2.0
173.152,0.0
173.153,3.0
173.154,3.0
173.155,2.0
173.156,5.0
173.157,0.0
173.158,5.0
173.159,0.0
173.16,6.0
173.161,0.0
173.162,0.0
173.163,0.0
173.164,0.0
173.165,0.0
173.166,0.0
173.167,0.0
173.168,0.0
173.169,6.0
173.17,0.0
173.171,26.0
173.172,3.0
173.173,0.0
173.174,0.0
173.175,2.0
173.176,0.0
173.177,8.0
173.178,0.0
173.179,0.0
173.18,3.0
173.181,5.0
173.182,0.0
173.183,12.0
173.184,8.0
173.185,2.0
173.186,7.0
173.187,8.0
173.188,7.0
173.189,37.0
173.19,19.0
173.191,29.0
173.192,56.0
173.193,48.0
173.194,55.0
173.195,75.0
173.196,161.0
173.197,258.0
173.198,316.0
173.199,399.0
173.2,439.0
173.201,420.0
173.202,394.0
173.203,403.0
173.204,479.0
173.205,552.0
173.206,617.0
173.207,714.0
173.208,730.0
173.209,747.0
173.21,764.0
173.211,791.0
173.212,874.0
173.213,956.0
173.214,1032.0
173.215,1088.0
173.216,1110.0
173.217,1126.0
173.218,1127.0
173.219,1172.0
173.22,1241.0
173.221,1304.0
173.222,1374.0
173.223,1408.0
173.224,1397.0
173.225,1394.0
173.226,1390.0
173.227,1406.0
173.228,1473.0
173.229,1524.0
173.23,1579.0
173.231,1595.0
173.232,1602.0
173.233,1577.0
173.234,1567.0
173.235,1596.0
173.236,1648.0
173.237,1698.0
173.238,1715.0
173.239,1706.0
173.24,1656.0
173.241,1603.0
173.242,1579.0
173.243,1589.0
173.244,1596.0
173.245,1637.0
173.246,1647.0
173.247,1620.0
173.248,1586.0
173.249,1525.0
173.25,1521.0
173.251,1536.0
173.252,1573.0
173.253,1625.0
173.254,1644.0
173.255,1640.0
173.256,1613.0
173.257,1590.0
173.258,1597.0
173.259,1618.0
173.26,1678.0
173.261,1739.0
173.262,1760.0
173.263,1757.0
173.264,1726.0
173.265,1700.0
173.266,1711.0
173.267,1737.0
173.268,1764.0
173.269,1791.0
173.27,1789.0
173.271,1780.0
173.272,1758.0
173.273,1739.0
173.274,1755.0
173.275,1789.0
173.276,1837.0
173.277,1869.0
173.278,1848.0
173.279,1856.0
173.28,1799.0
173.281,1759.0
173.282,1756.0
173.283,1755.0
173.284,1795.0
173.285,1793.0
173.286,1768.0
173.287,1741.0
173.288,1693.0
173.289,1688.0
173.29,1704.0
173.291,1720.0
173.292,1728.0
173.293,1678.0
173.294,1602.0
173.295,1545.0
173.296,1474.0
173.297,1421.0
173.298,1416.0
173.299,1420.0
173.3,1446.0
173.301,1447.0
173.302,1418.0
173.303,1393.0
173.304,1376.0
173.305,1390.0
173.306,1431.0
173.307,1468.0
173.308,1505.0
173.309,1509.0
173.31,1510.0
173.311,1489.0
173.312,1486.0
173.313,1518.0
173.314,1556.0
173.315,1604.0
173.316,1676.0
173.317,1683.0
173.318,1689.0
173.319,1686.0
173.32,1697.0
173.321,1727.0
173.322,1772.0
173.323,1825.0
173.324,1859.0
173.325,1854.0
173.326,1834.0
173.327,1804.0
173.328,1795.0
173.329,1813.0
173.33,1811.0
173.331,1824.0
173.332,1796.0
173.333,1727.0
173.334,1662.0
173.335,1598.0
173.336,1564.0
173.337,1465.0
173.338,1499.0
173.339,1556.0
173.34,1612.0
173.341,1635.0
173.342,1676.0
173.343,1739.0
173.344,1797.0
173.345,1871.0
173.346,1929.0
173.347,1959.0
173.348,1966.0
173.349,1971.0
173.35,1939.0
173.351,1921.0
173.352,1944.0
173.353,1967.0
173.354,2003.0
173.355,2044.0
173.356,2039.0
173.357,2035.0
173.358,2014.0
173.359,2016.0
173.36,2046.0
173.361,2088.0
173.362,2129.0
173.363,2157.0
173.364,2154.0
173.365,2135.0
173.366,2107.0
173.367,2111.0
173.368,2130.0
173.369,2161.0
173.37,2190.0
173.371,2198.0
173.372,2188.0
173.373,2167.0
173.374,2145.0
173.375,2156.0
173.376,2181.0
173.377,2202.0
173.378,2228.0
173.379,2226.0
173.38,2228.0
173.381,2203.0
173.382,2162.0
173.383,2178.0
173.384,2190.0
173.385,2225.0
173.386,2256.0
173.387,2240.0
173.388,2213.0
173.389,2182.0
173.39,2161.0
173.391,2190.0
173.392,2212.0
173.393,2248.0
173.394,2259.0
173.395,2237.0
173.396,2226.0
173.397,2189.0
173.398,2166.0
173.399,2198.0
173.4,2216.0
173.401,2253.0
173.402,2254.0
173.403,2219.0
173.404,2201.0
173.405,2156.0
173.406,2150.0
173.407,2172.0
173.408,2181.0
173.409,2216.0
173.41,2219.0
173.411,2198.0
173.412,2174.0
173.413,2139.0
173.414,2132.0
173.415,2158.0
173.416,2187.0
173.417,2212.0
173.418,2197.0
173.419,2177.0
173.42,2149.0
173.421,2116.0
173.422,2127.0
173.423,2144.0
173.424,2182.0
173.425,2203.0
173.426,2179.0
173.427,2168.0
173.428,2135.0
173.429,2116.0
173.43,2131.0
173.431,2147.0
173.432,2188.0
173.433,2202.0
173.434,2179.0
173.435,2159.0
173.436,2128.0
173.437,2109.0
173.438,2121.0
173.439,2135.0
173.44,2153.0
173.441,2140.0
173.442,2112.0
173.443,2083.0
173.444,2052.0
173.445,2034.0
173.446,2052.0
173.447,2085.0
173.448,2105.0
173.449,2111.0
173.45,2083.0
173.451,2042.0
173.452,2014.0
173.453,2015.0
173.454,2025.0
173.455,2044.0
173.456,2065.0
173.457,2057.0
173.458,2024.0
173.459,1994.0
173.46,1960.0
173.461,1961.0
173.462,1978.0
173.463,2012.0
173.464,2024.0
173.465,2003.0
173.466,1979.0
173.467,1936.0
173.468,1923.0
173.469,1940.0
173.47,1957.0
173.471,1986.0
173.472,2004.0
173.473,1976.0
173.474,1945.0
173.475,1905.0
173.476,1898.0
173.477,1927.0
173.478,1947.0
173.479,1974.0
173.48,1977.0
173.481,1959.0
173.482,1924.0
173.483,1889.0
173.484,1878.0
173.485,1905.0
173.486,1932.0
173.487,1970.0
173.488,1973.0
173.489,1939.0
173.49,1913.0
173.491,1877.0
173.492,1875.0
173.493,1899.0
173.494,1923.0
173.495,1941.0
173.496,1922.0
173.497,1910.0
173.498,1870.0
173.499,1857.0
173.5,1872.0
173.501,1894.0
173.502,1928.0
173.503,1954.0
173.504,1935.0
173.505,1916.0
173.506,1868.0
173.507,1843.0
173.508,1856.0
173.509,1877.0
173.51,1918.0
173.511,1940.0
173.512,1915.0
173.513,1891.0
173.514,1850.0
173.515,1830.0
173.516,1858.0
173.517,1881.0
173.518,1917.0
173.519,1927.0
173.52,1902.0
173.521,1892.0
173.522,1845.0
173.523,1823.0
173.524,1839.0
173.525,1846.0
173.526,1886.0
173.527,1879.0
173.528,1858.0
173.529,1831.0
173.53,1805.0
173.531,1807.0
173.532,1834.0
173.533,1861.0
173.534,1895.0
173.535,1877.0
173.536,1858.0
173.537,1828.0
173.538,1783.0
173.539,1795.0
173.54,1805.0
173.541,1842.0
173.542,1862.0
173.543,1842.0
173.544,1816.0
173.545,1788.0
173.546,1759.0
173.547,1779.0
173.548,1804.0
173.549,1833.0
173.55,1846.0
173.551,1837.0
173.552,1821.0
173.553,1787.0
173.554,1772.0
173.555,1798.0
173.556,1822.0
173.557,1854.0
173.558,1866.0
173.559,1852.0
173.56,1819.0
173.561,1796.0
173.562,1791.0
173.563,1820.0
173.564,1840.0
173.565,1866.0
173.566,1872.0
173.567,1846.0
173.568,1858.0
173.569,1783.0
173.57,1782.0
173.571,1800.0
173.572,1845.0
173.573,1864.0
173.574,1863.0
173.575,1837.0
173.576,1825.0
173.577,1802.0
173.578,1812.0
173.579,1837.0
173.58,1876.0
173.581,1896.0
173.582,1883.0
173.583,1863.0
173.584,1837.0
173.585,1829.0
173.586,1841.0
173.587,1857.0
173.588,1893.0
173.589,1912.0
173.59,1895.0
173.591,1879.0
173.592,1858.0
173.593,1859.0
173.594,1873.0
173.595,1892.0
173.596,1923.0
173.597,1934.0
173.598,1921.0
173.599,1911.0
173.6,1881.0
173.601,1885.0
173.602,1900.0
173.603,1929.0
173.604,1979.0
173.605,1970.0
173.606,1965.0
173.607,1945.0
173.608,1923.0
173.609,1920.0
173.61,1939.0
173.611,1971.0
173.612,2007.0
173.613,2006.0
173.614,1989.0
173.615,1956.0
173.616,1940.0
173.617,1963.0
173.618,1980.0
173.619,2004.0
173.62,2033.0
173.621,2015.0
173.622,2004.0
173.623,1966.0
173.624,1946.0
173.625,1976.0
173.626,1999.0
173.627,2013.0
173.628,2036.0
173.629,2026.0
173.63,2016.0
173.631,1986.0
173.632,1983.0
173.633,2020.0
173.634,2012.0
173.635,2054.0
173.636,2054.0
173.637,2039.0
173.638,2019.0
173.639,1997.0
173.64,1993.0
173.641,2021.0
173.642,2032.0
173.643,2059.0
173.644,2076.0
173.645,2040.0
173.646,2027.0
173.647,2002.0
173.648,1966.0
173.649,2028.0
173.65,2026.0
173.651,2066.0
173.652,2064.0
173.653,2051.0
173.654,2017.0
173.655,1996.0
173.656,2004.0
173.657,2024.0
173.658,2051.0
173.659,2072.0
173.66,2060.0
173.661,2051.0
173.662,2029.0
173.663,2009.0
173.664,2044.0
173.665,2066.0
173.666,2086.0
173.667,2078.0
173.668,2037.0
173.669,1994.0
173.67,1917.0
173.671,1883.0
173.672,1884.0
173.673,1870.0
173.674,1851.0
173.675,1860.0
173.676,1846.0
173.677,1872.0
173.678,1877.0
173.679,1922.0
173.68,1991.0
173.681,2066.0
173.682,2116.0
173.683,2131.0
173.684,2126.0
173.685,2105.0
173.686,2081.0
173.687,2078.0
173.688,2081.0
173.689,2099.0
173.69,2106.0
173.691,2105.0
173.692,2076.0
173.693,2055.0
173.694,2033.0
173.695,2045.0
173.696,2062.0
173.697,2094.0
173.698,2102.0
173.699,2092.0
173.7,2083.0
173.701,2054.0
173.702,2028.0
173.703,2044.0
173.704,2050.0
173.705,2076.0
173.706,2090.0
173.707,2066.0
173.708,2053.0
173.709,2014.0
173.71,2011.0
173.711,2040.0
173.712,2047.0
173.713,2084.0
173.714,2082.0
173.715,2061.0
173.716,2040.0
173.717,2008.0
173.718,2010.0
173.719,2035.0
173.72,2044.0
173.721,2075.0
173.722,2068.0
173.723,2040.0
173.724,2020.0
173.725,1998.0
173.726,2004.0
173.727,2026.0
173.728,2051.0
173.729,2067.0
173.73,2045.0
173.731,2026.0
173.732,2000.0
173.733,1971.0
173.734,1984.0
173.735,2002.0
173.736,2026.0
173.737,2032.0
173.738,2010.0
173.739,2006.0
173.74,1976.0
173.741,1948.0
173.742,1958.0
173.743,1982.0
173.744,2008.0
173.745,2011.0
173.746,1990.0
173.747,1963.0
173.748,1929.0
173.749,1921.0
173.75,1944.0
173.751,1967.0
173.752,1996.0
173.753,2009.0
173.754,1984.0
173.755,1957.0
173.756,1929.0
173.757,1928.0
173.758,1967.0
173.759,1983.0
173.76,2011.0
173.761,2018.0
173.762,1992.0
173.763,1968.0
173.764,1942.0
173.765,1953.0
173.766,1973.0
173.767,2005.0
173.768,2019.0
173.769,2030.0
173.77,2000.0
173.771,1979.0
173.772,1975.0
173.773,1992.0
173.774,2022.0
173.775,2064.0
173.776,2078.0
173.777,2065.0
173.778,2045.0
173.779,2021.0
173.78,2015.0
173.781,2042.0
173.782,2059.0
173.783,2094.0
173.784,2102.0
173.785,2079.0
173.786,2054.0
173.787,2032.0
173.788,2032.0
173.789,2049.0
173.79,2057.0
173.791,2093.0
173.792,2097.0
173.793,2062.0
173.794,2032.0
173.795,2010.0
173.796,2011.0
173.797,2027.0
173.798,2054.0
173.799,2075.0
173.8,2074.0
173.801,2054.0
173.802,2025.0
173.803,2006.0
173.804,2018.0
173.805,2034.0
173.806,2056.0
173.807,2070.0
173.808,2063.0
173.809,2040.0
173.81,2016.0
173.811,2000.0
173.812,2012.0
173.813,2036.0
173.814,2071.0
173.815,2081.0
173.816,2060.0
173.817,2039.0
173.818,2000.0
173.819,1978.0
173.82,2007.0
173.821,2036.0
173.822,2059.0
173.823,2067.0
173.824,2038.0
173.825,2019.0
173.826,1992.0
173.827,1989.0
173.828,2018.0
173.829,2031.0
173.83,2052.0
173.831,2060.0
173.832,2027.0
173.833,1999.0
173.834,1970.0
173.835,1979.0
173.836,2014.0
173.837,2032.0
173.838,2057.0
173.839,2043.0
173.84,2024.0
173.841,1991.0
173.842,1957.0
173.843,1965.0
173.844,1985.0
173.845,2004.0
173.846,2016.0
173.847,2012.0
173.848,1993.0
173.849,1966.0
173.85,1932.0
173.851,1950.0
173.852,1967.0
173.853,1993.0
173.854,2023.0
173.855,1997.0
173.856,1975.0
173.857,1940.0
173.858,1928.0
173.859,1960.0
173.86,1977.0
173.861,2004.0
173.862,2018.0
173.863,1994.0
173.864,1975.0
173.865,1943.0
173.866,1925.0
173.867,1950.0
173.868,1971.0
173.869,1998.0
173.87,1997.0
173.871,1983.0
173.872,1966.0
173.873,1950.0
173.874,1942.0
173.875,1971.0
173.876,1987.0
173.877,2009.0
173.878,2003.0
173.879,1988.0
173.88,1972.0
173.881,1945.0
173.882,1951.0
173.883,1961.0
173.884,1990.0
173.885,2013.0
173.886,2007.0
173.887,2000.0
173.888,1969.0
173.889,1952.0
173.89,1957.0
173.891,1985.0
173.892,2012.0
173.893,2036.0
173.894,2024.0
173.895,2010.0
173.896,1968.0
173.897,1956.0
173.898,1974.0
173.899,1991.0
173.9,2035.0
173.901,2052.0
173.902,2033.0
173.903,2009.0
173.904,1970.0
173.905,1980.0
173.906,1997.0
173.907,2018.0
173.908,2050.0
173.909,2052.0
173.91,2035.0
173.911,2013.0
173.912,1989.0
173.913,1989.0
173.914,2010.0
173.915,2037.0
173.916,2072.0
173.917,2069.0
173.918,2044.0
173.919,2023.0
173.92,1997.0
173.921,2008.0
173.922,2026.0
173.923,2057.0
173.924,2070.0
173.925,2062.0
173.926,2055.0
173.927,2032.0
173.928,2021.0
173.929,2021.0
173.93,2037.0
173.931,2054.0
173.932,2072.0
173.933,2055.0
173.934,2047.0
173.935,2013.0
173.936,2003.0
173.937,2027.0
173.938,2047.0
173.939,2073.0
173.94,2077.0
173.941,2062.0
173.942,2048.0
173.943,2012.0
173.944,2003.0
173.945,2033.0
173.946,2051.0
173.947,2083.0
173.948,2090.0
173.949,2060.0
173.95,2048.0
173.951,2018.0
173.952,2017.0
173.953,2047.0
173.954,2051.0
173.955,2078.0
173.956,2076.0
173.957,2056.0
173.958,2024.0
173.959,2008.0
173.96,2007.0
173.961,2034.0
173.962,2052.0
173.963,2067.0
173.964,2059.0
173.965,2048.0
173.966,2020.0
173.967,1996.0
173.968,2022.0
173.969,2034.0
173.97,2050.0
173.971,2066.0
173.972,2053.0
173.973,2038.0
173.974,2020.0
173.975,2017.0
173.976,2039.0
173.977,2049.0
173.978,2065.0
173.979,2087.0
173.98,2073.0
173.981,2056.0
173.982,2026.0
173.983,2020.0
173.984,2046.0
173.985,2050.0
173.986,2066.0
173.987,2075.0
173.988,2061.0
173.989,2046.0
173.99,2022.0
173.991,2040.0
173.992,2051.0
173.993,2074.0
173.994,2092.0
173.995,2094.0
173.996,2073.0
173.997,2050.0
173.998,2022.0
173.999,2042.0
174.0,2058.0
174.001,2090.0
174.002,2115.0
174.003,2115.0
174.004,2094.0
174.005,2074.0
174.006,2049.0
174.007,2042.0
174.008,2047.0
174.009,2042.0
174.01,2000.0
174.011,1955.0
174.012,1909.0
174.013,1852.0
174.014,1806.0
174.015,1808.0
174.016,1829.0
174.017,1879.0
174.018,1927.0
174.019,1944.0
174.02,1971.0
174.021,1998.0
174.022,2017.0
174.023,2064.0
174.024,2087.0
174.025,2112.0
174.026,2111.0
174.027,2082.0
174.028,2054.0
174.029,2018.0
174.03,2013.0
174.031,2035.0
174.032,2044.0
174.033,2057.0
174.034,2051.0
174.035,2037.0
174.036,2022.0
174.037,2006.0
174.038,2019.0
174.039,2044.0
174.04,2057.0
174.041,2072.0
174.042,2038.0
174.043,2027.0
174.044,2004.0
174.045,1987.0
174.046,1997.0
174.047,2015.0
174.048,2042.0
174.049,2058.0
174.05,2024.0
174.051,2019.0
174.052,1992.0
174.053,1990.0
174.054,2007.0
174.055,2022.0
174.056,2060.0
174.057,2058.0
174.058,2020.0
174.059,2008.0
174.06,1965.0
174.061,1973.0
174.062,1993.0
174.063,2014.0
174.064,2035.0
174.065,2037.0
174.066,2018.0
174.067,1995.0
174.068,1970.0
174.069,1965.0
174.07,1985.0
174.071,2003.0
174.072,2036.0
174.073,2040.0
174.074,2004.0
174.075,1986.0
174.076,1957.0
174.077,1972.0
174.078,1986.0
174.079,2001.0
174.08,2029.0
174.081,2018.0
174.082,1992.0
174.083,1976.0
174.084,1963.0
174.085,1950.0
174.086,1994.0
174.087,2016.0
174.088,2034.0
174.089,1999.0
174.09,1977.0
174.091,1988.0
174.092,1912.0
174.093,1945.0
174.094,1987.0
174.095,2023.0
174.096,2023.0
174.097,2006.0
174.098,2007.0
174.099,1949.0
174.1,1929.0
174.101,1999.0
174.102,2010.0
174.103,2049.0
174.104,2049.0
174.105,2021.0
174.106,2003.0
174.107,1983.0
174.108,1992.0
174.109,2030.0
174.11,2041.0
174.111,2066.0
174.112,2060.0
174.113,2058.0
174.114,2037.0
174.115,2028.0
174.116,2038.0
174.117,2062.0
174.118,2080.0
174.119,2099.0
174.12,2097.0
174.121,2071.0
174.122,2044.0
174.123,2037.0
174.124,2059.0
174.125,2076.0
174.126,2099.0
174.127,2115.0
174.128,2101.0
174.129,2075.0
174.13,2056.0
174.131,2045.0
174.132,2066.0
174.133,2078.0
174.134,2107.0
174.135,2108.0
174.136,2083.0
174.137,2067.0
174.138,2033.0
174.139,2038.0
174.14,2054.0
174.141,2085.0
174.142,2102.0
174.143,2101.0
174.144,2076.0
174.145,2058.0
174.146,2025.0
174.147,2038.0
174.148,2065.0
174.149,2086.0
174.15,2101.0
174.151,2083.0
174.152,2063.0
174.153,2044.0
174.154,2023.0
174.155,2040.0
174.156,2053.0
174.157,2069.0
174.158,2096.0
174.159,2087.0
174.16,2063.0
174.161,2037.0
174.162,2016.0
174.163,2039.0
174.164,2055.0
174.165,2072.0
174.166,2086.0
174.167,2067.0
174.168,2059.0
174.169,2027.0
174.17,2022.0
174.171,2044.0
174.172,2057.0
174.173,2086.0
174.174,2089.0
174.175,2077.0
174.176,2050.0
174.177,2028.0
174.178,2020.0
174.179,2048.0
174.18,2061.0
174.181,2085.0
174.182,2092.0
174.183,2073.0
174.184,2056.0
174.185,2031.0
174.186,2032.0
174.187,2053.0
174.188,2071.0
174.189,2089.0
174.19,2085.0
174.191,2071.0
174.192,2040.0
174.193,2030.0
174.194,2030.0
174.195,2046.0
174.196,2062.0
174.197,2090.0
174.198,2074.0
174.199,2049.0
174.2,2030.0
174.201,2013.0
174.202,2019.0
174.203,2051.0
174.204,2070.0
174.205,2083.0
174.206,2063.0
174.207,2046.0
174.208,2022.0
174.209,2008.0
174.21,2017.0
174.211,2036.0
174.212,2060.0
174.213,2068.0
174.214,2044.0
174.215,2018.0
174.216,1989.0
174.217,1983.0
174.218,1998.0
174.219,2020.0
174.22,2054.0
174.221,2051.0
174.222,2032.0
174.223,2013.0
174.224,1984.0
174.225,1997.0
174.226,2005.0
174.227,2034.0
174.228,2052.0
174.229,2052.0
174.23,2038.0
174.231,2019.0
174.232,1996.0
174.233,2001.0
174.234,2017.0
174.235,2050.0
174.236,2061.0
174.237,2050.0
174.238,2041.0
174.239,2010.0
174.24,1992.0
174.241,2009.0
174.242,2022.0
174.243,2056.0
174.244,2070.0
174.245,2052.0
174.246,2044.0
174.247,2008.0
174.248,1999.0
174.249,2020.0
174.25,2026.0
174.251,2065.0
174.252,2062.0
174.253,2051.0
174.254,2030.0
174.255,2003.0
174.256,2005.0
174.257,2027.0
174.258,2040.0
174.259,2064.0
174.26,2061.0
174.261,2056.0
174.262,2037.0
174.263,2006.0
174.264,2025.0
174.265,2036.0
174.266,2054.0
174.267,2086.0
174.268,2077.0
174.269,2064.0
174.27,2048.0
174.271,2026.0
174.272,2035.0
174.273,2060.0
174.274,2065.0
174.275,2098.0
174.276,2072.0
174.277,2066.0
174.278,2034.0
174.279,2024.0
174.28,2033.0
174.281,2047.0
174.282,2072.0
174.283,2082.0
174.284,2080.0
174.285,2062.0
174.286,2031.0
174.287,2023.0
174.288,2034.0
174.289,2042.0
174.29,2059.0
174.291,2074.0
174.292,2058.0
174.293,2046.0
174.294,2009.0
174.295,2020.0
174.296,2035.0
174.297,2050.0
174.298,2065.0
174.299,2065.0
174.3,2046.0
174.301,2034.0
174.302,2010.0
174.303,2009.0
174.304,2033.0
174.305,2051.0
174.306,2068.0
174.307,2067.0
174.308,2048.0
174.309,2031.0
174.31,2022.0
174.311,2027.0
174.312,2055.0
174.313,2075.0
174.314,2091.0
174.315,2076.0
174.316,2056.0
174.317,2022.0
174.318,1989.0
174.319,1972.0
174.32,1943.0
174.321,1927.0
174.322,1910.0
174.323,1860.0
174.324,1821.0
174.325,1786.0
174.326,1795.0
174.327,1859.0
174.328,1927.0
174.329,1986.0
174.33,2051.0
174.331,2076.0
174.332,2087.0
174.333,2074.0
174.334,2086.0
174.335,2104.0
174.336,2108.0
174.337,2114.0
174.338,2107.0
174.339,2079.0
174.34,2054.0
174.341,2029.0
174.342,2037.0
174.343,2054.0
174.344,2063.0
174.345,2078.0
174.346,2071.0
174.347,2055.0
174.348,2037.0
174.349,2021.0
174.35,2029.0
174.351,2054.0
174.352,2056.0
174.353,2062.0
174.354,2051.0
174.355,2049.0
174.356,2027.0
174.357,2019.0
174.358,2032.0
174.359,2039.0
174.36,2060.0
174.361,2064.0
174.362,2053.0
174.363,2033.0
174.364,2021.0
174.365,2010.0
174.366,2022.0
174.367,2037.0
174.368,2061.0
174.369,2069.0
174.37,2040.0
174.371,2033.0
174.372,2002.0
174.373,1995.0
174.374,2013.0
174.375,2028.0
174.376,2051.0
174.377,2044.0
174.378,2023.0
174.379,2008.0
174.38,1955.0
174.381,1955.0
174.382,1999.0
174.383,2000.0
174.384,2028.0
174.385,2016.0
174.386,1993.0
174.387,1986.0
174.388,1969.0
174.389,1975.0
174.39,1991.0
174.391,2008.0
174.392,2018.0
174.393,2007.0
174.394,1998.0
174.395,1976.0
174.396,1964.0
174.397,1969.0
174.398,1994.0
174.399,2002.0
174.4,2005.0
174.401,1988.0
174.402,1972.0
174.403,1947.0
174.404,1945.0
174.405,1958.0
174.406,1973.0
174.407,2004.0
174.408,2003.0
174.409,1984.0
174.41,1974.0
174.411,1950.0
174.412,1955.0
174.413,1967.0
174.414,1986.0
174.415,2013.0
174.416,2020.0
174.417,1995.0
174.418,1958.0
174.419,1961.0
174.42,1981.0
174.421,2002.0
174.422,2028.0
174.423,2057.0
174.424,2046.0
174.425,2037.0
174.426,2008.0
174.427,2001.0
174.428,2013.0
174.429,2038.0
174.43,2053.0
174.431,2069.0
174.432,2058.0
174.433,2042.0
174.434,2011.0
174.435,2014.0
174.436,2027.0
174.437,2048.0
174.438,2065.0
174.439,2084.0
174.44,2078.0
174.441,2051.0
174.442,2016.0
174.443,2025.0
174.444,2034.0
174.445,2042.0
174.446,2064.0
174.447,2079.0
174.448,2053.0
174.449,2042.0
174.45,2009.0
174.451,2015.0
174.452,2035.0
174.453,2060.0
174.454,2078.0
174.455,2082.0
174.456,2052.0
174.457,2032.0
174.458,2005.0
174.459,2009.0
174.46,2024.0
174.461,2054.0
174.462,2068.0
174.463,2057.0
174.464,2042.0
174.465,2021.0
174.466,2001.0
174.467,2010.0
174.468,2029.0
174.469,2050.0
174.47,2059.0
174.471,2047.0
174.472,2030.0
174.473,2016.0
174.474,2003.0
174.475,2016.0
174.476,2030.0
174.477,2048.0
174.478,2069.0
174.479,2052.0
174.48,2038.0
174.481,2015.0
174.482,1998.0
174.483,2018.0
174.484,2036.0
174.485,2047.0
174.486,2056.0
174.487,2031.0
174.488,2028.0
174.489,2006.0
174.49,1993.0
174.491,2028.0
174.492,2038.0
174.493,2052.0
174.494,2052.0
174.495,2038.0
174.496,2017.0
174.497,1989.0
174.498,2001.0
174.499,2024.0
174.5,2032.0
174.501,2062.0
174.502,2054.0
174.503,2036.0
174.504,2012.0
174.505,1996.0
174.506,2005.0
174.507,2026.0
174.508,2036.0
174.509,2059.0
174.51,2051.0
174.511,2036.0
174.512,2021.0
174.513,2004.0
174.514,2016.0
174.515,2040.0
174.516,2062.0
174.517,2070.0
174.518,2053.0
174.519,2028.0
174.52,2012.0
174.521,2002.0
174.522,2021.0
174.523,2052.0
174.524,2069.0
174.525,2071.0
174.526,2040.0
174.527,2040.0
174.528,2014.0
174.529,2017.0
174.53,2019.0
174.531,2047.0
174.532,2073.0
174.533,2053.0
174.534,2058.0
174.535,2049.0
174.536,2041.0
174.537,2023.0
174.538,2046.0
174.539,2070.0
174.54,2085.0
174.541,2078.0
174.542,2060.0
174.543,2039.0
174.544,2017.0
174.545,2016.0
174.546,2077.0
174.547,2021.0
174.548,2081.0
174.549,2065.0
174.55,2064.0
174.551,2052.0
174.552,2028.0
174.553,2034.0
174.554,2035.0
174.555,2067.0
174.556,2082.0
174.557,2070.0
174.558,2058.0
174.559,2034.0
174.56,1997.0
174.561,2048.0
174.562,2061.0
174.563,2097.0
174.564,2101.0
174.565,2082.0
174.566,2066.0
174.567,2039.0
174.568,2039.0
174.569,2059.0
174.57,2056.0
174.571,2085.0
174.572,2090.0
174.573,2080.0
174.574,2047.0
174.575,2028.0
174.576,2037.0
174.577,2058.0
174.578,2073.0
174.579,2098.0
174.58,2079.0
174.581,2068.0
174.582,2051.0
174.583,2036.0
174.584,2052.0
174.585,2054.0
174.586,2076.0
174.587,2091.0
174.588,2083.0
174.589,2071.0
174.59,2060.0
174.591,2045.0
174.592,2056.0
174.593,2069.0
174.594,2082.0
174.595,2097.0
174.596,2082.0
174.597,2070.0
174.598,2045.0
174.599,2033.0
174.6,2055.0
174.601,2059.0
174.602,2072.0
174.603,2086.0
174.604,2065.0
174.605,2059.0
174.606,2044.0
174.607,2035.0
174.608,2052.0
174.609,2079.0
174.61,2113.0
174.611,2124.0
174.612,2089.0
174.613,2072.0
174.614,2034.0
174.615,1999.0
174.616,1983.0
174.617,1955.0
174.618,1946.0
174.619,1917.0
174.62,1851.0
174.621,1814.0
174.622,1799.0
174.623,1840.0
174.624,1889.0
174.625,1952.0
174.626,2028.0
174.627,2065.0
174.628,2092.0
174.629,2089.0
174.63,2098.0
174.631,2112.0
174.632,2139.0
174.633,2146.0
174.634,2136.0
174.635,2112.0
174.636,2090.0
174.637,2063.0
174.638,2054.0
174.639,2072.0
174.64,2074.0
174.641,2092.0
174.642,2099.0
174.643,2084.0
174.644,2069.0
174.645,2054.0
174.646,2049.0
174.647,2064.0
174.648,2079.0
174.649,2102.0
174.65,2099.0
174.651,2080.0
174.652,2064.0
174.653,2031.0
174.654,2032.0
174.655,2060.0
174.656,2069.0
174.657,2088.0
174.658,2084.0
174.659,2067.0
174.66,2046.0
174.661,2031.0
174.662,2036.0
174.663,2059.0
174.664,2068.0
174.665,2080.0
174.666,2066.0
174.667,2055.0
174.668,2026.0
174.669,2027.0
174.67,2043.0
174.671,2061.0
174.672,2067.0
174.673,2073.0
174.674,2045.0
174.675,2041.0
174.676,2023.0
174.677,2011.0
174.678,2039.0
174.679,2046.0
174.68,2064.0
174.681,2055.0
174.682,2035.0
174.683,2016.0
174.684,1997.0
174.685,1999.0
174.686,2016.0
174.687,2036.0
174.688,2056.0
174.689,2052.0
174.69,2029.0
174.691,2007.0
174.692,1999.0
174.693,2001.0
174.694,2012.0
174.695,2028.0
174.696,2043.0
174.697,2034.0
174.698,2021.0
174.699,2003.0
174.7,1996.0
174.701,1996.0
174.702,2023.0
174.703,2036.0
174.704,2065.0
174.705,2043.0
174.706,2036.0
174.707,2012.0
174.708,1998.0
174.709,2012.0
174.71,2032.0
174.711,2047.0
174.712,2056.0
174.713,2042.0
174.714,2032.0
174.715,2025.0
174.716,2018.0
174.717,2042.0
174.718,2061.0
174.719,2091.0
174.72,2097.0
174.721,2075.0
174.722,2061.0
174.723,2046.0
174.724,2041.0
174.725,2064.0
174.726,2080.0
174.727,2103.0
174.728,2101.0
174.729,2080.0
174.73,2066.0
174.731,2052.0
174.732,2050.0
174.733,2084.0
174.734,2090.0
174.735,2101.0
174.736,2094.0
174.737,2074.0
174.738,2059.0
174.739,2042.0
174.74,2049.0
174.741,2069.0
174.742,2084.0
174.743,2095.0
174.744,2088.0
174.745,2068.0
174.746,2035.0
174.747,2036.0
174.748,2047.0
174.749,2062.0
174.75,2073.0
174.751,2085.0
174.752,2077.0
174.753,2059.0
174.754,2033.0
174.755,2038.0
174.756,2051.0
174.757,2059.0
174.758,2071.0
174.759,2079.0
174.76,2062.0
174.761,2038.0
174.762,2010.0
174.763,2011.0
174.764,2025.0
174.765,2045.0
174.766,2061.0
174.767,2052.0
174.768,2029.0
174.769,2016.0
174.77,2001.0
174.771,2008.0
174.772,2033.0
174.773,2050.0
174.774,2069.0
174.775,2056.0
174.776,2031.0
174.777,2009.0
174.778,1999.0
174.779,2014.0
174.78,2024.0
174.781,2044.0
174.782,2050.0
174.783,2037.0
174.784,2026.0
174.785,1998.0
174.786,1989.0
174.787,2009.0
174.788,2025.0
174.789,2040.0
174.79,2048.0
174.791,2030.0
174.792,2012.0
174.793,1991.0
174.794,1988.0
174.795,2007.0
174.796,2022.0
174.797,2055.0
174.798,2049.0
174.799,2025.0
174.8,2017.0
174.801,1988.0
174.802,1984.0
174.803,2011.0
174.804,2024.0
174.805,2045.0
174.806,2047.0
174.807,2038.0
174.808,2015.0
174.809,1995.0
174.81,1993.0
174.811,2020.0
174.812,2031.0
174.813,2053.0
174.814,2034.0
174.815,2019.0
174.816,1990.0
174.817,1978.0
174.818,1995.0
174.819,2008.0
174.82,2033.0
174.821,2050.0
174.822,2034.0
174.823,2019.0
174.824,1991.0
174.825,1972.0
174.826,1995.0
174.827,2007.0
174.828,2021.0
174.829,2039.0
174.83,2022.0
174.831,2005.0
174.832,1983.0
174.833,1963.0
174.834,2006.0
174.835,2014.0
174.836,2030.0
174.837,2040.0
174.838,2013.0
174.839,1994.0
174.84,1981.0
174.841,1979.0
174.842,1990.0
174.843,2011.0
174.844,2035.0
174.845,2033.0
174.846,2020.0
174.847,1999.0
174.848,1983.0
174.849,1979.0
174.85,1998.0
174.851,2013.0
174.852,2033.0
174.853,2034.0
174.854,2016.0
174.855,1999.0
174.856,1988.0
174.857,1992.0
174.858,2021.0
174.859,2048.0
174.86,2047.0
174.861,2047.0
174.862,2028.0
174.863,2013.0
174.864,1993.0
174.865,2007.0
174.866,2008.0
174.867,2036.0
174.868,2052.0
174.869,2037.0
174.87,2031.0
174.871,2008.0
174.872,2014.0
174.873,2020.0
174.874,2035.0
174.875,2051.0
174.876,2038.0
174.877,2032.0
174.878,2009.0
174.879,1998.0
174.88,1988.0
174.881,2009.0
174.882,2024.0
174.883,2038.0
174.884,2039.0
174.885,2023.0
174.886,2013.0
174.887,1997.0
174.888,1999.0
174.889,2019.0
174.89,2043.0
174.891,2056.0
174.892,2042.0
174.893,2037.0
174.894,2018.0
174.895,2006.0
174.896,2018.0
174.897,2036.0
174.898,2050.0
174.899,2065.0
174.9,2054.0
174.901,2047.0
174.902,2015.0
174.903,2005.0
174.904,2019.0
174.905,2020.0
174.906,2046.0
174.907,2067.0
174.908,2057.0
174.909,2038.0
174.91,2015.0
174.911,2014.0
174.912,2025.0
174.913,2034.0
174.914,2059.0
174.915,2077.0
174.916,2061.0
174.917,2063.0
174.918,2041.0
174.919,2052.0
174.92,2075.0
174.921,2069.0
174.922,2080.0
174.923,2051.0
174.924,2004.0
174.925,1950.0
174.926,1899.0
174.927,1864.0
174.928,1853.0
174.929,1829.0
174.93,1830.0
174.931,1838.0
174.932,1864.0
174.933,1883.0
174.934,1911.0
174.935,1993.0
174.936,2053.0
174.937,2103.0
174.938,2132.0
174.939,2129.0
174.94,2109.0
174.941,2098.0
174.942,2067.0
174.943,2068.0
174.944,2071.0
174.945,2081.0
174.946,2095.0
174.947,2071.0
174.948,2056.0
174.949,2038.0
174.95,2037.0
174.951,2051.0
174.952,2061.0
174.953,2082.0
174.954,2090.0
174.955,2075.0
174.956,2051.0
174.957,2033.0
174.958,2027.0
174.959,2041.0
174.96,2063.0
174.961,2091.0
174.962,2086.0
174.963,2077.0
174.964,2056.0
174.965,2040.0
174.966,2039.0
174.967,2061.0
174.968,2074.0
174.969,2086.0
174.97,2073.0
174.971,2060.0
174.972,2037.0
174.973,2026.0
174.974,2037.0
174.975,2037.0
174.976,2054.0
174.977,2067.0
174.978,2047.0
174.979,2046.0
174.98,2018.0
174.981,2010.0
174.982,2031.0
174.983,2043.0
174.984,2055.0
174.985,2055.0
174.986,2041.0
174.987,2024.0
174.988,2005.0
174.989,1994.0
174.99,2014.0
174.991,2029.0
174.992,2050.0
174.993,2045.0
174.994,2030.0
174.995,2006.0
174.996,1987.0
174.997,1982.0
174.998,2012.0
174.999,2015.0
175.0,2032.0
175.001,2028.0
175.002,2005.0
175.003,1985.0
175.004,1972.0
175.005,1977.0
175.006,1992.0
175.007,2010.0
175.008,2038.0
175.009,2015.0
175.01,2004.0
175.011,1988.0
175.012,1982.0
175.013,1999.0
175.014,2024.0
175.015,2036.0
175.016,2039.0
175.017,2029.0
175.018,2027.0
175.019,2007.0
175.02,1994.0
175.021,2019.0
175.022,2046.0
175.023,2060.0
175.024,2061.0
175.025,2052.0
175.026,2042.0
175.027,2030.0
175.028,2027.0
175.029,2048.0
175.03,2055.0
175.031,2079.0
175.032,2074.0
175.033,2063.0
175.034,2046.0
175.035,2026.0
175.036,2039.0
175.037,2051.0
175.038,2061.0
175.039,2084.0
175.04,2070.0
175.041,2062.0
175.042,2059.0
175.043,2039.0
175.044,2048.0
175.045,2068.0
175.046,2071.0
175.047,2094.0
175.048,2091.0
175.049,2064.0
175.05,2050.0
175.051,2036.0
175.052,2038.0
175.053,2054.0
175.054,2070.0
175.055,2085.0
175.056,2079.0
175.057,2069.0
175.058,2053.0
175.059,2050.0
175.06,2033.0
175.061,2045.0
175.062,2039.0
175.063,2085.0
175.064,2052.0
175.065,2015.0
175.066,1991.0
175.067,2023.0
175.068,2048.0
175.069,2034.0
175.07,2066.0
175.071,2065.0
175.072,2035.0
175.073,2015.0
175.074,2004.0
175.075,2006.0
175.076,2043.0
175.077,2043.0
175.078,2071.0
175.079,2060.0
175.08,2042.0
175.081,2024.0
175.082,2009.0
175.083,2016.0
175.084,2032.0
175.085,2051.0
175.086,2065.0
175.087,2058.0
175.088,2037.0
175.089,2012.0
175.09,2006.0
175.091,2017.0
175.092,2027.0
175.093,2053.0
175.094,2071.0
175.095,2060.0
175.096,2029.0
175.097,2016.0
175.098,2014.0
175.099,2038.0
175.1,2051.0
175.101,2063.0
175.102,2066.0
175.103,2044.0
175.104,2030.0
175.105,2008.0
175.106,2009.0
175.107,2027.0
175.108,2025.0
175.109,2037.0
175.11,2028.0
175.111,2008.0
175.112,1992.0
175.113,1963.0
175.114,1964.0
175.115,1980.0
175.116,1988.0
175.117,2005.0
175.118,1995.0
175.119,1967.0
175.12,1946.0
175.121,1936.0
175.122,1942.0
175.123,1948.0
175.124,1966.0
175.125,1980.0
175.126,1973.0
175.127,1969.0
175.128,1953.0
175.129,1931.0
175.13,1943.0
175.131,1963.0
175.132,1976.0
175.133,1983.0
175.134,1975.0
175.135,1964.0
175.136,1937.0
175.137,1929.0
175.138,1944.0
175.139,1955.0
175.14,1980.0
175.141,1987.0
175.142,1974.0
175.143,1961.0
175.144,1942.0
175.145,1928.0
175.146,1951.0
175.147,1969.0
175.148,1993.0
175.149,1998.0
175.15,1975.0
175.151,1966.0
175.152,1949.0
175.153,1947.0
175.154,1963.0
175.155,1979.0
175.156,1991.0
175.157,1992.0
175.158,1975.0
175.159,1954.0
175.16,1948.0
175.161,1949.0
175.162,1971.0
175.163,1997.0
175.164,2009.0
175.165,1993.0
175.166,1982.0
175.167,1956.0
175.168,1950.0
175.169,1959.0
175.17,1968.0
175.171,1985.0
175.172,2007.0
175.173,1996.0
175.174,1977.0
175.175,1962.0
175.176,1954.0
175.177,1975.0
175.178,1989.0
175.179,2022.0
175.18,2018.0
175.181,2007.0
175.182,1996.0
175.183,1963.0
175.184,1959.0
175.185,1974.0
175.186,1984.0
175.187,2016.0
175.188,2017.0
175.189,1994.0
175.19,1975.0
175.191,1954.0
175.192,1956.0
175.193,1973.0
175.194,1992.0
175.195,2002.0
175.196,2004.0
175.197,1991.0
175.198,1975.0
175.199,1960.0
175.2,1963.0
175.201,1970.0
175.202,1982.0
175.203,2006.0
175.204,1993.0
175.205,1984.0
175.206,1968.0
175.207,1961.0
175.208,1957.0
175.209,1973.0
175.21,1992.0
175.211,2006.0
175.212,2003.0
175.213,1996.0
175.214,1973.0
175.215,1962.0
175.216,1973.0
175.217,1972.0
175.218,1999.0
175.219,2015.0
175.22,1996.0
175.221,2001.0
175.222,1985.0
175.223,1983.0
175.224,1993.0
175.225,2004.0
175.226,2020.0
175.227,2031.0
175.228,2015.0
175.229,2012.0
175.23,1984.0
175.231,1992.0
175.232,2002.0
175.233,2018.0
175.234,2036.0
175.235,2033.0
175.236,2016.0
175.237,2004.0
175.238,1992.0
175.239,2001.0
175.24,2010.0
175.241,2022.0
175.242,2025.0
175.243,2020.0
175.244,2010.0
175.245,1998.0
175.246,1987.0
175.247,2012.0
175.248,2026.0
175.249,2053.0
175.25,2075.0
175.251,2056.0
175.252,2024.0
175.253,1995.0
175.254,1953.0
175.255,1926.0
175.256,1909.0
175.257,1896.0
175.258,1862.0
175.259,1833.0
175.26,1815.0
175.261,1823.0
175.262,1864.0
175.263,1901.0
175.264,1969.0
175.265,2038.0
175.266,2091.0
175.267,2098.0
175.268,2091.0
175.269,2068.0
175.27,2073.0
175.271,2064.0
175.272,2060.0
175.273,2063.0
175.274,2050.0
175.275,2023.0
175.276,2007.0
175.277,1980.0
175.278,1988.0
175.279,2004.0
175.28,2011.0
175.281,2010.0
175.282,2019.0
175.283,2011.0
175.284,2000.0
175.285,1992.0
175.286,1995.0
175.287,2016.0
175.288,2023.0
175.289,2031.0
175.29,2012.0
175.291,1990.0
175.292,1993.0
175.293,1982.0
175.294,1994.0
175.295,1997.0
175.296,2024.0
175.297,2024.0
175.298,2010.0
175.299,1997.0
175.3,1978.0
175.301,1985.0
175.302,2018.0
175.303,2032.0
175.304,2052.0
175.305,2049.0
175.306,2036.0
175.307,2023.0
175.308,2005.0
175.309,2014.0
175.31,2035.0
175.311,2044.0
175.312,2064.0
175.313,2059.0
175.314,2057.0
175.315,2040.0
175.316,2035.0
175.317,2041.0
175.318,2047.0
175.319,2073.0
175.32,2077.0
175.321,2080.0
175.322,2064.0
175.323,2047.0
175.324,2031.0
175.325,2042.0
175.326,2061.0
175.327,2076.0
175.328,2083.0
175.329,2080.0
175.33,2068.0
175.331,2053.0
175.332,2030.0
175.333,2042.0
175.334,2061.0
175.335,2076.0
175.336,2086.0
175.337,2067.0
175.338,2063.0
175.339,2037.0
175.34,2033.0
175.341,2058.0
175.342,2067.0
175.343,2090.0
175.344,2085.0
175.345,2073.0
175.346,2066.0
175.347,2048.0
175.348,2064.0
175.349,2077.0
175.35,2094.0
175.351,2124.0
175.352,2105.0
175.353,2097.0
175.354,2077.0
175.355,2078.0
175.356,2083.0
175.357,2114.0
175.358,2126.0
175.359,2141.0
175.36,2138.0
175.361,2125.0
175.362,2104.0
175.363,2109.0
175.364,2119.0
175.365,2130.0
175.366,2146.0
175.367,2157.0
175.368,2140.0
175.369,2130.0
175.37,2115.0
175.371,2107.0
175.372,2111.0
175.373,2126.0
175.374,2155.0
175.375,2153.0
175.376,2137.0
175.377,2127.0
175.378,2100.0
175.379,2105.0
175.38,2123.0
175.381,2140.0
175.382,2157.0
175.383,2157.0
175.384,2129.0
175.385,2112.0
175.386,2088.0
175.387,2101.0
175.388,2116.0
175.389,2136.0
175.39,2147.0
175.391,2133.0
175.392,2112.0
175.393,2090.0
175.394,2081.0
175.395,2090.0
175.396,2105.0
175.397,2120.0
175.398,2116.0
175.399,2100.0
175.4,2082.0
175.401,2068.0
175.402,2054.0
175.403,2071.0
175.404,2085.0
175.405,2110.0
175.406,2108.0
175.407,2097.0
175.408,2076.0
175.409,2048.0
175.41,2049.0
175.411,2063.0
175.412,2073.0
175.413,2088.0
175.414,2084.0
175.415,2063.0
175.416,2053.0
175.417,2030.0
175.418,2021.0
175.419,2038.0
175.42,2048.0
175.421,2064.0
175.422,2066.0
175.423,2047.0
175.424,2033.0
175.425,2003.0
175.426,2012.0
175.427,2020.0
175.428,2046.0
175.429,2064.0
175.43,2065.0
175.431,2030.0
175.432,2019.0
175.433,2005.0
175.434,2008.0
175.435,2042.0
175.436,2043.0
175.437,2054.0
175.438,2047.0
175.439,2037.0
175.44,2018.0
175.441,1998.0
175.442,2000.0
175.443,2018.0
175.444,2033.0
175.445,2046.0
175.446,2031.0
175.447,2006.0
175.448,1995.0
175.449,1979.0
175.45,2009.0
175.451,2018.0
175.452,2031.0
175.453,2052.0
175.454,2035.0
175.455,2031.0
175.456,1994.0
175.457,1993.0
175.458,2005.0
175.459,2027.0
175.46,2049.0
175.461,2061.0
175.462,2030.0
175.463,2015.0
175.464,2000.0
175.465,2010.0
175.466,2031.0
175.467,2045.0
175.468,2053.0
175.469,2060.0
175.47,2036.0
175.471,2012.0
175.472,1996.0
175.473,2012.0
175.474,2034.0
175.475,2053.0
175.476,2067.0
175.477,2063.0
175.478,2051.0
175.479,2034.0
175.48,2014.0
175.481,2027.0
175.482,2037.0
175.483,2061.0
175.484,2081.0
175.485,2075.0
175.486,2062.0
175.487,2043.0
175.488,2034.0
175.489,2041.0
175.49,2063.0
175.491,2079.0
175.492,2082.0
175.493,2066.0
175.494,2043.0
175.495,2036.0
175.496,2020.0
175.497,2050.0
175.498,2057.0
175.499,2086.0
175.5,2085.0
175.501,2070.0
175.502,2058.0
175.503,2040.0
175.504,2041.0
175.505,2056.0
175.506,2070.0
175.507,2106.0
175.508,2056.0
175.509,2093.0
175.51,2055.0
175.511,2037.0
175.512,2058.0
175.513,2026.0
175.514,2049.0
175.515,2073.0
175.516,2106.0
175.517,2061.0
175.518,2072.0
175.519,2025.0
175.52,2024.0
175.521,2048.0
175.522,2065.0
175.523,2081.0
175.524,2066.0
175.525,2061.0
175.526,2040.0
175.527,2047.0
175.528,2045.0
175.529,2055.0
175.53,2083.0
175.531,2087.0
175.532,2068.0
175.533,2063.0
175.534,2044.0
175.535,2036.0
175.536,2044.0
175.537,2051.0
175.538,2071.0
175.539,2069.0
175.54,2048.0
175.541,2041.0
175.542,2024.0
175.543,2026.0
175.544,2036.0
175.545,2039.0
175.546,2053.0
175.547,2060.0
175.548,2034.0
175.549,2035.0
175.55,2014.0
175.551,2026.0
175.552,2029.0
175.553,2055.0
175.554,2070.0
175.555,2061.0
175.556,2046.0
175.557,2032.0
175.558,2015.0
175.559,2031.0
175.56,2042.0
175.561,2064.0
175.562,2078.0
175.563,2067.0
175.564,2052.0
175.565,2029.0
175.566,2016.0
175.567,2036.0
175.568,2037.0
175.569,2052.0
175.57,2071.0
175.571,2057.0
175.572,2039.0
175.573,2024.0
175.574,2024.0
175.575,2047.0
175.576,2057.0
175.577,2075.0
175.578,2063.0
175.579,2075.0
175.58,2055.0
175.581,2024.0
175.582,2005.0
175.583,1997.0
175.584,1960.0
175.585,1947.0
175.586,1912.0
175.587,1860.0
175.588,1805.0
175.589,1787.0
175.59,1801.0
175.591,1862.0
175.592,1924.0
175.593,1983.0
175.594,2027.0
175.595,2053.0
175.596,2066.0
175.597,2068.0
175.598,2092.0
175.599,2096.0
175.6,2110.0
175.601,2114.0
175.602,2104.0
175.603,2084.0
175.604,2058.0
175.605,2042.0
175.606,2056.0
175.607,2069.0
175.608,2082.0
175.609,2086.0
175.61,2072.0
175.611,2063.0
175.612,2040.0
175.613,2037.0
175.614,2053.0
175.615,2067.0
175.616,2080.0
175.617,2090.0
175.618,2078.0
175.619,2058.0
175.62,2039.0
175.621,2035.0
175.622,2057.0
175.623,2072.0
175.624,2082.0
175.625,2093.0
175.626,2063.0
175.627,2058.0
175.628,2029.0
175.629,2039.0
175.63,2036.0
175.631,2064.0
175.632,2074.0
175.633,2069.0
175.634,2061.0
175.635,2035.0
175.636,2033.0
175.637,2031.0
175.638,2023.0
175.639,2056.0
175.64,2067.0
175.641,2060.0
175.642,2039.0
175.643,2030.0
175.644,2021.0
175.645,2038.0
175.646,2041.0
175.647,2058.0
175.648,2054.0
175.649,2045.0
175.65,2037.0
175.651,2015.0
175.652,2011.0
175.653,2028.0
175.654,2027.0
175.655,2052.0
175.656,2042.0
175.657,2026.0
175.658,2011.0
175.659,1989.0
175.66,1998.0
175.661,2018.0
175.662,2010.0
175.663,2037.0
175.664,2026.0
175.665,2015.0
175.666,1999.0
175.667,2001.0
175.668,2011.0
175.669,2022.0
175.67,2038.0
175.671,2047.0
175.672,2039.0
175.673,2023.0
175.674,2013.0
175.675,2009.0
175.676,2025.0
175.677,2037.0
175.678,2046.0
175.679,2061.0
175.68,2050.0
175.681,2034.0
175.682,2025.0
175.683,2022.0
175.684,2034.0
175.685,2057.0
175.686,2082.0
175.687,2093.0
175.688,2078.0
175.689,2069.0
175.69,2058.0
175.691,2053.0
175.692,2061.0
175.693,2072.0
175.694,2092.0
175.695,2098.0
175.696,2084.0
175.697,2068.0
175.698,2055.0
175.699,2059.0
175.7,2072.0
175.701,2098.0
175.702,2104.0
175.703,2105.0
175.704,2081.0
175.705,2072.0
175.706,2052.0
175.707,2066.0
175.708,2084.0
175.709,2097.0
175.71,2109.0
175.711,2097.0
175.712,2075.0
175.713,2060.0
175.714,2047.0
175.715,2058.0
175.716,2065.0
175.717,2088.0
175.718,2087.0
175.719,2073.0
175.72,2067.0
175.721,2042.0
175.722,2034.0
175.723,2050.0
175.724,2061.0
175.725,2084.0
175.726,2080.0
175.727,2067.0
175.728,2047.0
175.729,2022.0
175.73,2036.0
175.731,2051.0
175.732,2056.0
175.733,2074.0
175.734,2068.0
175.735,2058.0
175.736,2038.0
175.737,2016.0
175.738,2027.0
175.739,2043.0
175.74,2043.0
175.741,2062.0
175.742,2063.0
175.743,2050.0
175.744,2024.0
175.745,2014.0
175.746,2018.0
175.747,2030.0
175.748,2042.0
175.749,2061.0
175.75,2048.0
175.751,2048.0
175.752,2028.0
175.753,2017.0
175.754,2027.0
175.755,2047.0
175.756,2066.0
175.757,2067.0
175.758,2060.0
175.759,2045.0
175.76,2019.0
175.761,2007.0
175.762,2019.0
175.763,2027.0
175.764,2056.0
175.765,2058.0
175.766,2043.0
175.767,2031.0
175.768,2010.0
175.769,2002.0
175.77,2026.0
175.771,2033.0
175.772,2052.0
175.773,2042.0
175.774,2041.0
175.775,2028.0
175.776,2006.0
175.777,2007.0
175.778,2031.0
175.779,2032.0
175.78,2043.0
175.781,2047.0
175.782,2028.0
175.783,2018.0
175.784,2001.0
175.785,2004.0
175.786,2022.0
175.787,2028.0
175.788,2037.0
175.789,2033.0
175.79,2026.0
175.791,2010.0
175.792,1998.0
175.793,2011.0
175.794,2018.0
175.795,2027.0
175.796,2043.0
175.797,2033.0
175.798,2019.0
175.799,2008.0
175.8,1990.0
175.801,2002.0
175.802,2012.0
175.803,2031.0
175.804,2024.0
175.805,2009.0
175.806,2001.0
175.807,1971.0
175.808,1959.0
175.809,1981.0
175.81,1990.0
175.811,2008.0
175.812,2014.0
175.813,2000.0
175.814,1984.0
175.815,1973.0
175.816,1974.0
175.817,1995.0
175.818,2006.0
175.819,2003.0
175.82,1998.0
175.821,1993.0
175.822,1981.0
175.823,1980.0
175.824,1989.0
175.825,2003.0
175.826,2023.0
175.827,2036.0
175.828,2029.0
175.829,2016.0
175.83,2009.0
175.831,1996.0
175.832,1998.0
175.833,2016.0
175.834,2036.0
175.835,2049.0
175.836,2033.0
175.837,2023.0
175.838,2010.0
175.839,2002.0
175.84,2008.0
175.841,2021.0
175.842,2038.0
175.843,2038.0
175.844,2025.0
175.845,2003.0
175.846,1992.0
175.847,2006.0
175.848,2016.0
175.849,2026.0
175.85,2054.0
175.851,2054.0
175.852,2028.0
175.853,2013.0
175.854,2002.0
175.855,2007.0
175.856,2029.0
175.857,2033.0
175.858,2055.0
175.859,2056.0
175.86,2036.0
175.861,2028.0
175.862,2017.0
175.863,2030.0
175.864,2023.0
175.865,2045.0
175.866,2063.0
175.867,2061.0
175.868,2054.0
175.869,2034.0
175.87,2033.0
175.871,2039.0
175.872,2044.0
175.873,2063.0
175.874,2066.0
175.875,2057.0
175.876,2057.0
175.877,2035.0
175.878,2023.0
175.879,2050.0
175.88,2056.0
175.881,2073.0
175.882,2095.0
175.883,2086.0
175.884,2075.0
175.885,2072.0
175.886,2056.0
175.887,2069.0
175.888,2051.0
175.889,2036.0
175.89,1999.0
175.891,1952.0
175.892,1915.0
175.893,1862.0
175.894,1827.0
175.895,1829.0
175.896,1841.0
175.897,1895.0
175.898,1945.0
175.899,1990.0
175.9,2020.0
175.901,2045.0
175.902,2090.0
175.903,2120.0
175.904,2133.0
175.905,2148.0
175.906,2133.0
175.907,2115.0
175.908,2099.0
175.909,2079.0
175.91,2078.0
175.911,2082.0
175.912,2082.0
175.913,2085.0
175.914,2074.0
175.915,2060.0
175.916,2041.0
175.917,2043.0
175.918,2055.0
175.919,2071.0
175.92,2074.0
175.921,2074.0
175.922,2059.0
175.923,2050.0
175.924,2048.0
175.925,2042.0
175.926,2066.0
175.927,2071.0
175.928,2071.0
175.929,2077.0
175.93,2065.0
175.931,2049.0
175.932,2031.0
175.933,2039.0
175.934,2053.0
175.935,2061.0
175.936,2066.0
175.937,2062.0
175.938,2060.0
175.939,2038.0
175.94,2023.0
175.941,2031.0
175.942,2020.0
175.943,2055.0
175.944,2059.0
175.945,2052.0
175.946,2041.0
175.947,2007.0
175.948,2004.0
175.949,2022.0
175.95,2028.0
175.951,2051.0
175.952,2059.0
175.953,2049.0
175.954,2031.0
175.955,2010.0
175.956,2012.0
175.957,2031.0
175.958,2039.0
175.959,2025.0
175.96,2040.0
175.961,2015.0
175.962,2008.0
175.963,2006.0
175.964,2005.0
175.965,2029.0
175.966,2002.0
175.967,2039.0
175.968,2032.0
175.969,2050.0
175.97,2027.0
175.971,2003.0
175.972,1998.0
175.973,2017.0
175.974,2025.0
175.975,2048.0
175.976,2037.0
175.977,2027.0
175.978,2022.0
175.979,2011.0
175.98,2025.0
175.981,2043.0
175.982,2050.0
175.983,2075.0
175.984,2074.0
175.985,2054.0
175.986,2041.0
175.987,2044.0
175.988,2049.0
175.989,2068.0
175.99,2079.0
175.991,2088.0
175.992,2080.0
175.993,2082.0
175.994,2069.0
175.995,2059.0
175.996,2067.0
175.997,2094.0
175.998,2117.0
175.999,2121.0
176.0,2099.0
176.001,2089.0
176.002,2073.0
176.003,2078.0
176.004,2093.0
176.005,2097.0
176.006,2117.0
176.007,2120.0
176.008,2085.0
176.009,2075.0
176.01,2058.0
176.011,2065.0
176.012,2081.0
176.013,2088.0
176.014,2103.0
176.015,2096.0
176.016,2081.0
176.017,2072.0
176.018,2054.0
176.019,2057.0
176.02,2073.0
176.021,2091.0
176.022,2094.0
176.023,2083.0
176.024,2073.0
176.025,2058.0
176.026,2049.0
176.027,2051.0
176.028,2063.0
176.029,2084.0
176.03,2091.0
176.031,2071.0
176.032,2067.0
176.033,2057.0
176.034,2056.0
176.035,2060.0
176.036,2066.0
176.037,2084.0
176.038,2095.0
176.039,2073.0
176.04,2056.0
176.041,2039.0
176.042,2031.0
176.043,2061.0
176.044,2069.0
176.045,2086.0
176.046,2083.0
176.047,2064.0
176.048,2032.0
176.049,2019.0
176.05,2025.0
176.051,2036.0
176.052,2043.0
176.053,2066.0
176.054,2057.0
176.055,2039.0
176.056,2032.0
176.057,2017.0
176.058,2031.0
176.059,2037.0
176.06,2051.0
176.061,2064.0
176.062,2050.0
176.063,2040.0
176.064,2016.0
176.065,2018.0
176.066,2024.0
176.067,2038.0
176.068,2054.0
176.069,2079.0
176.07,2060.0
176.071,2057.0
176.072,2033.0
176.073,2035.0
176.074,2041.0
176.075,2050.0
176.076,2071.0
176.077,2079.0
176.078,2067.0
176.079,2055.0
176.08,2020.0
176.081,2029.0
176.082,2051.0
176.083,2055.0
176.084,2075.0
176.085,2071.0
176.086,2054.0
176.087,2049.0
176.088,2028.0
176.089,2039.0
176.09,2041.0
176.091,2050.0
176.092,2071.0
176.093,2066.0
176.094,2050.0
176.095,2037.0
176.096,2022.0
176.097,2031.0
176.098,2049.0
176.099,2065.0
176.1,2071.0
176.101,2058.0
176.102,2049.0
176.103,2042.0
176.104,2029.0
176.105,2054.0
176.106,2064.0
176.107,2083.0
176.108,2093.0
176.109,2079.0
176.11,2060.0
176.111,2040.0
176.112,2031.0
176.113,2048.0
176.114,2059.0
176.115,2077.0
176.116,2076.0
176.117,2058.0
176.118,2047.0
176.119,2024.0
176.12,2022.0
176.121,2049.0
176.122,2062.0
176.123,2065.0
176.124,2072.0
176.125,2062.0
176.126,2041.0
176.127,2002.0
176.128,1989.0
176.129,1994.0
176.13,2008.0
176.131,2010.0
176.132,2012.0
176.133,1995.0
176.134,1982.0
176.135,1966.0
176.136,1969.0
176.137,1982.0
176.138,1996.0
176.139,2003.0
176.14,1993.0
176.141,1994.0
176.142,1980.0
176.143,1971.0
176.144,1973.0
176.145,1991.0
176.146,2016.0
176.147,2022.0
176.148,2016.0
176.149,2000.0
176.15,1985.0
176.151,1982.0
176.152,1995.0
176.153,2012.0
176.154,2020.0
176.155,2029.0
176.156,2019.0
176.157,2017.0
176.158,1993.0
176.159,1985.0
176.16,1995.0
176.161,2017.0
176.162,2035.0
176.163,2037.0
176.164,2019.0
176.165,2015.0
176.166,1995.0
176.167,1997.0
176.168,2015.0
176.169,2028.0
176.17,2046.0
176.171,2043.0
176.172,2037.0
176.173,2013.0
176.174,1999.0
176.175,2016.0
176.176,2030.0
176.177,2054.0
176.178,2071.0
176.179,2071.0
176.18,2065.0
176.181,2050.0
176.182,2015.0
176.183,2004.0
176.184,1978.0
176.185,1955.0
176.186,1933.0
176.187,1895.0
176.188,1840.0
176.189,1794.0
176.19,1779.0
176.191,1812.0
176.192,1871.0
176.193,1937.0
176.194,1994.0
176.195,2027.0
176.196,2061.0
176.197,2073.0
176.198,2085.0
176.199,2105.0
176.2,2117.0
176.201,2133.0
176.202,2125.0
176.203,2095.0
176.204,2076.0
176.205,2054.0
176.206,2045.0
176.207,2067.0
176.208,2076.0
176.209,2079.0
176.21,2076.0
176.211,2063.0
176.212,2049.0
176.213,2041.0
176.214,2043.0
176.215,2042.0
176.216,2063.0
176.217,2071.0
176.218,2068.0
176.219,2055.0
176.22,2033.0
176.221,2032.0
176.222,2036.0
176.223,2044.0
176.224,2051.0
176.225,2064.0
176.226,2057.0
176.227,2048.0
176.228,2028.0
176.229,2026.0
176.23,2033.0
176.231,2035.0
176.232,2052.0
176.233,2054.0
176.234,2046.0
176.235,2028.0
176.236,2009.0
176.237,2007.0
176.238,2024.0
176.239,2034.0
176.24,2041.0
176.241,2043.0
176.242,2028.0
176.243,2012.0
176.244,2002.0
176.245,2009.0
176.246,2019.0
176.247,2031.0
176.248,2033.0
176.249,2035.0
176.25,2019.0
176.251,2003.0
176.252,1993.0
176.253,1996.0
176.254,2012.0
176.255,2023.0
176.256,2017.0
176.257,2014.0
176.258,2001.0
176.259,1989.0
176.26,1978.0
176.261,1991.0
176.262,1992.0
176.263,2007.0
176.264,2013.0
176.265,2008.0
176.266,2002.0
176.267,1986.0
176.268,1981.0
176.269,2001.0
176.27,2004.0
176.271,2020.0
176.272,2017.0
176.273,1997.0
176.274,1997.0
176.275,1988.0
176.276,1993.0
176.277,2010.0
176.278,2018.0
176.279,2041.0
176.28,2036.0
176.281,2024.0
176.282,2016.0
176.283,1999.0
176.284,2016.0
176.285,2039.0
176.286,2045.0
176.287,2066.0
176.288,2061.0
176.289,2051.0
176.29,2034.0
176.291,2035.0
176.292,2038.0
176.293,2057.0
176.294,2060.0
176.295,2076.0
176.296,2061.0
176.297,2054.0
176.298,2047.0
176.299,2034.0
176.3,2052.0
176.301,2054.0
176.302,2074.0
176.303,2079.0
176.304,2065.0
176.305,2062.0
176.306,2049.0
176.307,2048.0
176.308,2056.0
176.309,2070.0
176.31,2082.0
176.311,2086.0
176.312,2056.0
176.313,2055.0
176.314,2036.0
176.315,2042.0
176.316,2048.0
176.317,2053.0
176.318,2083.0
176.319,2068.0
176.32,2060.0
176.321,2051.0
176.322,2037.0
176.323,2036.0
176.324,2049.0
176.325,2061.0
176.326,2065.0
176.327,2050.0
176.328,2036.0
176.329,2030.0
176.33,2020.0
176.331,2035.0
176.332,2039.0
176.333,2056.0
176.334,2065.0
176.335,2061.0
176.336,2037.0
176.337,2024.0
176.338,2022.0
176.339,2038.0
176.34,2054.0
176.341,2067.0
176.342,2067.0
176.343,2059.0
176.344,2045.0
176.345,2029.0
176.346,2013.0
176.347,2028.0
176.348,2042.0
176.349,2051.0
176.35,2052.0
176.351,2039.0
176.352,2026.0
176.353,2013.0
176.354,2012.0
176.355,2023.0
176.356,2032.0
176.357,2050.0
176.358,2060.0
176.359,2046.0
176.36,2031.0
176.361,2016.0
176.362,2025.0
176.363,2024.0
176.364,2051.0
176.365,2062.0
176.366,2063.0
176.367,2036.0
176.368,2026.0
176.369,2016.0
176.37,2021.0
176.371,2037.0
176.372,2045.0
176.373,2048.0
176.374,2038.0
176.375,2032.0
176.376,2021.0
176.377,2017.0
176.378,2031.0
176.379,2043.0
176.38,2053.0
176.381,2052.0
176.382,2043.0
176.383,2026.0
176.384,2016.0
176.385,2014.0
176.386,2032.0
176.387,2028.0
176.388,2061.0
176.389,2047.0
176.39,2031.0
176.391,2024.0
176.392,1998.0
176.393,2006.0
176.394,2027.0
176.395,2043.0
176.396,2058.0
176.397,2059.0
176.398,2036.0
176.399,2029.0
176.4,2016.0
176.401,2025.0
176.402,2037.0
176.403,2067.0
176.404,2070.0
176.405,2061.0
176.406,2057.0
176.407,2040.0
176.408,2012.0
176.409,2015.0
176.41,2041.0
176.411,2062.0
176.412,2054.0
176.413,2045.0
176.414,2036.0
176.415,2013.0
176.416,2025.0
176.417,2010.0
176.418,2025.0
176.419,2023.0
176.42,2054.0
176.421,2018.0
176.422,2015.0
176.423,2005.0
176.424,2003.0
176.425,2014.0
176.426,2028.0
176.427,2042.0
176.428,2049.0
176.429,2032.0
176.43,2020.0
176.431,1993.0
176.432,2000.0
176.433,2019.0
176.434,2037.0
176.435,2048.0
176.436,2049.0
176.437,2030.0
176.438,2017.0
176.439,2009.0
176.44,2003.0
176.441,2023.0
176.442,2039.0
176.443,2039.0
176.444,2042.0
176.445,2032.0
176.446,2012.0
176.447,1995.0
176.448,2010.0
176.449,2023.0
176.45,2040.0
176.451,2051.0
176.452,2042.0
176.453,2026.0
176.454,2001.0
176.455,1997.0
176.456,2007.0
176.457,2030.0
176.458,2044.0
176.459,2053.0
176.46,2037.0
176.461,2033.0
176.462,2005.0
176.463,1999.0
176.464,2013.0
176.465,2028.0
176.466,2041.0
176.467,2040.0
176.468,2032.0
176.469,2027.0
176.47,1989.0
176.471,1997.0
176.472,2002.0
176.473,2017.0
176.474,2033.0
176.475,2032.0
176.476,2016.0
176.477,2007.0
176.478,1993.0
176.479,2000.0
176.48,2013.0
176.481,2037.0
176.482,2053.0
176.483,2045.0
176.484,2025.0
176.485,2005.0
176.486,1972.0
176.487,1953.0
176.488,1923.0
176.489,1899.0
176.49,1884.0
176.491,1835.0
176.492,1783.0
176.493,1752.0
176.494,1746.0
176.495,1788.0
176.496,1835.0
176.497,1895.0
176.498,1959.0
176.499,1994.0
176.5,2019.0
176.501,2035.0
176.502,2045.0
176.503,2059.0
176.504,2052.0
176.505,2067.0
176.506,2058.0
176.507,2029.0
176.508,2011.0
176.509,1991.0
176.51,1980.0
176.511,1995.0
176.512,1998.0
176.513,2014.0
176.514,2015.0
176.515,2004.0
176.516,1999.0
176.517,1985.0
176.518,1989.0
176.519,1997.0
176.52,2012.0
176.521,2031.0
176.522,2019.0
176.523,2006.0
176.524,1989.0
176.525,1977.0
176.526,1981.0
176.527,1984.0
176.528,1997.0
176.529,2006.0
176.53,1995.0
176.531,1977.0
176.532,1968.0
176.533,1948.0
176.534,1970.0
176.535,1973.0
176.536,1988.0
176.537,1989.0
176.538,1983.0
176.539,1977.0
176.54,1959.0
176.541,1972.0
176.542,1983.0
176.543,1993.0
176.544,1993.0
176.545,2005.0
176.546,1993.0
176.547,1978.0
176.548,1961.0
176.549,1968.0
176.55,1986.0
176.551,1989.0
176.552,2003.0
176.553,1997.0
176.554,1983.0
176.555,1969.0
176.556,1962.0
176.557,1977.0
176.558,1988.0
176.559,2006.0
176.56,2014.0
176.561,2013.0
176.562,2001.0
176.563,1986.0
176.564,1979.0
176.565,1984.0
176.566,1995.0
176.567,2010.0
176.568,2012.0
176.569,2019.0
176.57,1996.0
176.571,1994.0
176.572,1977.0
176.573,1998.0
176.574,2019.0
176.575,2028.0
176.576,2027.0
176.577,2024.0
176.578,2021.0
176.579,1994.0
176.58,1998.0
176.581,2016.0
176.582,2026.0
176.583,2038.0
176.584,2042.0
176.585,2045.0
176.586,2038.0
176.587,2029.0
176.588,2034.0
176.589,2061.0
176.59,2069.0
176.591,2079.0
176.592,2077.0
176.593,2074.0
176.594,2065.0
176.595,2050.0
176.596,2058.0
176.597,2071.0
176.598,2082.0
176.599,2084.0
176.6,2079.0
176.601,2071.0
176.602,2047.0
176.603,2046.0
176.604,2055.0
176.605,2069.0
176.606,2079.0
176.607,2086.0
176.608,2077.0
176.609,2073.0
176.61,2056.0
176.611,2045.0
176.612,2059.0
176.613,2073.0
176.614,2087.0
176.615,2086.0
176.616,2075.0
176.617,2067.0
176.618,2050.0
176.619,2033.0
176.62,2048.0
176.621,2056.0
176.622,2073.0
176.623,2076.0
176.624,2069.0
176.625,2055.0
176.626,2046.0
176.627,2046.0
176.628,2055.0
176.629,2056.0
176.63,2067.0
176.631,2070.0
176.632,2049.0
176.633,2042.0
176.634,2030.0
176.635,2021.0
176.636,2036.0
176.637,2042.0
176.638,2045.0
176.639,2043.0
176.64,2026.0
176.641,2007.0
176.642,2000.0
176.643,2005.0
176.644,2022.0
176.645,2032.0
176.646,2046.0
176.647,2025.0
176.648,2014.0
176.649,2012.0
176.65,2002.0
176.651,2010.0
176.652,2016.0
176.653,2029.0
176.654,2042.0
176.655,2023.0
176.656,2012.0
176.657,1993.0
176.658,1992.0
176.659,2001.0
176.66,2009.0
176.661,2018.0
176.662,2022.0
176.663,2019.0
176.664,2013.0
176.665,2001.0
176.666,2000.0
176.667,2006.0
176.668,2014.0
176.669,2029.0
176.67,2024.0
176.671,2010.0
176.672,2004.0
176.673,2001.0
176.674,2008.0
176.675,2017.0
176.676,2042.0
176.677,2055.0
176.678,2040.0
176.679,2027.0
176.68,2003.0
176.681,2004.0
176.682,2015.0
176.683,2020.0
176.684,2027.0
176.685,2035.0
176.686,2020.0
176.687,2010.0
176.688,2008.0
176.689,2004.0
176.69,2018.0
176.691,2028.0
176.692,2041.0
176.693,2047.0
176.694,2024.0
176.695,2008.0
176.696,1993.0
176.697,2000.0
176.698,2022.0
176.699,2028.0
176.7,2041.0
176.701,2046.0
176.702,2030.0
176.703,2015.0
176.704,1992.0
176.705,1989.0
176.706,2007.0
176.707,2020.0
176.708,2030.0
176.709,2016.0
176.71,1998.0
176.711,1974.0
176.712,1962.0
176.713,1969.0
176.714,1985.0
176.715,2002.0
176.716,2022.0
176.717,2023.0
176.718,1996.0
176.719,1980.0
176.72,1951.0
176.721,1972.0
176.722,1983.0
176.723,1999.0
176.724,2003.0
176.725,1991.0
176.726,1986.0
176.727,1956.0
176.728,1931.0
176.729,1962.0
176.73,1970.0
176.731,1982.0
176.732,2004.0
176.733,1989.0
176.734,1997.0
176.735,1977.0
176.736,1971.0
176.737,1992.0
176.738,2012.0
176.739,2006.0
176.74,2011.0
176.741,1996.0
176.742,1988.0
176.743,1975.0
176.744,1981.0
176.745,2000.0
176.746,2017.0
176.747,2040.0
176.748,2041.0
176.749,2027.0
176.75,2010.0
176.751,1997.0
176.752,1994.0
176.753,2021.0
176.754,2040.0
176.755,2055.0
176.756,2063.0
176.757,2062.0
176.758,2029.0
176.759,2027.0
176.76,2031.0
176.761,2055.0
176.762,2080.0
176.763,2101.0
176.764,2097.0
176.765,2101.0
176.766,2095.0
176.767,2088.0
176.768,2102.0
176.769,2117.0
176.77,2127.0
176.771,2139.0
176.772,2138.0
176.773,2123.0
176.774,2116.0
176.775,2099.0
176.776,2127.0
176.777,2131.0
176.778,2153.0
176.779,2170.0
176.78,2142.0
176.781,2130.0
176.782,2122.0
176.783,2129.0
176.784,2141.0
176.785,2145.0
176.786,2164.0
176.787,2169.0
176.788,2157.0
176.789,2150.0
176.79,2141.0
176.791,2151.0
176.792,2177.0
176.793,2181.0
176.794,2199.0
176.795,2201.0
176.796,2169.0
176.797,2147.0
176.798,2142.0
176.799,2155.0
176.8,2177.0
176.801,2217.0
176.802,2248.0
176.803,2263.0
176.804,2282.0
176.805,2285.0
176.806,2288.0
176.807,2294.0
176.808,2322.0
176.809,2352.0
176.81,2359.0
176.811,2360.0
176.812,2338.0
176.813,2321.0
176.814,2334.0
176.815,2338.0
176.816,2355.0
176.817,2381.0
176.818,2369.0
176.819,2364.0
176.82,2383.0
176.821,2374.0
176.822,2390.0
176.823,2409.0
176.824,2429.0
176.825,2438.0
176.826,2420.0
176.827,2419.0
176.828,2391.0
176.829,2379.0
176.83,2392.0
176.831,2391.0
176.832,2408.0
176.833,2423.0
176.834,2423.0
176.835,2418.0
176.836,2418.0
176.837,2395.0
176.838,2390.0
176.839,2370.0
176.84,2368.0
176.841,2366.0
176.842,2321.0
176.843,2265.0
176.844,2190.0
176.845,2134.0
176.846,2102.0
176.847,2067.0
176.848,2026.0
176.849,2042.0
176.85,2031.0
176.851,2082.0
176.852,2089.0
176.853,2131.0
176.854,2198.0
176.855,2240.0
176.856,2290.0
176.857,2319.0
176.858,2322.0
176.859,2305.0
176.86,2284.0
176.861,2273.0
176.862,2293.0
176.863,2283.0
176.864,2306.0
176.865,2276.0
176.866,2236.0
176.867,2263.0
176.868,2182.0
176.869,2206.0
176.87,2240.0
176.871,2249.0
176.872,2261.0
176.873,2259.0
176.874,2227.0
176.875,2208.0
176.876,2204.0
176.877,2204.0
176.878,2212.0
176.879,2218.0
176.88,2214.0
176.881,2224.0
176.882,2206.0
176.883,2192.0
176.884,2193.0
176.885,2186.0
176.886,2181.0
176.887,2203.0
176.888,2225.0
176.889,2210.0
176.89,2199.0
176.891,2170.0
176.892,2146.0
176.893,2157.0
176.894,2159.0
176.895,2180.0
176.896,2189.0
176.897,2189.0
176.898,2178.0
176.899,2166.0
176.9,2169.0
176.901,2154.0
176.902,2182.0
176.903,2190.0
176.904,2176.0
176.905,2166.0
176.906,2138.0
176.907,2117.0
176.908,2118.0
176.909,2112.0
176.91,2108.0
176.911,2109.0
176.912,2099.0
176.913,2070.0
176.914,2058.0
176.915,2035.0
176.916,2022.0
176.917,2031.0
176.918,2043.0
176.919,2050.0
176.92,2036.0
176.921,2016.0
176.922,2015.0
176.923,1993.0
176.924,1995.0
176.925,2013.0
176.926,2004.0
176.927,2007.0
176.928,1991.0
176.929,1972.0
176.93,1943.0
176.931,1938.0
176.932,1951.0
176.933,1969.0
176.934,1986.0
176.935,1968.0
176.936,1946.0
176.937,1923.0
176.938,1867.0
176.939,1851.0
176.94,1860.0
176.941,1852.0
176.942,1847.0
176.943,1833.0
176.944,1845.0
176.945,1837.0
176.946,1814.0
176.947,1822.0
176.948,1844.0
176.949,1874.0
176.95,1907.0
176.951,1930.0
176.952,1935.0
176.953,1931.0
176.954,1934.0
176.955,1955.0
176.956,1974.0
176.957,1990.0
176.958,2014.0
176.959,1991.0
176.96,2001.0
176.961,1988.0
176.962,1991.0
176.963,2005.0
176.964,2014.0
176.965,2036.0
176.966,2042.0
176.967,2031.0
176.968,2027.0
176.969,2011.0
176.97,2007.0
176.971,2009.0
176.972,2034.0
176.973,2054.0
176.974,2050.0
176.975,2013.0
176.976,1982.0
176.977,1980.0
176.978,1998.0
176.979,2034.0
176.98,2054.0
176.981,2069.0
176.982,2059.0
176.983,2032.0
176.984,2012.0
176.985,1997.0
176.986,2000.0
176.987,2005.0
176.988,2006.0
176.989,1999.0
176.99,1996.0
176.991,1975.0
176.992,1956.0
176.993,1932.0
176.994,1927.0
176.995,1927.0
176.996,1962.0
176.997,1972.0
176.998,1963.0
176.999,1945.0
177.0,1903.0
177.001,1893.0
177.002,1913.0
177.003,1938.0
177.004,1953.0
177.005,1957.0
177.006,1938.0
177.007,1932.0
177.008,1921.0
177.009,1904.0
177.01,1897.0
177.011,1876.0
177.012,1870.0
177.013,1822.0
177.014,1803.0
177.015,1784.0
177.016,1777.0
177.017,1768.0
177.018,1774.0
177.019,1776.0
177.02,1795.0
177.021,1801.0
177.022,1789.0
177.023,1777.0
177.024,1765.0
177.025,1784.0
177.026,1790.0
177.027,1807.0
177.028,1817.0
177.029,1804.0
177.03,1815.0
177.031,1808.0
177.032,1804.0
177.033,1813.0
177.034,1816.0
177.035,1831.0
177.036,1846.0
177.037,1842.0
177.038,1807.0
177.039,1776.0
177.04,1763.0
177.041,1764.0
177.042,1752.0
177.043,1764.0
177.044,1757.0
177.045,1732.0
177.046,1691.0
177.047,1639.0
177.048,1617.0
177.049,1645.0
177.05,1655.0
177.051,1672.0
177.052,1643.0
177.053,1591.0
177.054,1536.0
177.055,1494.0
177.056,1473.0
177.057,1465.0
177.058,1447.0
177.059,1446.0
177.06,1442.0
177.061,1435.0
177.062,1391.0
177.063,1332.0
177.064,1326.0
177.065,1323.0
177.066,1301.0
177.067,1309.0
177.068,1299.0
177.069,1252.0
177.07,1175.0
177.071,1103.0
177.072,1079.0
177.073,1096.0
177.074,1115.0
177.075,1098.0
177.076,1076.0
177.077,1042.0
177.078,1025.0
177.079,1020.0
177.08,1039.0
177.081,1026.0
177.082,1040.0
177.083,1043.0
177.084,995.0
177.085,906.0
177.086,859.0
177.087,805.0
177.088,763.0
177.089,789.0
177.09,781.0
177.091,702.0
177.092,617.0
177.093,477.0
177.094,221.0
177.095,100.0
177.096,60.0
177.097,62.0
177.098,45.0
177.099,41.0
177.1,24.0
177.101,15.0
177.102,7.0
177.103,5.0
177.104,0.0
177.105,1.0
177.106,5.0
177.107,0.0
177.108,5.0
177.109,2.0
177.11,3.0
177.111,5.0
177.112,0.0
177.113,0.0
177.114,5.0
177.115,0.0
177.116,0.0
177.117,0.0
177.118,7.0
177.119,5.0
177.12,0.0
177.121,1.0
177.122,0.0
177.123,0.0
177.124,8.0
177.125,0.0
177.126,2.0
177.127,0.0
177.128,2.0
177.129,3.0
177.13,3.0
177.131,0.0
177.132,0.0
177.133,3.0
177.134,0.0
177.135,5.0
177.136,0.0
177.137,2.0
177.138,3.0
177.139,5.0
177.14,1.0
177.141,3.0
177.142,0.0
177.143,6.0
177.144,5.0
177.145,6.0
177.146,0.0
177.147,0.0
177.148,2.0
177.149,0.0
177.15,0.0
177.151,7.0
177.152,5.0
177.153,0.0
177.154,7.0
177.155,7.0
177.156,8.0
177.157,0.0
177.158,4.0
177.159,0.0
177.16,4.0
177.161,0.0
177.162,4.0
177.163,0.0
177.164,5.0
177.165,2.0
177.166,4.0
177.167,1.0
177.168,4.0
177.169,6.0
177.17,0.0
177.171,1.0
177.172,0.0
177.173,8.0
177.174,0.0
177.175,7.0
177.176,0.0
177.177,0.0
177.178,4.0
177.179,5.0
177.18,0.0
177.181,0.0
177.182,9.0
177.183,0.0
177.184,0.0
177.185,0.0
177.186,0.0
177.187,5.0
177.188,1.0
177.189,2.0
177.19,0.0
177.191,0.0
177.192,4.0
177.193,0.0
177.194,4.0
177.195,3.0
177.196,4.0
177.197,0.0
177.198,0.0
177.199,0.0
177.2,0.0
177.201,0.0
177.202,0.0
177.203,0.0
177.204,3.0
177.205,0.0
177.206,0.0
177.207,2.0
177.208,4.0
177.209,0.0
177.21,1.0
177.211,2.0
177.212,2.0
177.213,0.0
177.214,1.0
177.215,1.0
177.216,5.0
177.217,0.0
177.218,2.0
177.219,0.0
177.22,2.0
177.221,0.0
177.222,0.0
177.223,4.0
177.224,4.0
177.225,0.0
177.226,1.0
177.227,0.0
177.228,0.0
177.229,0.0
177.23,0.0
177.231,5.0
177.232,0.0
177.233,0.0
177.234,2.0
177.235,0.0
177.236,0.0
177.237,12.0
177.238,6.0
177.239,0.0
177.24,1.0
177.241,3.0
177.242,0.0
177.243,4.0
177.244,7.0
177.245,0.0
177.246,6.0
177.247,3.0
177.248,2.0
177.249,0.0
177.25,1.0
177.251,2.0
177.252,7.0
177.253,8.0
177.254,13.0
177.255,6.0
177.256,10.0
177.257,6.0
177.258,7.0
177.259,4.0
177.26,7.0
177.261,8.0
177.262,18.0
177.263,8.0
177.264,13.0
177.265,15.0
177.266,3.0
177.267,16.0
177.268,21.0
177.269,101.0
177.27,423.0
177.271,401.0
177.272,292.0
177.273,78.0
177.274,42.0
177.275,179.0
177.276,433.0
177.277,893.0
177.278,1191.0
177.279,1067.0
177.28,964.0
177.281,657.0
177.282,534.0
177.283,832.0
177.284,1111.0
177.285,1599.0
177.286,1824.0
177.287,1638.0
177.288,1493.0
177.289,1180.0
177.29,1087.0
177.291,1473.0
177.292,1796.0
177.293,2244.0
177.294,2362.0
177.295,2158.0
177.296,1933.0
177.297,1643.0
177.298,1637.0
177.299,1901.0
177.3,2229.0
177.301,2561.0
177.302,2665.0
177.303,2497.0
177.304,2307.0
177.305,2023.0
177.306,2169.0
177.307,2420.0
177.308,2737.0
177.309,3036.0
177.31,2936.0
177.311,2739.0
177.312,2417.0
177.313,2194.0
177.314,2378.0
177.315,2662.0
177.316,3072.0
177.317,3338.0
177.318,3229.0
177.319,3009.0
177.32,2693.0
177.321,2520.0
177.322,2785.0
177.323,3088.0
177.324,3590.0
177.325,3810.0
177.326,3656.0
177.327,3455.0
177.328,3059.0
177.329,2999.0
177.33,3291.0
177.331,3602.0
177.332,4011.0
177.333,4036.0
177.334,3911.0
177.335,3632.0
177.336,3300.0
177.337,3292.0
177.338,3581.0
177.339,3908.0
177.34,4060.0
177.341,4049.0
177.342,3987.0
177.343,3564.0
177.344,3174.0
177.345,3216.0
177.346,3394.0
177.347,3788.0
177.348,4053.0
177.349,3988.0
177.35,3826.0
177.351,3489.0
177.352,3297.0
177.353,3525.0
177.354,3757.0
177.355,4063.0
177.356,4063.0
177.357,4040.0
177.358,3987.0
177.359,3630.0
177.36,3457.0
177.361,3667.0
177.362,3865.0
177.363,4061.0
177.364,4066.0
177.365,4037.0
177.366,3926.0
177.367,3511.0
177.368,3401.0
177.369,3640.0
177.37,3898.0
177.371,4067.0
177.372,4056.0
177.373,4031.0
177.374,3838.0
177.375,3417.0
177.376,3347.0
177.377,3603.0
177.378,3961.0
177.379,4065.0
177.38,4048.0
177.381,4006.0
177.382,3709.0
177.383,3342.0
177.384,3414.0
177.385,3645.0
177.386,3975.0
177.387,4063.0
177.388,4040.0
177.389,3983.0
177.39,3625.0
177.391,3313.0
177.392,3481.0
177.393,3723.0
177.394,4047.0
177.395,4054.0
177.396,4002.0
177.397,3874.0
177.398,3483.0
177.399,3235.0
177.4,3465.0
177.401,3654.0
177.402,4049.0
177.403,4057.0
177.404,3988.0
177.405,3752.0
177.406,3340.0
177.407,3174.0
177.408,3430.0
177.409,3706.0
177.41,4047.0
177.411,4051.0
177.412,3914.0
177.413,3649.0
177.414,3264.0
177.415,3160.0
177.416,3397.0
177.417,3703.0
177.418,4029.0
177.419,4004.0
177.42,3789.0
177.421,3390.0
177.422,3039.0
177.423,3057.0
177.424,3294.0
177.425,3621.0
177.426,3926.0
177.427,3866.0
177.428,3644.0
177.429,3231.0
177.43,2931.0
177.431,3035.0
177.432,3249.0
177.433,3653.0
177.434,3883.0
177.435,3698.0
177.436,3483.0
177.437,3087.0
177.438,2584.0
177.439,2824.0
177.44,3208.0
177.441,3520.0
177.442,3814.0
177.443,3593.0
177.444,3354.0
177.445,2997.0
177.446,2910.0
177.447,3399.0
