581.24,1380,2668,14340,-1218,-30,21
581.25,1448,2620,14224,-1321,-11,-10
581.26,1404,2580,14348,-1345,39,-17
581.27,1412,2480,14196,-1280,25,-22
581.28,1384,2456,14168,-1393,85,-21
581.29,1320,2520,14180,-1460,58,-23
581.3,1324,2280,14260,-1481,39,-14
581.31,1420,2348,14128,-1445,-25,7
581.32,1376,2360,14228,-1416,-10,-28
581.33,1444,2316,14188,-1246,-96,-37
581.34,1484,2232,14320,-1155,50,-25
581.35,1360,2240,14276,-1186,19,16
581.36,1444,2176,14152,-1135,46,-17
581.37,1488,2112,14392,-1075,42,-16
581.38,1364,2172,14232,-1055,-32,12
581.39,1448,2184,14248,-981,-51,89
581.4,1580,2184,14172,-974,-144,123
581.41,1608,2216,14316,-1083,66,-11
581.42,1484,2052,14308,-999,50,42
581.43,1568,1924,14308,-935,31,45
581.44,1492,1984,14260,-973,64,50
581.45,1520,1892,14212,-1026,84,-13
581.46,1476,1984,14264,-866,91,7
581.47,1528,1968,14240,-869,67,-2
581.48,1516,2004,14268,-975,80,8
581.49,1572,2012,14220,-955,94,-24
581.5,1476,1956,14192,-980,-16,-12
581.51,1484,1844,14288,-980,41,-20
581.52,1504,1828,14172,-885,44,-59
581.53,1580,1772,14252,-851,91,8
581.54,1536,1796,14360,-896,67,3
581.55,1644,1864,14248,-820,71,-33
581.56,1624,1840,14452,-822,114,-26
581.57,1588,1812,14360,-884,86,-22
581.58,1544,1720,14160,-858,37,-13
581.59,1484,1696,14080,-879,-59,-9
581.6,1584,1692,14152,-867,-38,-8
581.61,1612,1596,14224,-580,85,25
581.62,1612,1696,14356,-220,249,-1
581.63,1612,1796,14364,-146,270,-7
581.64,1492,1760,14192,-173,183,3
581.65,1572,1704,14312,-159,139,-1
581.66,1680,1636,14068,-98,68,35
581.67,1724,1668,14256,239,237,14
581.68,1480,1776,14660,268,418,25
581.69,1448,1916,14104,-361,339,84
581.7,1592,1652,13696,-799,-101,145
581.71,1800,1504,14748,664,594,-46
581.72,1516,1900,14224,1127,176,-58
581.73,1376,1700,13884,-70,-118,47
581.74,1728,1584,14404,842,402,-31
581.75,1500,1804,14084,696,397,-54
581.76,1436,1736,13692,-351,-120,114
581.77,1656,1644,14044,410,346,26
581.78,1608,1688,14356,1035,665,-60
581.79,1564,1896,14728,1221,649,-87
581.8,1500,1984,14708,1069,526,-93
581.81,1532,2064,14376,817,514,-25
581.82,1360,2028,14412,625,465,46
581.83,1396,1980,14268,513,365,27
581.84,1440,1976,14228,337,224,14
581.85,1468,1932,14016,211,227,36
581.86,1648,1940,14060,137,253,37
581.87,1536,1940,13908,288,276,48
581.88,1492,1856,13972,643,232,19
581.89,1640,1924,14304,1021,270,-10
581.9,1520,1952,14400,1210,339,-23
581.91,1536,1960,14496,1337,457,-33
581.92,1528,2076,14324,1315,489,-35
581.93,1524,2184,14264,1052,490,-37
581.94,1568,2144,14228,950,445,-42
581.95,1588,2120,14284,937,421,-20
581.96,1500,2232,14268,843,395,-16
581.97,1464,2192,14128,787,392,-17
581.98,1392,2272,14176,729,346,-16
581.99,1448,2228,14172,839,441,-33
582.0,1520,2284,14212,1032,469,-30
582.01,1324,2280,14224,1220,515,-63
582.02,1420,2404,14404,1410,589,-84
582.03,1460,2480,14288,1252,416,-37
582.04,1312,2476,14392,1419,733,-61
582.05,1376,2500,14004,943,438,33
582.06,1444,2424,14128,628,358,19
582.07,1452,2348,14276,1121,520,-64
582.08,1336,2468,13932,997,250,-29
582.09,1444,2512,14220,1086,405,-70
582.1,1480,2528,14160,1377,551,-109
582.11,1416,2632,14320,1133,476,-76
582.12,1356,2652,14124,1036,399,-37
582.13,1292,2636,14028,967,341,-27
582.14,1372,2604,14260,1016,398,-78
582.15,1416,2672,14236,1205,402,-56
582.16,1380,2764,14204,1282,543,-74
582.17,1372,2724,14184,1314,507,-92
582.18,1392,2804,14068,1233,554,-69
582.19,1332,2740,14188,1197,580,-88
582.2,1344,2780,14264,1320,594,-109
582.21,1268,2876,14088,1231,595,-96
582.22,1336,2852,14076,1076,503,-69
582.23,1300,2964,14148,1025,532,-78
582.24,1340,2928,14124,1129,592,-111
582.25,1324,2952,14176,1230,568,-103
582.26,1160,2872,14188,1152,516,-74
582.27,1300,3104,14020,1029,515,-39
582.28,1252,3048,14200,994,423,-38
582.29,1312,3188,14104,1032,446,-57
582.3,1180,3168,14040,1022,457,-20
582.31,1308,3180,14108,1004,435,-37
582.32,1216,3180,14144,1000,451,-64
582.33,1260,3228,13956,992,462,-63
582.34,1220,3256,14040,1152,439,-58
582.35,1240,3284,14120,1259,516,-77
582.36,1292,3360,14032,1210,487,-65
582.37,1224,3248,14108,1183,489,-99
582.38,1268,3332,14160,1155,499,-80
582.39,1288,3368,13948,1098,531,-75
582.4,1236,3316,13960,1071,532,-98
582.41,1240,3428,14160,1036,452,-80
582.42,1248,3448,14132,961,502,-110
582.43,1180,3536,14080,985,495,-102
582.44,1144,3568,14180,987,427,-63
582.45,1244,3608,14044,876,438,-100
582.46,1236,3596,14036,900,473,-125
582.47,1144,3644,13984,972,463,-70
582.48,1228,3588,14008,911,461,-127
582.49,1204,3600,14060,888,450,-76
582.5,1096,3588,14028,786,426,-62
582.51,1152,3580,13984,617,323,-50
582.52,1192,3524,13760,582,387,-60
582.53,1348,3540,14124,856,506,-100
582.54,1124,3684,14172,1152,589,-125
582.55,1008,3796,13984,1117,544,-87
582.56,1036,3708,14040,878,529,-72
582.57,1164,3732,13736,724,374,-85
582.58,1180,3744,13948,658,371,-55
582.59,988,3856,14276,722,313,-66
582.6,976,3940,13768,44,317,97
582.61,1324,3696,13788,-313,121,81
582.62,1272,3900,14604,1220,634,-130
582.63,1152,3988,14260,1303,464,-141
582.64,1172,4024,13892,234,61,10
582.65,1116,3976,13956,271,399,-14
582.66,992,3788,13508,-520,-38,161
582.67,1176,3624,13612,-20,133,71
582.68,1168,3784,13804,494,177,-27
582.69,1120,3928,14128,737,180,-36
582.7,960,3904,14172,958,115,-50
582.71,1004,3912,14108,847,206,-34
582.72,1016,3996,14132,784,241,-34
582.73,1056,4108,14036,619,283,-22
582.74,1196,4136,13992,360,369,-38
582.75,1020,4156,13964,274,352,-52
582.76,1108,4048,13732,285,381,-56
582.77,1132,4104,13960,582,332,-39
582.78,1124,4204,13944,229,347,-9
582.79,1084,4136,14048,175,327,-27
582.8,1116,4148,13872,192,380,-17
582.81,988,4140,13896,197,373,-14
582.82,1000,4156,13744,225,313,-20
582.83,1012,4256,14016,487,620,-86
582.84,916,4184,13636,-205,214,32
582.85,1092,4216,13764,-202,319,0
582.86,968,4212,14008,359,382,-94
582.87,1028,4144,14060,322,341,-69
582.88,1020,4260,13844,225,265,-31
582.89,1000,4240,13824,48,264,-8
582.9,1064,4244,13804,45,247,-22
582.91,1028,4292,13816,123,189,10
582.92,1132,4364,14000,75,187,-10
582.93,1012,4304,13896,61,239,-23
582.94,972,4284,13992,66,254,-7
582.95,920,4264,13900,-195,237,4
582.96,940,4260,13824,-249,250,-28
582.97,920,4288,13792,-242,244,-14
582.98,984,4304,13864,-291,266,11
582.99,996,4296,13760,-394,199,4
583.0,1028,4320,13912,-506,202,26
583.01,1040,4268,13836,-613,174,39
583.02,1004,4360,13876,-637,170,47
583.03,1056,4300,13964,-706,143,64
583.04,1148,4288,13884,-745,97,62
583.05,1088,4232,13848,-882,96,72
583.06,928,4248,13984,-996,77,86
583.07,932,4252,13916,-1074,63,106
583.08,936,4200,13984,-1225,61,144
583.09,1060,4108,13856,-1387,-24,139
583.1,996,4064,13916,-1470,-70,156
583.11,1028,4112,13872,-1404,-63,159
583.12,1124,4008,13916,-1426,-71,157
583.13,1096,4056,14000,-1396,-78,167
583.14,1100,3948,14032,-1318,-48,142
583.15,1168,3984,14004,-1349,26,115
583.16,1120,4016,14052,-1416,54,134
583.17,1180,4012,13864,-1514,50,111
583.18,1088,3928,14044,-1665,-34,177
583.19,1128,3820,13920,-1670,-59,171
583.2,1104,3768,14040,-1577,-102,192
583.21,1072,3708,14060,-1558,-87,183
583.22,1096,3780,14116,-1649,-59,168
583.23,1096,3724,14008,-1572,-34,148
583.24,1124,3732,13968,-1548,-6,114
583.25,1116,3656,13900,-1649,-16,143
583.26,1236,3724,14040,-1617,46,125
583.27,1144,3636,14076,-1614,29,114
583.28,1148,3532,13968,-1519,15,116
583.29,1148,3568,13944,-1525,21,140
583.3,1140,3536,14024,-1539,-8,124
583.31,1084,3492,14172,-1416,54,106
583.32,1236,3436,14116,-1421,49,112
583.33,1192,3504,14116,-1453,32,113
583.34,1324,3340,14052,-1476,-59,94
583.35,1124,3428,13984,-1597,-49,130
583.36,1176,3292,13924,-1714,-173,141
583.37,1224,3192,13908,-1708,-184,145
583.38,1260,3172,14068,-1421,-3,86
583.39,1280,3216,14200,-1085,131,28
583.4,1160,3336,14052,-1046,124,20
583.41,1108,3268,14172,-1278,27,23
583.42,1192,3244,14036,-1425,-97,103
583.43,1216,3052,13904,-1362,-141,94
583.44,1240,3072,14208,-1195,-133,111
583.45,1140,3148,14196,-1674,8,188
583.46,1256,3072,13612,-2512,-310,203
583.47,1588,2816,14340,-1902,-175,99
583.48,1204,2976,14464,-383,40,-35
583.49,1040,3020,13900,-1538,-599,159
583.5,1488,2912,14328,-1471,-257,76
583.51,1264,2764,13856,-1331,-74,93
583.52,1236,2712,13528,-1980,-560,230
583.53,1372,2656,14032,-1274,-116,101
583.54,1476,2768,14456,-348,151,-17
583.55,1372,3012,14360,-514,77,19
583.56,1208,2928,14368,-839,52,78
583.57,1244,2852,14220,-806,120,62
583.58,1280,2924,14324,-1027,44,82
583.59,1332,2764,14420,-1237,-72,99
583.6,1300,2756,14224,-1474,-62,129
583.61,1408,2692,14072,-1658,-49,113
583.62,1188,2616,13964,-1625,-17,79
583.63,1292,2504,13872,-1229,-69,88
583.64,1404,2460,14028,-828,0,19
583.65,1372,2484,14284,-573,32,1
583.66,1460,2508,14304,-572,29,-6
583.67,1452,2476,14464,-651,83,21
583.68,1428,2628,14212,-744,91,50
583.69,1412,2600,14076,-977,93,40
583.7,1376,2552,14100,-1080,-9,36
583.71,1412,2420,14132,-1112,-13,5
583.72,1360,2376,14192,-1124,-31,14
583.73,1400,2508,14148,-1117,-24,44
583.74,1400,2424,14028,-1075,22,17
583.75,1324,2372,14212,-970,45,12
583.76,1332,2364,14320,-809,102,29
583.77,1488,2372,14168,-632,151,2
583.78,1312,2452,14312,-540,175,16
583.79,1364,2456,14212,-588,109,-4
583.8,1472,2320,14304,-400,355,-18
583.81,1356,2428,14048,-663,135,47
583.82,1464,2272,14068,-1015,52,42
583.83,1468,2272,14188,-576,133,6
583.84,1340,2252,14204,-505,41,-18
583.85,1540,2332,14204,-402,102,15
583.86,1540,2172,14164,-453,85,5
583.87,1452,2252,14248,-356,87,23
583.88,1460,2304,14216,-464,25,8
583.89,1560,2296,14228,-422,74,-19
583.9,1532,2284,14296,-323,73,2
583.91,1540,2272,14232,-297,179,-30
583.92,1520,2324,14128,-207,221,-30
583.93,1376,2280,14180,-164,264,-50
583.94,1512,2260,14120,-227,227,-35
583.95,1404,2160,14160,-205,222,36
583.96,1436,2180,14188,-36,265,0
583.97,1404,2236,14296,17,245,-45
583.98,1460,2220,14172,-73,207,-19
583.99,1508,2208,14256,-19,207,-28
584.0,1356,2248,14276,102,242,-30
584.01,1468,2168,14404,175,229,-44
584.02,1520,2300,14156,175,309,-28
584.03,1460,2248,14192,69,266,-7
584.04,1464,2348,14180,40,286,5
584.05,1532,2316,14260,77,280,20
584.06,1424,2292,14176,88,326,11
584.07,1344,2284,14072,110,289,0
584.08,1456,2248,14120,210,278,16
584.09,1468,2316,14328,236,311,13
584.1,1500,2312,14192,233,296,-23
584.11,1452,2272,14228,279,328,-9
584.12,1440,2320,14284,334,360,-36
584.13,1512,2356,14224,270,356,-45
584.14,1428,2324,14292,216,335,-6
584.15,1368,2316,14184,191,322,-30
584.16,1400,2444,14220,226,312,-5
584.17,1464,2360,14148,268,312,-21
584.18,1328,2376,14116,291,346,-23
584.19,1316,2420,14296,283,309,-16
584.2,1336,2380,14200,293,302,-24
584.21,1396,2400,14324,305,318,-33
584.22,1368,2332,14212,327,311,-9
584.23,1356,2404,14152,329,304,-26
584.24,1348,2420,14220,373,297,-34
584.25,1356,2520,14232,444,347,-36
584.26,1356,2448,14212,368,358,-19
584.27,1376,2432,14328,251,273,-5
584.28,1384,2472,14092,139,204,20
584.29,1428,2436,14096,229,253,-6
584.3,1444,2508,14356,544,393,-33
584.31,1404,2528,14316,765,448,-27
584.32,1312,2632,14296,767,446,-22
584.33,1340,2572,14092,630,412,-40
584.34,1388,2504,13944,522,298,-7
584.35,1368,2560,14068,703,272,-21
584.36,1408,2640,14368,856,407,-21
584.37,1236,2752,13936,135,474,58
584.38,1388,2624,13628,-432,126,100
584.39,1596,2484,14612,1311,726,-145
584.4,1344,2860,14340,1831,509,-165
584.41,1280,2764,13928,564,33,-4
584.42,1376,2620,14340,1012,582,-112
584.43,1220,2768,13788,538,285,20
584.44,1352,2488,13560,-162,-30,114
584.45,1392,2612,13932,767,410,-29
584.46,1368,2772,14260,1352,528,-106
584.47,1360,2928,14332,1308,433,-90
584.48,1256,2908,14132,1222,479,-86
584.49,1300,2900,14200,1219,581,-59
584.5,1200,3036,14264,1219,487,-42
584.51,1348,3028,14228,1036,389,-29
584.52,1228,3076,14328,858,419,-42
584.53,1336,2884,13916,728,395,18
584.54,1328,2952,13856,752,432,12
584.55,1332,2944,13876,932,380,-21
584.56,1384,2948,13936,1124,384,-39
584.57,1428,3016,14176,1294,428,-49
584.58,1312,3032,14320,1341,429,-101
584.59,1336,3092,14284,1268,458,-76
584.6,1212,3116,14168,1136,530,-120
584.61,1356,3188,14148,1095,507,-86
584.62,1292,3180,14064,985,508,-80
584.63,1200,3184,14092,904,471,-76
584.64,1256,3264,14200,848,439,-30
584.65,1288,3352,14112,791,408,-53
584.66,1332,3220,13892,868,427,-70
584.67,1236,3280,14164,976,446,-71
584.68,1176,3340,14016,1059,441,-96
584.69,1172,3408,14124,1173,496,-102
584.7,1212,3592,14180,1251,506,-139
584.71,1292,3472,14268,1219,538,-92
584.72,1088,3428,14168,1245,726,-111
584.73,1064,3600,13988,710,444,-48
584.74,1156,3564,13784,548,459,-80
584.75,1168,3352,13844,696,306,-80
584.76,1144,3468,14080,1191,366,-166
584.77,1052,3556,14132,1260,309,-92
584.78,1140,3608,13808,1099,331,-75
584.79,1072,3672,14020,1076,323,-89
584.8,1172,3684,14092,1013,322,-80
584.81,1204,3724,14004,909,285,-84
584.82,1132,3700,13900,834,332,-82
584.83,1184,3808,13964,911,344,-107
584.84,1224,3832,14044,909,400,-130
584.85,1172,3876,13924,784,414,-98
584.86,1132,3828,13896,661,424,-84
584.87,1144,3812,14040,739,437,-70
584.88,1220,3868,14012,803,458,-82
584.89,996,3828,13928,715,405,-73
584.9,1088,3844,13836,506,328,-53
584.91,1128,3764,13888,562,393,-48
584.92,1052,3788,13944,618,392,-71
584.93,1008,3944,13812,679,405,-53
584.94,1084,3880,13948,657,423,-87
584.95,1192,3956,13884,564,342,-55
584.96,1084,3984,13936,500,400,-63
584.97,1116,4008,13940,449,404,-38
584.98,1020,4012,14024,481,387,-78
584.99,1104,4056,13948,504,424,-60
585.0,1064,3980,13936,513,375,-36
585.01,1012,4100,13952,459,395,-53
585.02,1040,4004,13800,474,364,-34
585.03,1004,4072,14008,390,485,-68
585.04,1060,4092,13984,503,308,-65
585.05,1060,4060,13848,383,378,-55
585.06,1052,4120,13868,326,370,-64
585.07,1088,4140,13776,314,384,-48
585.08,976,4068,13936,307,382,-37
585.09,1136,4112,13844,339,352,-31
585.1,984,4192,13844,346,352,-74
585.11,940,4200,13920,329,345,-77
585.12,1048,4140,13936,292,355,-61
585.13,1040,4168,13820,287,375,-82
585.14,1032,4168,13872,284,320,-59
585.15,992,4124,13904,263,314,-30
585.16,1064,4236,13684,216,337,-11
585.17,964,4184,13988,231,306,-26
585.18,1008,4260,13956,271,334,-22
585.19,964,4264,13956,260,346,-67
585.2,1032,4228,13900,176,355,-62
585.21,1060,4256,13684,79,286,-4
585.22,884,4132,13844,-46,241,-32
585.23,1064,4200,13820,-92,274,0
585.24,1056,4204,13928,71,352,-15
585.25,1044,4216,13944,340,507,-105
585.26,1004,4244,13840,364,484,-108
585.27,924,4256,13776,225,410,-75
585.28,988,4324,13824,42,351,-57
585.29,912,4304,13856,21,274,-26
585.3,904,4348,14056,28,187,-7
585.31,868,4288,13680,-494,200,110
585.32,1024,4108,13512,-931,-41,186
585.33,1256,4212,14260,286,467,-58
585.34,904,4456,14164,707,452,-153
585.35,968,4404,13952,-130,25,34
585.36,1036,4192,13704,-420,105,53
585.37,824,4144,13532,-684,117,114
585.38,932,4000,13468,-589,-65,120
585.39,1180,4104,13648,-2,135,42
585.4,1056,4212,14020,192,113,-25
585.41,968,4288,14088,267,-11,21
585.42,944,4420,13988,196,60,38
585.43,956,4244,13964,197,69,52
585.44,1064,4372,14052,177,86,33
585.45,1024,4460,13872,27,161,-2
585.46,980,4456,13908,-33,288,-12
585.47,1048,4296,13756,-34,303,-12
585.48,1132,4336,13816,33,320,-7
585.49,964,4124,13744,211,262,3
585.5,1020,4244,13932,239,233,-5
585.51,952,4356,13924,201,238,-10
585.52,888,4256,13964,99,209,-16
585.53,1124,4256,13908,67,240,-13
585.54,992,4288,14008,32,286,-16
585.55,1128,4308,13824,-68,308,4
585.56,980,4328,13932,-130,281,-9
585.57,988,4416,13888,-160,252,14
585.58,988,4340,13896,-205,257,15
585.59,920,4308,13788,-270,239,18
585.6,976,4288,13908,-223,231,16
585.61,1020,4424,13924,-130,261,4
585.62,1004,4292,13924,-78,288,-7
585.63,932,4328,13916,-42,293,-1
585.64,1020,4476,13944,-21,308,-20
585.65,1072,4424,13992,-65,216,-33
585.66,984,4384,14292,118,513,-67
585.67,888,4428,13684,-415,216,35
585.68,1024,4200,13652,-620,130,61
585.69,996,4280,13912,-149,304,-34
585.7,908,4316,13996,4,282,-55
585.71,1012,4332,13816,-110,209,-26
585.72,972,4284,13900,-259,245,8
585.73,1000,4288,13752,-312,204,16
585.74,1028,4356,13776,-171,137,-6
585.75,956,4388,14012,-258,87,28
585.76,1008,4444,13908,-295,148,-2
585.77,1012,4432,13800,-347,140,15
585.78,1036,4416,13944,-409,116,-5
585.79,948,4404,13928,-472,138,33
585.8,1076,4260,13776,-515,146,60
585.81,960,4316,13820,-577,120,64
585.82,888,4264,13968,-547,138,41
585.83,936,4380,14060,-629,100,27
585.84,1004,4184,13848,-925,63,72
585.85,996,4316,14012,-1031,88,93
585.86,1064,4200,13804,-1143,57,95
585.87,928,4196,13996,-1253,-21,105
585.88,1048,4140,13904,-1350,2,139
585.89,1064,4168,13908,-1532,-74,135
585.9,1016,4152,13936,-1642,-29,141
585.91,1124,4092,13844,-1583,-44,141
585.92,1036,4008,13996,-1683,-40,185
585.93,1012,4060,14008,-1768,-23,168
585.94,1020,3988,13908,-1771,-73,174
585.95,1072,3896,13840,-1836,-96,199
585.96,1040,3828,14016,-1748,-80,171
585.97,1092,3832,13988,-1693,-78,174
585.98,1052,3752,14040,-1685,-49,154
585.99,1112,3816,13944,-1694,-4,161
586.0,1120,3712,13952,-1835,-73,159
586.01,1176,3676,13924,-1857,-51,178
586.02,1216,3616,14148,-1767,-36,164
586.03,1220,3644,13892,-1703,-78,195
586.04,1140,3608,13968,-1678,-81,179
586.05,1196,3512,14020,-1646,-81,156
586.06,1084,3576,13960,-1669,-102,153
586.07,1176,3460,14160,-1699,-55,102
586.08,1080,3508,14124,-1660,-77,127
586.09,1092,3436,13968,-1728,-102,141
586.1,1172,3356,13944,-1782,-149,139
586.11,1152,3440,13996,-1717,-95,134
586.12,1168,3352,14148,-1676,-103,154
586.13,1148,3352,14044,-1646,-75,114
586.14,1324,3248,14164,-1571,-74,112
586.15,1228,3216,14180,-1619,-97,123
586.16,1236,3276,13876,-1871,-162,129
586.17,1204,3088,13960,-1972,-211,144
586.18,1256,3160,14076,-1802,-205,144
586.19,1264,2956,14168,-1447,-17,51
586.2,1352,3084,14140,-1164,41,48
586.21,1284,3104,14208,-1268,-1,55
586.22,1216,2932,14100,-1434,-86,94
586.23,1284,2992,14036,-1465,-227,132
586.24,1312,2952,14184,-1299,-169,125
586.25,1240,2928,14380,-1177,-77,110
586.26,1184,3064,13888,-1968,-6,187
586.27,1428,2764,13756,-2556,-462,170
586.28,1576,2676,14632,-1373,102,10
586.29,1376,2868,14272,-462,-170,-10
586.3,1248,2816,13872,-1680,-637,154
586.31,1580,2680,14200,-1370,-73,63
586.32,1212,2640,13720,-1461,-163,133
586.33,1240,2560,13700,-1899,-490,197
586.34,1628,2508,14128,-1072,-22,76
586.35,1432,2684,14580,-349,228,-24
586.36,1444,2792,14556,-526,88,-13
586.37,1420,2804,14568,-912,45,44
586.38,1264,2752,14288,-1099,65,67
586.39,1292,2728,14260,-1204,7,73
586.4,1312,2572,14316,-1308,-125,110
586.41,1384,2536,14220,-1564,-80,77
586.42,1452,2512,14024,-1782,-23,111
586.43,1336,2448,14076,-1919,0,57
586.44,1320,2296,13968,-1743,-113,86
586.45,1420,2216,13960,-1278,-129,63
586.46,1536,2320,14140,-842,-72,35
586.47,1516,2344,14304,-590,2,4
586.48,1444,2228,14340,-634,82,21
586.49,1360,2416,14340,-697,68,11
586.5,1532,2316,14088,-811,102,22
586.51,1480,2296,14056,-991,59,42
586.52,1408,2320,14368,-1066,2,13
586.53,1588,2312,14168,-1028,-10,38
586.54,1400,2268,14224,-1084,-1,57
586.55,1464,2296,14172,-1063,48,-2
586.56,1524,2288,14244,-968,63,-25
586.57,1344,2248,14248,-908,113,2
586.58,1400,2184,14220,-760,122,18
586.59,1496,2212,14268,-544,148,2
586.6,1556,2236,14216,-555,120,8
586.61,1476,2180,14424,-447,245,-4
586.62,1360,2252,14396,-596,209,17
586.63,1472,2216,14080,-979,58,76
586.64,1484,2000,14284,-792,88,45
586.65,1412,2052,14132,-639,-9,36
586.66,1496,1996,14384,-396,41,15
586.67,1564,2088,14312,-304,124,19
586.68,1516,2112,14284,-365,134,-13
586.69,1464,2160,14212,-303,109,25
586.7,1436,2120,14176,-370,2,38
586.71,1652,2036,14224,-371,58,1
586.72,1588,2048,14304,-212,147,-20
586.73,1580,2088,14304,-129,222,-7
586.74,1500,2048,14404,-9,303,-37
586.75,1484,2016,14244,-7,293,-12
586.76,1444,1916,14096,35,285,-3
586.77,1472,2012,14100,140,266,-7
586.78,1424,1956,14164,334,288,-19
586.79,1520,2052,14096,427,292,-28
586.8,1584,2060,14168,411,330,-33
586.81,1520,1992,14168,573,403,-72
586.82,1540,2124,14060,836,451,-62
586.83,1528,2148,14188,877,372,-63
586.84,1516,2188,14224,906,394,-53
586.85,1364,2228,14120,908,393,-5
586.86,1520,2120,14052,965,408,5
586.87,1400,2272,14136,1109,448,5
586.88,1408,2244,14152,1237,495,-42
586.89,1480,2256,14044,1300,528,-33
586.9,1588,2400,14088,1420,543,-35
586.91,1508,2420,14152,1610,559,-79
586.92,1596,2500,14140,1803,621,-89
586.93,1420,2524,14252,1956,717,-120
586.94,1500,2484,14248,1975,721,-85
586.95,1396,2560,14260,1838,664,-105
586.96,1444,2616,14168,1722,642,-82
586.97,1428,2716,14148,1838,660,-115
586.98,1368,2772,14372,1835,597,-112
586.99,1412,2740,14292,1844,650,-179
587.0,1456,2896,14216,1762,712,-156
587.01,1404,2892,14312,1449,599,-120
587.02,1260,2800,13968,1168,512,-68
587.03,1352,2824,13864,1100,464,-75
587.04,1304,2864,14124,1205,438,-114
587.05,1408,2864,14116,1505,577,-142
587.06,1332,3048,14168,1764,660,-159
587.07,1184,2908,14136,1776,599,-122
587.08,1180,3040,14100,1606,609,-101
587.09,1216,3032,13988,1553,556,-68
587.1,1192,3108,14072,1714,503,-106
587.11,1208,3092,14324,1589,542,-67
587.12,1160,3368,13952,691,556,43
587.13,1444,3168,13992,494,359,7
587.14,1412,3136,14424,1954,708,-201
587.15,1100,3396,14300,2120,638,-181
587.16,1272,3460,13988,805,240,-17
587.17,1320,3424,14248,952,786,-119
587.18,1152,3400,13508,273,186,74
587.19,1280,3232,13588,4,162,61
587.2,1356,3212,13796,1032,435,-62
587.21,1216,3452,14284,1571,414,-131
587.22,1148,3484,14336,1626,271,-101
587.23,1200,3572,13972,1524,396,-98
587.24,1020,3644,14244,1572,518,-83
587.25,1100,3676,14332,1494,461,-65
587.26,1248,3884,14152,1206,432,-80
587.27,1172,3876,14100,915,533,-94
587.28,1156,3768,13824,705,488,-65
587.29,1236,3624,13860,721,545,-75
587.3,1104,3680,13740,931,448,-85
587.31,1208,3620,13996,1071,405,-92
587.32,1256,3708,13964,1191,421,-82
587.33,1144,3732,14064,1154,387,-68
587.34,1148,3796,13988,1038,391,-100
587.35,1148,3900,13980,944,411,-103
587.36,1216,3808,14020,882,428,-96
587.37,1260,3992,13984,758,439,-89
587.38,1144,3880,13844,741,406,-94
587.39,1172,3884,14000,649,371,-73
587.4,1196,3908,13928,568,383,-80
587.41,1108,3896,13896,607,373,-45
587.42,1032,3896,13816,652,398,-84
587.43,1124,4000,13860,662,383,-52
587.44,1204,4068,14012,721,424,-82
587.45,1096,4092,13980,772,441,-74
587.46,1092,4072,14004,797,382,-78
587.47,1068,4056,14048,904,708,-101
587.48,936,4156,13684,513,468,-61
587.49,1072,3988,13628,34,337,-6
587.5,1124,4024,13816,362,372,-73
587.51,1092,4068,14000,737,438,-100
587.52,1108,4208,14032,634,357,-71
587.53,1120,4120,13732,388,336,-53
587.54,980,4176,13912,308,316,-23
587.55,1012,4200,13984,400,278,-29
587.56,1008,4172,13944,402,205,-20
587.57,1148,4284,13824,357,261,-17
587.58,1008,4344,13952,369,277,-55
587.59,992,4152,14012,400,315,-48
587.6,1072,4208,13828,379,364,-66
587.61,980,4176,13792,317,341,-58
587.62,1052,4112,13864,210,341,-32
587.63,1136,4156,13868,356,325,-58
587.64,1060,4264,13956,379,317,-59
587.65,1032,4192,13916,284,280,-60
587.66,1008,4228,13900,190,287,-53
587.67,928,4248,13960,245,363,-66
587.68,956,4312,13864,243,363,-53
587.69,956,4320,13960,245,343,-47
587.7,964,4276,13780,204,326,-44
587.71,972,4224,13808,146,305,-48
587.72,1084,4368,13800,142,323,-26
587.73,952,4328,13956,140,309,-34
587.74,1012,4268,13920,143,333,-7
587.75,908,4276,13888,150,315,-35
587.76,1048,4292,13828,142,302,7
587.77,992,4332,13808,125,290,-8
587.78,944,4448,13788,131,291,-33
587.79,1080,4460,13708,159,315,-32
587.8,1068,4440,13928,77,291,-18
587.81,1032,4356,13796,42,281,-33
587.82,960,4328,13828,21,285,-25
587.83,1000,4332,13796,49,285,-17
587.84,1076,4420,13944,54,276,-16
587.85,980,4312,13904,32,269,-16
587.86,936,4356,13776,-19,281,-31
587.87,896,4320,13904,12,271,-28
587.88,1012,4412,13864,-29,288,-48
587.89,1044,4432,13716,-10,247,-40
587.9,916,4352,13872,-68,259,-8
587.91,968,4356,13816,-115,235,-27
587.92,988,4444,13984,-82,258,-4
587.93,1008,4296,13720,-79,280,-37
587.94,1076,4388,13844,-99,254,-49
587.95,876,4340,13908,-164,302,-8
587.96,1024,4412,13744,-262,279,-8
587.97,932,4428,13772,-403,178,18
587.98,1056,4340,13652,-492,112,22
587.99,1004,4328,13868,-412,183,44
588.0,912,4288,13932,-206,327,-38
588.01,920,4496,13844,-171,313,-32
588.02,936,4340,13896,-308,280,-8
588.03,932,4324,13824,-454,230,-6
588.04,992,4332,13736,-560,163,0
588.05,1012,4316,14004,-522,123,22
588.06,916,4348,14056,-666,63,96
588.07,848,4300,13376,-1450,-34,185
588.08,1056,4244,13764,-1370,-34,160
588.09,1196,4192,14456,-35,420,-5
588.1,924,4456,14068,-220,-1,15
588.11,836,4320,13784,-1070,-242,143
588.12,944,4148,13760,-1263,34,139
588.13,800,4104,13436,-1642,-170,245
588.14,944,3808,13564,-1377,-382,237
588.15,1128,3936,13836,-673,-168,139
588.16,1148,4184,14116,-405,-108,53
588.17,1000,4204,14000,-431,-144,61
588.18,1052,4252,14008,-541,-66,68
588.19,1004,4176,14080,-554,12,109
588.2,1056,4224,14052,-702,-92,100
588.21,1080,4240,14040,-935,-50,113
588.22,1084,4224,13860,-1059,73,88
588.23,988,4092,13800,-1103,76,77
588.24,1060,3944,13892,-1129,58,116
588.25,964,3956,13900,-1074,53,103
588.26,1128,4020,13824,-1074,-15,119
588.27,1188,3992,13920,-1083,-22,136
588.28,1192,3928,13916,-1081,-27,135
588.29,1148,3928,13984,-1174,-8,134
588.3,1256,3884,13956,-1301,-4,149
588.31,1028,3868,14068,-1262,90,122
588.32,1176,3904,14012,-1284,17,152
588.33,1140,3920,14000,-1399,43,162
588.34,1172,3776,14020,-1476,-14,122
588.35,1152,3816,13952,-1596,-70,184
588.36,1152,3680,13924,-1649,-66,174
588.37,1212,3740,13952,-1573,-72,173
588.38,1208,3736,14004,-1501,-24,162
588.39,1120,3716,14088,-1289,18,156
588.4,1128,3756,14132,-1145,95,92
588.41,1148,3736,13996,-1142,166,78
588.42,1196,3684,14104,-1099,233,19
588.43,1060,3616,14120,-1279,219,113
588.44,1216,3592,13952,-1772,-55,198
588.45,1208,3336,13864,-2013,-130,168
588.46,1256,3364,13948,-1296,-34,79
588.47,1172,3348,14152,-991,-114,67
588.48,1116,3460,14100,-1157,-44,89
588.49,1248,3388,14120,-1367,-53,130
588.5,1136,3460,14028,-1435,-104,139
588.51,1204,3460,14228,-1391,-131,125
588.52,1224,3392,14156,-1502,-200,150
588.53,1264,3424,14032,-1596,-161,165
588.54,1356,3320,14188,-1540,-61,106
588.55,1204,3324,14112,-1412,-74,101
588.56,1248,3324,14024,-1565,-1,80
588.57,1312,3200,14032,-1675,-20,91
588.58,1188,3048,14128,-1664,-84,110
588.59,1312,2968,14016,-1650,-122,100
588.6,1308,3068,14188,-1564,-62,87
588.61,1324,3000,14060,-1507,-142,26
588.62,1200,2932,14040,-1517,-167,87
588.63,1256,2980,14152,-1453,-152,95
588.64,1260,2944,14192,-1291,-109,58
588.65,1336,2844,14076,-1272,-113,61
588.66,1308,2920,14168,-1307,-103,70
588.67,1220,2848,14140,-1315,-77,96
588.68,1424,2928,14140,-1389,-89,88
588.69,1408,2784,14160,-1424,-46,93
588.7,1396,2804,14152,-1406,-60,86
588.71,1372,2784,14192,-1269,-38,99
588.72,1240,2832,14124,-1188,-28,60
588.73,1320,2824,14128,-1208,-36,39
588.74,1320,2780,14116,-1233,15,22
588.75,1320,2740,14204,-1250,1,34
588.76,1340,2656,14308,-1257,-59,64
588.77,1360,2676,14144,-1232,-35,53
588.78,1448,2608,14036,-1230,-28,61
588.79,1396,2548,14148,-1278,-66,49
588.8,1464,2532,14104,-1306,-66,54
588.81,1364,2500,14160,-1174,-39,12
588.82,1392,2516,14136,-1133,-13,27
588.83,1408,2488,14256,-1167,27,1
588.84,1400,2460,14304,-1050,-2,-7
588.85,1440,2440,14212,-1043,5,6
588.86,1428,2368,14196,-1061,15,29
588.87,1412,2384,14240,-1072,25,4
588.88,1376,2352,14196,-1026,-8,16
588.89,1444,2324,14328,-994,41,8
588.9,1404,2348,14168,-948,56,-17
588.91,1400,2284,14188,-962,4,10
588.92,1428,2304,14204,-1128,22,35
588.93,1516,2296,14152,-1250,-135,39
588.94,1600,2288,14056,-1206,-126,61
588.95,1456,2220,14308,-913,30,4
588.96,1524,2248,14420,-613,199,-26
588.97,1636,2236,14316,-624,158,-4
588.98,1464,2228,14236,-712,106,38
588.99,1468,2168,14132,-752,53,32
589.0,1436,2116,14052,-687,-70,17
589.01,1544,2200,14356,-574,125,25
589.02,1512,2232,14324,-908,220,74
589.03,1456,2320,13524,-1933,-224,150
589.04,1776,1924,14084,-1417,-52,62
589.05,1656,2128,14780,319,208,-135
589.06,1300,2168,13988,-666,-375,60
589.07,1700,1920,14336,-829,-157,79
589.08,1412,2084,14180,-286,360,-14
589.09,1356,2044,13764,-1322,-447,148
589.1,1676,1884,14044,-779,-2,89
589.11,1628,2108,14560,61,375,-45
589.12,1604,2108,14724,72,354,-68
589.13,1464,2244,14392,-63,200,-25
589.14,1412,2176,14348,-243,259,0
589.15,1480,2188,14276,-305,292,41
589.16,1524,2084,14108,-383,122,38
589.17,1532,2040,14360,-546,36,64
589.18,1596,2072,14280,-675,62,89
589.19,1420,1920,13904,-712,58,74
589.2,1524,1872,13792,-464,70,80
589.21,1500,1840,14012,98,162,44
589.22,1616,1832,14148,475,263,7
589.23,1588,1932,14392,693,286,-33
589.24,1596,2020,14416,806,352,-55
589.25,1616,2032,14420,712,416,-53
589.26,1584,1992,14412,599,466,-29
589.27,1548,2120,14220,453,429,-33
589.28,1488,2060,14240,456,451,-55
589.29,1572,2080,13984,406,331,-16
589.3,1640,2124,14016,409,325,-24
589.31,1584,2212,14288,557,350,-10
589.32,1600,2220,14088,673,371,15
589.33,1544,2184,14316,846,406,-33
589.34,1480,2148,14188,1018,418,-21
589.35,1560,2268,14216,1162,465,-41
589.36,1520,2272,14352,1136,407,-64
589.37,1588,2340,14328,1308,648,-72
589.38,1312,2432,14116,933,395,-12
589.39,1584,2244,13872,731,385,21
589.4,1524,2288,14236,1248,488,-67
589.41,1544,2348,14076,1241,364,-80
589.42,1548,2396,14076,1223,406,-82
589.43,1492,2448,14224,1397,519,-60
589.44,1504,2504,14244,1474,498,-90
589.45,1532,2624,14224,1454,468,-63
589.46,1496,2528,14100,1390,434,-66
589.47,1500,2556,14204,1345,450,-89
589.48,1528,2620,14300,1520,505,-82
589.49,1376,2688,14208,1631,520,-92
589.5,1472,2660,14224,1536,620,-87
589.51,1352,2756,14260,1434,629,-115
589.52,1364,2764,14108,1291,669,-109
589.53,1332,2704,14220,1157,573,-101
589.54,1400,2704,14136,1109,585,-76
589.55,1356,2844,14256,923,530,-59
589.56,1268,2864,14084,750,474,-66
589.57,1300,2768,14124,706,443,-86
589.58,1368,2848,14124,734,435,-66
589.59,1300,2880,14048,794,415,-95
589.6,1380,2968,14132,806,371,-61
589.61,1328,3048,14100,748,428,-64
589.62,1328,2904,14180,788,456,-58
589.63,1368,3004,14144,836,498,-56
589.64,1324,2936,14036,868,462,-60
589.65,1432,3056,14032,973,516,-37
589.66,1204,3044,14036,1064,491,-51
589.67,1292,3068,13988,1097,535,-77
589.68,1280,3000,13980,1177,508,-67
589.69,1232,3176,14128,1238,547,-85
589.7,1224,3132,14172,1192,550,-105
589.71,1308,3284,14068,1162,554,-89
589.72,1188,3264,14092,1062,508,-81
589.73,1296,3244,14376,1023,528,-64
589.74,1344,3288,14116,1007,509,-70
589.75,1224,3352,13996,1027,527,-109
589.76,1172,3424,14224,1016,521,-48
589.77,1324,3352,14096,922,493,-73
589.78,1336,3336,13988,826,426,-63
589.79,1180,3388,13960,717,352,-25
589.8,1172,3344,13908,660,365,-36
589.81,1212,3420,14252,1026,466,-78
589.82,1256,3588,14188,1167,612,-113
589.83,1232,3464,14076,1159,584,-130
589.84,1200,3528,14000,1016,545,-103
589.85,1180,3484,13916,805,432,-93
589.86,1188,3548,14024,929,403,-47
589.87,1160,3564,14116,1060,349,-62
589.88,1008,3628,14040,426,409,76
589.89,1164,3572,13504,-385,22,103
589.9,1412,3424,14396,679,465,-75
589.91,1272,3752,14392,1756,569,-200
589.92,1216,3784,14044,782,139,-4
589.93,1248,3660,14032,385,282,-27
589.94,1128,3732,13740,219,409,18
589.95,1116,3628,13384,-261,-7,125
589.96,1276,3436,13512,320,219,43
589.97,1236,3680,13916,996,271,-63
589.98,1156,3784,14156,1278,203,-98
589.99,1160,3896,14240,1321,218,-104
590.0,1072,3868,14076,1255,342,-84
590.01,1024,3920,14060,1183,364,-72
590.02,1080,4084,14064,1021,306,-44
590.03,1212,4036,14188,732,395,-60
590.04,1096,4044,14132,569,429,-48
590.05,1012,4048,13700,445,422,-71
590.06,1136,3948,13860,508,423,-64
590.07,1204,3904,13816,720,402,-79
590.08,1236,3900,13812,779,311,-51
590.09,1196,3960,13924,794,320,-71
590.1,1152,3944,14004,741,356,-79
590.11,1140,3988,13972,667,314,-71
590.12,1076,3984,14032,530,346,-72
590.13,1036,4044,13884,490,351,-64
590.14,1092,4040,13932,425,401,-41
590.15,1140,4064,13908,383,290,-44
590.16,1108,4048,13984,319,304,-56
590.17,1120,4132,13900,300,285,-8
590.18,1112,4112,13852,323,307,-50
590.19,1000,4312,13776,380,426,-5
590.2,1052,4260,13604,-113,243,24
590.21,1124,4140,13864,279,389,-82
590.22,1068,4204,13924,517,337,-73
590.23,1080,4188,13716,331,290,-42
590.24,1076,4260,13660,167,319,1
590.25,1052,4200,13812,136,243,-1
590.26,1024,4244,13924,257,177,-15
590.27,1152,4340,14028,252,148,-9
590.28,1144,4252,13976,206,213,-36
590.29,1104,4360,13848,228,276,-52
590.3,1060,4364,14000,270,279,-52
590.31,1076,4284,14064,170,286,-57
590.32,1072,4352,13848,123,282,-14
590.33,1056,4336,13908,157,243,-26
590.34,1056,4224,13888,240,286,-56
590.35,1104,4288,13840,214,241,-26
590.36,1096,4296,13844,54,223,-12
590.37,1052,4264,13920,27,269,-20
590.38,1032,4388,13832,69,293,-20
590.39,1000,4332,13772,61,308,-26
590.4,1012,4248,13764,30,281,-20
590.41,1048,4356,13880,-5,307,-37
590.42,936,4388,13860,-58,273,-3
590.43,1052,4432,13816,-70,284,25
590.44,1152,4292,13904,-26,280,15
590.45,944,4436,13892,-10,253,-18
590.46,988,4364,13608,-27,252,-21
590.47,988,4460,13780,-96,262,-7
590.48,992,4420,13816,-36,264,-20
590.49,1032,4468,13884,-86,293,6
590.5,856,4360,13844,-136,255,-20
590.51,976,4312,13756,-160,253,19
590.52,1024,4368,13712,-189,254,-13
590.53,996,4448,13672,-202,217,-9
590.54,1028,4292,13896,-201,220,-6
590.55,988,4372,13800,-207,246,-10
590.56,1072,4452,13708,-213,287,12
590.57,1000,4380,14044,-188,244,0
590.58,1040,4460,13884,-202,243,-5
590.59,1000,4320,13960,-324,214,28
590.6,1080,4368,13868,-431,132,31
590.61,1072,4324,13764,-613,105,30
590.62,1008,4260,13640,-696,100,40
590.63,1016,4256,13956,-625,172,21
590.64,1004,4296,14072,-455,283,-19
590.65,1096,4340,13984,-541,245,1
590.66,1008,4364,14008,-746,175,1
590.67,920,4308,13828,-914,121,31
590.68,1064,4264,13868,-1036,35,59
590.69,1092,4256,14056,-975,-18,95
590.7,972,4256,13960,-1213,-42,183
590.71,1000,4260,13304,-2089,-219,272
590.72,1200,4116,13960,-1793,-1,189
590.73,1184,4152,13824,-1866,-228,186
590.74,1028,4004,13636,-2118,-43,260
590.75,1208,3840,14040,-1206,-252,182
590.76,1140,3976,14400,-1065,-271,146
590.77,1152,4012,14136,-1242,-286,167
590.78,1092,3900,14256,-1297,-105,166
590.79,1032,3984,14184,-1444,-147,209
590.8,1188,3896,14060,-1678,-157,202
590.81,1128,3936,14136,-1879,-39,225
590.82,1100,3800,14016,-2035,-13,197
590.83,1128,3632,13812,-2003,-76,212
590.84,1248,3560,13676,-1827,-122,197
590.85,1160,3416,13804,-1677,-211,165
590.86,1404,2676,14204,-1314,5,49
590.87,1368,2724,13988,-1323,-89,36
590.88,1388,2760,14104,-1252,-22,29
590.89,1372,2664,14132,-1218,-79,46
590.9,1404,2748,14124,-1216,-79,54
590.91,1392,2664,14092,-1118,-44,63
590.92,1508,2508,14108,-1018,-28,26
590.93,1396,2596,14112,-916,-64,45
590.94,1428,2712,14124,-1010,37,33
590.95,1388,2576,14088,-1051,-14,79
590.96,1424,2572,14240,-1117,18,44
590.97,1552,2512,14244,-1031,-43,62
590.98,1464,2652,14168,-1048,-4,49
590.99,1492,2576,14176,-1065,12,41
591.0,1500,2552,14048,-1034,50,30
591.01,1420,2528,14116,-1006,5,46
591.02,1532,2448,14196,-1013,25,39
591.03,1520,2428,14280,-927,11,38
591.04,1604,2408,14044,-920,47,59
591.05,1612,2440,14128,-952,53,8
591.06,1536,2480,14224,-914,42,15
591.07,1484,2380,14296,-906,25,35
591.08,1508,2272,14336,-920,75,-23
591.09,1376,2352,14212,-796,65,8
591.1,1580,2404,14084,-747,26,6
591.11,1524,2288,14224,-856,87,-5
591.12,1464,2196,14260,-790,77,14
591.13,1528,2288,14012,-800,50,-2
591.14,1576,2228,14124,-752,69,14
591.15,1548,2232,14236,-690,73,25
591.16,1424,2196,14304,-657,64,2
591.17,1612,2248,14120,-883,-11,38
591.18,1512,2064,14096,-890,-40,57
591.19,1612,2052,14272,-555,133,-4
591.2,1556,2092,14332,-353,191,-10
591.21,1572,2188,14308,-290,216,-34
591.22,1520,2172,14296,-301,116,-9
591.23,1496,2116,14044,-316,68,48
591.24,1608,2056,14096,-230,11,55
591.25,1580,2180,14500,54,211,24
591.26,1540,2304,14372,-133,338,45
591.27,1464,2196,13612,-1102,29,129
591.28,1732,1844,14288,-535,256,77
591.29,1748,2112,14632,911,407,-135
591.3,1524,2196,13812,-103,-203,33
591.31,1824,1956,14328,276,274,-13
591.32,1564,2292,14020,246,301,13
591.33,1464,2020,13720,-488,-219,158
591.34,1660,2036,14152,190,275,46
591.35,1596,2228,14360,700,531,-61
591.36,1480,2296,14548,902,478,-104
591.37,1548,2416,14384,732,369,-39
591.38,1572,2340,14132,427,462,-8
591.39,1540,2344,14216,399,453,30
591.4,1496,2340,14392,334,254,18
591.41,1616,2364,14364,195,194,41
591.42,1540,2300,14208,81,193,46
591.43,1484,2200,13880,113,239,39
591.44,1524,2168,13992,287,293,33
591.45,1540,2160,14088,663,276,-15
591.46,1664,2216,14160,1031,288,-23
591.47,1728,2236,14180,1246,304,-44
591.48,1692,2296,14196,1370,352,-69
591.49,1648,2316,14184,1336,403,-70
591.5,1596,2324,14168,1372,475,-78
591.51,1616,2496,14120,1359,485,-56
591.52,1612,2468,14192,1443,509,-70
591.53,1496,2452,14132,1450,489,-25
591.54,1540,2584,13948,1394,510,-74
591.55,1488,2692,13960,1436,490,-38
591.56,1572,2704,14196,1615,520,-74
591.57,1552,2756,14064,1811,590,-96
591.58,1416,2828,14132,2040,610,-120
591.59,1416,2952,14148,2065,586,-96
591.6,1384,2940,14320,1990,812,-157
591.61,1352,3020,14056,1693,688,-81
591.62,1312,2888,14000,1293,545,-37
591.63,1436,2968,14016,1348,665,-110
591.64,1356,2980,14084,1379,477,-125
591.65,1472,3068,14172,1565,581,-125
591.66,1420,3088,14092,1543,592,-170
591.67,1548,3076,13880,1386,544,-91
591.68,1408,3088,14076,1482,497,-115
591.69,1332,3180,14140,1439,386,-108
591.7,1480,3248,14232,1352,406,-93
591.71,1420,3152,14124,1381,474,-109
591.72,1312,3212,14132,1537,503,-126
591.73,1368,3384,14096,1512,543,-157
591.74,1348,3292,13948,1391,553,-178
591.75,1420,3336,14008,1282,575,-136
591.76,1308,3308,14008,1293,576,-140
591.77,1388,3404,14116,1341,632,-151
591.78,1304,3452,14076,1134,515,-103
591.79,1356,3488,14028,1062,510,-105
591.8,1252,3536,14036,1049,489,-115
591.81,1184,3536,13960,1099,560,-128
591.82,1248,3540,14216,1061,538,-125
591.83,1236,3608,14076,974,496,-94
591.84,1236,3660,14088,850,482,-65
591.85,1268,3704,14108,808,423,-52
591.86,1196,3732,14112,759,426,-87
591.87,1400,3712,14032,708,426,-54
591.88,1212,3724,14140,748,382,-72
591.89,1272,3756,14104,715,391,-60
591.9,1280,3764,14060,692,405,-82
591.91,1224,3828,13928,743,401,-101
591.92,1296,3844,14092,750,423,-78
591.93,1204,3864,13980,699,390,-93
591.94,1276,3768,13984,636,383,-73
591.95,1132,3864,13948,583,386,-58
591.96,1204,3864,13952,619,350,-75
591.97,1224,3872,13868,664,395,-89
591.98,1212,3912,14040,651,424,-94
591.99,1128,3908,13804,624,399,-108
592.0,1276,3976,14036,706,390,-89
592.01,1244,4020,13952,681,415,-105
592.02,1236,4004,13880,635,393,-67
592.03,1156,3956,13932,413,306,-45
592.04,1216,3980,13780,324,256,-18
592.05,1208,3876,13944,449,289,-54
592.06,996,3980,14028,702,485,-86
592.07,1168,4052,14064,853,529,-124
592.08,1148,4148,13872,739,489,-92
592.09,1204,4144,13780,497,419,-72
592.1,1148,4052,13940,424,366,-97
592.11,1208,4036,13888,530,335,-47
592.12,1160,4200,14020,363,255,19
592.13,928,4208,13360,-483,116,113
592.14,1212,4108,13984,-85,324,-12
592.15,1364,4252,14516,1056,651,-174
592.16,1024,4324,14052,702,218,-76
592.17,1280,4164,13840,20,119,32
592.18,1028,4080,13800,-18,322,21
592.19,948,4028,13480,-705,-46,178
592.2,1160,3808,13432,-283,58,114
592.21,1260,4072,13588,170,187,30
592.22,1148,4184,13968,422,69,-1
592.23,1072,4260,14084,594,-73,-4
592.24,1140,4236,13988,450,13,-7
592.25,1024,4236,14072,386,172,-14
592.26,1028,4300,13944,344,127,2
592.27,1192,4312,14000,225,273,-58
592.28,1068,4312,13844,182,358,-68
592.29,1116,4336,13824,116,383,-68
592.3,1128,4268,13836,146,352,-51
592.31,1124,4208,13812,316,303,-46
592.32,1220,4180,13856,374,291,-39
592.33,1100,4176,13976,395,256,-52
592.34,1140,4260,13872,324,241,-38
592.35,1084,4264,14028,232,257,-33
592.36,1212,4460,13976,166,282,-23
592.37,1108,4212,13872,105,276,-7
592.38,1140,4288,13884,93,369,-24
592.39,1128,4376,13816,63,297,-23
592.4,1160,4248,13764,18,325,-29
592.41,1160,4292,13852,-11,306,-18
592.42,1116,4416,13784,12,297,-20
592.43,1028,4284,13900,84,323,-32
592.44,1136,4276,13880,123,352,-46
592.45,1152,4372,13796,217,330,-36
592.46,1236,4476,13688,202,301,-48
592.47,1164,4456,14164,260,359,-59
592.48,1088,4436,13984,196,508,-15
592.49,1036,4400,13504,-393,185,42
592.5,1224,4268,13784,-69,390,-24
592.51,996,4356,13984,191,346,-52
592.52,1084,4340,13976,75,269,-75
592.53,996,4344,13816,-55,234,-17
592.54,1040,4468,13696,-206,201,21
592.55,1028,4356,13908,-138,177,13
592.56,1140,4368,13908,-112,120,18
592.57,1100,4444,13992,-220,193,-10
592.58,1028,4420,13944,-236,226,-1
592.59,992,4428,13876,-326,235,-25
592.6,1216,4524,13832,-487,164,-2
592.61,1028,4380,13996,-572,155,23
592.62,1208,4456,13816,-694,141,32
592.63,1096,4352,13960,-644,116,20
592.64,1252,4316,13936,-688,103,3
592.65,1148,4408,13964,-803,104,65
592.66,1104,4332,13900,-994,26,86
592.67,1172,4244,13780,-1052,94,111
592.68,1056,4196,13752,-1072,43,128
592.69,1052,4212,13832,-957,68,78
592.7,1112,4300,13984,-975,109,95
592.71,1236,4216,13840,-1098,115,114
592.72,1188,4268,13796,-1205,36,115
592.73,1128,4300,13880,-1320,33,134
592.74,1156,4200,13884,-1452,52,161
592.75,1152,4132,13916,-1447,25,147
592.76,1168,4012,13900,-1501,-59,150
592.77,1100,4044,13968,-1462,-35,153
592.78,1220,4064,13960,-1480,-22,168
592.79,1116,4000,14032,-1489,69,162
592.8,1028,3920,13972,-1485,-87,142
592.81,1188,3884,13932,-1528,-53,166
592.82,1216,3876,13884,-1549,-14,178
592.83,1232,3864,13932,-1479,-62,166
592.84,1284,3924,13904,-1502,-52,161
592.85,1264,3768,13924,-1502,-23,137
592.86,1264,3832,14028,-1443,-47,131
592.87,1280,3800,13980,-1483,-50,130
592.88,1220,3728,13980,-1590,-11,145
592.89,1176,3704,14008,-1528,7,130
592.9,1240,3684,13996,-1586,-51,143
592.91,1304,3684,13920,-1496,-30,117
592.92,1256,3624,14076,-1446,3,85
592.93,1172,3524,13948,-1554,-37,129
592.94,1272,3560,13900,-1709,-115,155
592.95,1292,3532,13832,-1819,-215,163
592.96,1268,3384,13948,-1769,-237,187
592.97,1344,3380,14028,-1455,-124,155
592.98,1440,3396,14140,-1172,-18,96
592.99,1480,3448,14184,-1097,65,71
593.0,1236,3464,14160,-1235,9,99
593.01,1192,3316,13972,-1485,-125,150
593.02,1216,3232,13836,-1341,-151,129
593.03,1388,3360,14272,-1150,-100,140
593.04,1356,3304,14040,-1696,56,228
593.05,1456,3224,13700,-2429,-346,268
593.06,1600,3036,14600,-1237,150,41
593.07,1324,3208,14212,-730,-237,113
593.08,1364,3100,13680,-1872,-794,215
593.09,1500,2932,14212,-1196,33,81
593.1,1248,3100,13760,-1480,-295,202
593.11,1380,2908,13760,-2056,-540,243
593.12,1532,2900,14192,-1185,-11,95
593.13,1552,3016,14416,-648,29,44
593.14,1448,3092,14428,-805,-87,50
593.15,1452,2984,14264,-1194,-109,119
593.16,1280,3052,14320,-1303,-47,114
593.17,1364,2976,14356,-1470,-70,140
593.18,1404,2984,14248,-1620,-136,153
593.19,1472,2792,14228,-1691,-120,134
593.2,1396,2816,13996,-1796,-112,124
593.21,1548,2708,13764,-1767,-105,101
593.22,1388,2604,13812,-1593,-125,89
593.23,1432,2580,13996,-1123,-195,97
593.24,1672,2580,14180,-887,-89,73
593.25,1552,2620,14396,-767,-80,49
593.26,1560,2640,14360,-770,-2,40
593.27,1536,2596,14340,-764,40,40
593.28,1520,2676,14280,-930,61,20
593.29,1488,2636,14300,-1035,73,43
593.3,1548,2544,14088,-1148,30,42
593.31,1568,2520,14180,-1132,-27,88
593.32,1552,2560,14160,-1147,-51,53
593.33,1576,2500,14284,-1031,-13,52
593.34,1540,2496,14076,-1008,72,32
593.35,1608,2556,14096,-860,48,20
593.36,1540,2640,14236,-746,118,6
593.37,1556,2536,14276,-741,139,1
593.38,1588,2404,14384,-685,208,4
593.39,1484,2460,14260,-563,308,-7
593.4,1624,2536,14032,-911,52,66
593.41,1616,2432,14128,-959,126,34
593.42,1488,2356,14272,-688,-8,22
593.43,1604,2312,14304,-556,45,-5
593.44,1668,2316,14168,-551,-27,27
593.45,1460,2432,14144,-683,1,39
593.46,1652,2404,14176,-696,16,24
593.47,1640,2468,14128,-730,3,18
593.48,1552,2440,14340,-794,-9,6
593.49,1704,2308,14128,-881,53,7
593.5,1532,2316,14104,-819,86,-26
593.51,1624,2324,14152,-640,119,-12
593.52,1492,2272,14196,-601,143,-29
593.53,1568,2264,14152,-590,111,-11
593.54,1620,2076,14328,-577,130,6
593.55,1688,2248,14280,-399,141,-2
593.56,1712,2188,14180,-396,99,18
593.57,1636,2232,14144,-399,92,-4
593.58,1660,2192,14148,-279,152,0
593.59,1640,2196,14328,-165,189,-2
593.6,1676,2164,14144,-114,160,15
593.61,1644,2132,14140,-53,166,31
593.62,1648,2224,14176,-27,225,19
593.63,1664,2268,14044,1,202,49
593.64,1556,2184,13928,41,257,34
593.65,1680,2272,14052,139,310,18
593.66,1608,2212,14132,207,301,9
593.67,1628,2240,14084,258,293,4
593.68,1596,2272,14212,364,339,20
593.69,1672,2216,14212,368,329,-13
593.7,1612,2324,14080,433,341,-38
593.71,1616,2256,14496,552,409,-35
593.72,1576,2384,14116,509,403,-45
593.73,1572,2316,14136,479,337,-30
593.74,1600,2332,14244,492,329,-47
593.75,1584,2352,14256,517,357,-70
593.76,1632,2352,14204,597,369,-49
593.77,1604,2284,14180,619,368,-44
593.78,1584,2404,14108,680,355,-38
593.79,1588,2408,14136,719,371,-51
593.8,1528,2460,13976,750,369,-67
593.81,1604,2424,14328,847,430,-83
593.82,1680,2532,14196,822,429,-51
593.83,1600,2652,14264,711,402,-41
593.84,1592,2584,14208,516,323,-43
593.85,1520,2460,14024,466,181,-35
593.86,1616,2440,14048,598,271,-48
593.87,1580,2600,14240,1044,464,-68
593.88,1604,2580,14404,1291,570,-102
593.89,1556,2644,14364,1304,598,-107
593.9,1508,2680,14268,1099,474,-73
593.91,1484,2680,14004,1101,346,-38
593.92,1488,2588,13896,1268,300,-25
593.93,1580,2800,14388,1451,410,-51
593.94,1388,2908,13972,674,467,42
593.95,1604,2728,13936,266,223,61
593.96,1752,2764,14508,1736,758,-156
593.97,1444,3160,14228,2213,545,-155
593.98,1540,3016,13860,866,0,19
593.99,1676,2864,14272,1274,747,-147
594.0,1332,2932,13728,922,339,-17
594.01,1584,2752,13728,332,120,56
594.02,1600,2852,14068,1274,479,-62
594.03,1460,3104,14544,1801,418,-106
594.04,1496,3172,14512,1689,290,-104
594.05,1308,3224,14168,1385,341,-60
594.06,1364,3220,14296,1306,448,-27
594.07,1472,3244,14268,1255,379,-25
594.08,1464,3348,14160,1058,525,-73
594.09,1376,3312,14040,657,582,-68
594.1,1452,3200,13912,680,557,-69
594.11,1384,3220,13848,817,441,-53
594.12,1440,3208,14032,890,419,-66
594.13,1472,3144,13956,1132,378,-70
594.14,1444,3148,14012,1230,379,-102
594.15,1532,3304,14108,1130,354,-65
594.16,1412,3356,14116,1124,415,-106
594.17,1584,3460,14124,1121,460,-97
594.18,1344,3524,14112,955,486,-105
594.19,1448,3508,14060,914,440,-89
594.2,1408,3452,14008,838,436,-64
594.21,1500,3492,13928,744,433,-77
594.22,1428,3484,14024,728,451,-65
594.23,1364,3544,13860,810,405,-68
594.24,1508,3724,14072,995,459,-93
594.25,1332,3644,14004,1110,421,-113
594.26,1456,3772,13916,1073,384,-123
594.27,1324,3780,14244,1225,728,-145
594.28,1196,3772,13812,945,538,-74
594.29,1388,3736,13824,611,444,-76
594.3,1380,3704,13776,551,421,-70
594.31,1332,3692,13988,943,401,-99
594.32,1284,3768,14004,1049,359,-116
594.33,1304,3820,13892,810,255,-54
594.34,1424,3764,13992,668,313,-87
594.35,1336,3876,14016,602,246,-67
594.36,1372,3828,13904,694,232,-73
594.37,1424,3952,14112,625,255,-71
594.38,1344,3896,13868,601,298,-95
594.39,1292,3828,14048,692,357,-105
594.4,1372,3952,13932,744,317,-78
594.41,1376,4052,13968,617,336,-84
594.42,1344,3960,13956,546,341,-60
594.43,1308,4016,13888,555,288,-52
594.44,1288,3920,13924,568,326,-38
594.45,1348,4012,13916,505,307,-63
594.46,1284,4032,13816,459,313,-46
594.47,1308,3992,13716,443,315,-45
594.48,1368,4036,13852,461,357,-45
594.49,1268,4100,13880,494,393,-93
594.5,1244,4012,13864,462,342,-80
594.51,1244,4088,13772,346,342,-57
594.52,1256,3992,13900,342,331,-52
594.53,1276,4096,13808,288,340,-29
594.54,1204,4092,13900,294,316,-34
594.55,1292,4168,13884,347,310,-1
594.56,1216,4176,13872,323,326,-11
594.57,1228,4124,13976,318,306,-48
594.58,1304,4184,13892,370,315,-59
594.59,1204,4196,13924,423,331,-56
594.6,1264,4180,13884,345,326,-54
594.61,1268,4208,13804,319,344,-43
594.62,1280,4144,13896,245,304,-40
594.63,1180,4148,13868,215,303,-39
594.64,1224,4116,13896,223,285,-28
594.65,1248,4228,13756,239,309,-47
594.66,1288,4228,13828,276,283,-46
594.67,1140,4180,14000,219,315,-39
594.68,1180,4224,13900,230,290,-38
594.69,1260,4292,13772,202,294,-32
594.7,1184,4264,13764,213,298,-46
594.71,1184,4260,13960,195,281,-58
594.72,1384,4296,13844,222,321,-48
594.73,1168,4316,13880,218,296,-42
594.74,1260,4348,13792,159,270,-38
594.75,1184,4312,13728,29,272,-21
594.76,1136,4220,13676,-130,187,-27
594.77,1236,4156,13692,-108,200,-10
594.78,1204,4280,13884,81,385,-49
594.79,1208,4324,13924,224,458,-89
594.8,1168,4376,14076,238,440,-65
594.81,1016,4412,13688,53,357,-44
594.82,1160,4308,13788,-122,314,-28
594.83,1168,4320,13768,-40,265,-31
594.84,1164,4348,14104,-46,168,29
594.85,1144,4376,13384,-738,68,133
594.86,1448,4136,13688,-675,177,70
594.87,1464,4352,14240,431,640,-91
594.88,1112,4392,14084,193,127,-20
594.89,1260,4288,13892,-415,-132,57
594.9,1224,4324,13632,-447,101,81
594.91,1068,4284,13500,-899,-62,168
594.92,1328,3988,13492,-643,-53,127
594.93,1328,4184,13736,-243,53,67
594.94,1336,4408,13992,-99,18,15
594.95,1116,4412,14092,-66,-172,6
594.96,1196,4344,14056,-295,-92,87
594.97,1176,4416,13896,-296,-51,59
594.98,1236,4200,13852,-257,-34,78
594.99,1344,4256,13876,-227,147,38
595.0,1216,4268,13748,-178,195,35
595.01,1248,4224,13604,-206,177,24
595.02,1312,4228,13700,-162,185,30
595.03,1272,4216,13708,-13,150,9
595.04,1260,4184,13880,13,231,24
595.05,1296,4252,13928,-16,197,0
595.06,1260,4312,13988,-139,198,-5
595.07,1296,4284,13880,-261,202,-10
595.08,1216,4292,13912,-347,221,15
595.09,1292,4240,13904,-384,226,28
595.1,1300,4216,13972,-455,156,35
595.11,1264,4300,13984,-475,176,32
595.12,1372,4196,13924,-542,177,56
595.13,1300,4192,13900,-567,167,50
595.14,1296,4220,13828,-517,156,30
595.15,1304,4180,13780,-463,173,44
595.16,1296,4248,13852,-389,204,30
595.17,1272,4224,13992,-378,241,24
595.18,1248,4220,13936,-434,153,-10
595.19,1232,4288,14176,-305,492,-16
595.2,1196,4152,13676,-1016,61,95
595.21,1280,4100,13680,-1057,187,94
595.22,1380,4060,14024,-508,259,9
595.23,1216,4056,13876,-636,78,26
595.24,1232,4148,13900,-783,21,55
595.25,1248,4056,13732,-1014,-31,101
595.26,1220,4116,13816,-1088,-107,170
595.27,1328,4120,13968,-923,-139,137
595.28,1316,4120,14052,-958,-93,136
595.29,1440,4092,14172,-1063,-60,122
595.3,1404,4080,13976,-1252,-37,146
595.31,1308,4028,13888,-1401,9,136
595.32,1292,3992,13840,-1504,-69,147
595.33,1300,3960,13868,-1529,-56,169
595.34,1428,3872,13872,-1459,-45,140
595.35,1356,3808,13948,-1384,-61,143
595.36,1388,3824,14088,-1334,10,128
595.37,1288,3716,14044,-1487,-1,152
595.38,1360,3728,13864,-1666,-45,185
595.39,1424,3708,14016,-1624,5,172
595.4,1416,3620,13996,-1482,-27,157
595.41,1360,3624,13912,-1356,-15,128
595.42,1344,3664,13792,-1426,21,153
595.43,1380,3592,13976,-1662,-5,173
595.44,1372,3596,13952,-1590,43,148
595.45,1392,3616,14112,-1611,25,144
595.46,1264,3532,14000,-1695,-46,160
595.47,1424,3468,13928,-1664,-54,174
595.48,1432,3424,14048,-1557,-67,169
595.49,1396,3420,14068,-1490,-11,175
595.5,1392,3332,14056,-1497,-41,162
595.51,1452,3316,13976,-1526,5,143
595.52,1392,3304,14020,-1533,-76,116
595.53,1444,3292,14084,-1532,-81,125
595.54,1512,3276,14020,-1504,-81,133
595.55,1424,3288,13988,-1448,-14,109
595.56,1504,3200,14132,-1402,-23,129
595.57,1436,3132,14012,-1321,7,95
595.58,1412,3128,14080,-1352,64,56
595.59,1388,3172,13992,-1273,-47,64
595.6,1536,3104,14148,-1371,-4,65
595.61,1508,3080,14176,-1334,-15,88
595.62,1460,2980,14200,-1297,-10,77
595.63,1520,2992,14200,-1178,-27,91
595.64,1520,2928,13960,-1165,-26,69
595.65,1552,2944,14144,-1177,18,46
595.66,1616,2952,14048,-1185,58,70
595.67,1628,2932,14240,-1185,12,51
595.68,1492,2952,14224,-1186,89,47
595.69,1572,2940,14160,-1192,67,21
595.7,1584,2848,14232,-1185,102,21
595.71,1600,2932,14132,-1187,109,19
595.72,1572,2820,14316,-1263,85,41
595.73,1528,2816,14168,-1281,50,50
595.74,1484,2688,13884,-1398,-50,68
595.75,1540,2744,14032,-1482,-105,70
595.76,1564,2564,14060,-1269,-89,67
595.77,1608,2588,14256,-985,108,35
595.78,1616,2648,14208,-761,156,32
595.79,1664,2748,14220,-889,132,11
595.8,1624,2612,14232,-1032,94,66
595.81,1500,2576,13968,-1006,-26,46
595.82,1576,2504,14172,-865,39,44
595.83,1600,2680,14328,-874,227,39
595.84,1388,2612,13808,-1814,130,101
595.85,1688,2468,13836,-1980,-133,112
595.86,1796,2400,14668,-280,320,-120
595.87,1452,2592,13832,-803,-373,46
595.88,1788,2312,13932,-1398,-290,98
595.89,1704,2260,14228,-692,330,-19
595.9,1504,2488,13700,-1557,-367,156
595.91,1668,2256,14052,-1321,-99,108
595.92,1784,2356,14208,-485,313,-29
595.93,1672,2560,14684,-350,328,-48
595.94,1592,2604,14588,-687,203,-21
595.95,1624,2652,14464,-965,216,-2
595.96,1512,2456,14396,-1194,246,54
595.97,1480,2352,14256,-1351,31,89
595.98,1616,2248,14172,-1417,81,43
595.99,1672,2180,14120,-1479,81,46
596.0,1584,2116,13960,-1363,50,74
596.01,1688,2044,13956,-1015,40,64
596.02,1708,1996,14104,-582,43,66
596.03,1688,2068,14320,-311,115,40
596.04,1656,2064,14316,-74,221,-14
596.05,1704,2196,14392,-117,281,6
596.06,1716,2052,14196,-186,254,-19
596.07,1628,2236,14296,-284,243,18
596.08,1656,2132,14084,-306,218,15
596.09,1660,2132,14212,-310,198,20
596.1,1608,2056,14068,-163,226,43
596.11,1660,1952,13996,-156,217,17
596.12,1724,2172,14136,0,183,56
596.13,1652,2144,14044,188,254,10
596.14,1628,2160,14156,409,367,1
596.15,1532,2228,14260,617,450,-58
596.16,1568,2332,14216,554,397,-52
596.17,1616,2152,14364,806,662,-70
596.18,1464,2312,14016,593,444,2
596.19,1668,2256,13952,354,377,11
596.2,1704,2132,14256,845,482,-43
596.21,1564,2332,14084,944,377,-56
596.22,1588,2324,14216,1113,411,-52
596.23,1588,2484,14244,1112,399,-65
596.24,1508,2388,14176,1045,371,-53
596.25,1636,2500,14156,952,261,-30
596.26,1708,2364,14188,872,323,-46
596.27,1596,2468,14324,949,404,-90
596.28,1572,2428,14176,1076,422,-92
596.29,1648,2384,14228,1164,489,-89
596.3,1620,2572,14148,1253,523,-107
596.31,1540,2476,13964,1203,458,-83
596.32,1708,2608,14284,1192,441,-47
596.33,1500,2496,14112,1207,479,-64
596.34,1540,2656,14184,1347,485,-78
596.35,1572,2612,14096,1292,451,-60
596.36,1468,2612,14080,1199,418,-72
596.37,1472,2632,14060,1311,443,-100
596.38,1472,2748,14100,1480,539,-122
596.39,1496,2804,14220,1569,569,-121
596.4,1512,2884,14172,1453,507,-77
596.41,1424,2808,14132,1337,461,-48
596.42,1568,2844,14064,1328,471,-83
596.43,1428,3000,14136,1299,465,-43
596.44,1528,3044,14092,1287,470,-57
596.45,1352,3016,14180,1216,467,-50
596.46,1396,3120,14160,1258,494,-63
596.47,1448,3136,14068,1112,462,-95
596.48,1448,3116,13936,1054,401,-59
596.49,1448,3132,14112,1110,402,-63
596.5,1356,3128,14036,1114,423,-56
596.51,1476,3156,14064,1130,448,-81
596.52,1584,3120,14040,1096,420,-69
596.53,1364,3264,14060,1219,350,-84
596.54,1388,3172,14236,1057,321,-99
596.55,1440,3220,13944,915,564,-113
596.56,1388,3240,14080,817,410,-98
596.57,1516,3300,14160,1056,442,-145
596.58,1468,3344,14100,983,392,-114
596.59,1456,3300,14068,986,487,-143
596.6,1376,3288,14148,905,373,-89
596.61,1448,3380,13872,742,348,-60
596.62,1428,3348,14064,579,295,-20
596.63,1380,3336,13972,555,269,-13
596.64,1388,3372,14112,751,336,-54
596.65,1460,3512,14188,1101,512,-130
596.66,1412,3480,14064,1111,540,-96
596.67,1340,3540,14152,886,439,-110
596.68,1332,3512,14036,701,422,-80
596.69,1312,3576,14060,779,350,-86
596.7,1208,3572,14136,833,310,-22
596.71,1224,3684,13832,257,282,76
596.72,1332,3684,13512,-160,75,68
596.73,1648,3576,14200,1034,622,-115
596.74,1424,3800,14232,1656,515,-154
596.75,1300,3840,13884,481,-7,14
596.76,1404,3732,14092,375,392,-46
596.77,1348,3692,13672,74,220,31
596.78,1312,3688,13476,-286,35,105
596.79,1452,3540,13720,270,286,40
596.8,1364,3612,13956,796,222,-60
596.81,1376,3752,14168,960,92,-79
596.82,1432,3876,14304,899,72,-73
596.83,1304,3892,14108,686,159,-40
596.84,1228,3776,14224,567,199,-27
596.85,1464,3856,14052,488,221,-15
596.86,1404,3956,13984,390,332,-49
596.87,1236,3800,13524,787,86,-18
596.88,1344,3980,14092,750,-41,-64
596.89,1388,3964,13816,243,679,-79
596.9,1320,3668,13772,342,269,-71
596.91,1376,3824,13892,981,214,-40
596.92,1444,3880,13932,623,307,-80
596.93,1424,3888,14052,694,203,-57
596.94,1436,3948,14012,782,374,-70
596.95,1332,3972,13836,522,352,-68
596.96,1420,3924,14020,628,404,-87
596.97,1296,4116,13848,570,444,-49
596.98,1396,4008,13980,489,342,-86
596.99,1436,4000,13820,440,392,-95
597.0,1372,4092,13848,412,336,-78
597.01,1268,4156,13852,353,369,-63
597.02,1412,4088,13912,379,381,-70
597.03,1344,4124,13872,380,441,-38
597.04,1220,4264,14140,462,404,-80
597.05,1292,4224,14040,355,300,-83
597.06,1228,4332,14280,310,746,-108
597.07,1256,4304,13720,-581,309,-2
597.08,1196,4156,13748,-817,273,47
597.09,1368,4040,13976,-606,251,13
597.1,1224,4004,13872,-839,153,52
597.11,1324,4056,13744,-1121,-67,137
597.12,1372,4064,13712,-1212,-106,165
597.13,1280,3944,13916,-824,-74,132
597.14,1308,4020,13900,-555,-39,121
597.15,1304,4032,14024,-600,25,89
597.16,1372,3964,14016,-543,61,64
597.17,1364,3996,13768,-431,96,42
597.18,1456,3956,13896,-425,140,41
597.19,1368,3992,13788,-430,169,42
597.2,1508,3860,14008,-346,214,35
597.21,1328,3912,13928,-282,197,8
597.22,1320,3832,14028,-216,240,-3
597.23,1232,3952,13836,-335,207,49
597.24,1228,3888,13768,-294,216,10
597.25,1364,3984,13868,-123,281,0
597.26,1332,3904,13960,-14,288,-33
597.27,1276,3980,13852,17,265,-50
597.28,1292,3932,13828,13,264,-7
597.29,1388,3976,14068,25,289,-26
597.3,1412,3896,14016,44,276,-15
597.31,1340,3968,13960,114,298,-25
597.32,1260,3960,13824,228,320,-32
597.33,1312,3964,13940,180,319,-42
597.34,1324,4012,13944,264,348,-35
597.35,1228,4024,13812,283,331,-78
597.36,1292,3960,13888,331,384,-62
597.37,1268,3948,13972,305,400,-95
597.38,1284,4096,13996,152,314,-59
597.39,1248,3992,13908,157,303,-44
597.4,1284,4032,13900,103,285,-53
597.41,1392,4028,13880,101,269,-7
597.42,1352,3936,13868,143,293,-24
597.43,1344,4048,13836,144,281,-100
597.44,1236,4004,13960,208,329,-88
597.45,1344,4056,14088,233,308,-63
597.46,1344,4088,13948,35,279,-63
597.47,1428,4076,13812,-95,254,-57
597.48,1336,3992,13732,-194,110,-32
597.49,1308,3940,13980,-124,258,-23
597.5,1348,4048,13944,123,345,-38
597.51,1236,4180,13984,186,393,-102
597.52,1160,4120,13964,150,307,-100
597.53,1172,4204,13728,41,273,-75
597.54,1216,4136,13780,-112,242,-32
597.55,1232,4100,14060,-113,126,-6
597.56,1300,4236,13960,-409,175,116
597.57,1224,4148,13368,-1142,-98,182
597.58,1500,3972,14144,-323,366,18
597.59,1312,4188,14416,255,474,-87
597.6,1192,4028,13980,-511,4,30
597.61,1324,3972,13996,-882,64,90
597.62,1272,4080,13848,-1023,234,123
597.63,1220,3912,13620,-1545,-35,207
597.64,1432,3684,13480,-1324,-3,215
597.65,1412,3864,14012,-866,69,154
597.66,1388,3904,14288,-688,-46,116
597.67,1180,4056,13996,-982,41,180
597.68,1196,4088,13684,-1668,-497,276
597.69,1244,3964,13960,-1053,-205,233
597.7,1284,4036,14268,-1411,47,208
597.71,1060,4180,14260,-1051,322,83
597.72,1252,4104,14296,-1278,34,75
597.73,1364,3816,14144,-2132,133,168
597.74,1312,3752,13812,-2590,-52,246
597.75,1452,3632,13804,-2730,-203,313
597.76,1376,3436,13868,-2741,-209,303
597.77,1420,3300,14020,-2448,-193,269
597.78,1396,3348,13948,-2271,-130,267
597.79,1340,3384,13996,-2091,-105,228
597.8,1328,3384,14080,-1756,-42,140
597.81,1496,3420,14080,-1510,50,94
597.82,1420,3228,14008,-1424,90,94
597.83,1464,3304,14044,-1370,94,87
597.84,1452,3364,14044,-1374,175,67
597.85,1560,3308,14024,-1416,115,87
597.86,1460,3228,14184,-1526,183,72
597.87,1328,3288,14120,-1452,217,87
597.88,1300,3248,14172,-1463,210,62
597.89,1440,3276,14128,-1469,218,53
597.9,1376,3116,14152,-1389,143,39
597.91,1356,3044,14148,-1234,339,34
597.92,1316,3096,13944,-1650,3,112
597.93,1424,3016,13860,-1813,-11,112
597.94,1420,2920,14072,-1080,86,12
597.95,1472,3032,14180,-874,-26,18
597.96,1512,3008,14116,-1192,-52,45
597.97,1416,2944,14320,-1289,8,38
597.98,1316,2876,14168,-1269,-6,73
597.99,1448,2896,14188,-1286,46,30
598.0,1404,2944,14304,-1284,72,-4
598.01,1536,2856,14280,-1364,109,-6
598.02,1540,2880,14172,-1347,83,-25
598.03,1504,2740,14152,-1244,72,-22
598.04,1540,2724,14264,-1288,98,11
598.05,1500,2720,14316,-1325,129,13
598.06,1500,2676,14168,-1400,121,-4
598.07,1440,2592,14100,-1450,70,18
598.08,1512,2656,14268,-1439,25,25
598.09,1500,2484,14164,-1400,50,17
598.1,1508,2580,14100,-1379,14,5
598.11,1572,2404,14208,-1331,-1,10
598.12,1572,2544,14112,-1243,51,11
598.13,1432,2480,14176,-1159,8,-4
598.14,1548,2504,14260,-1242,58,30
598.15,1604,2460,14180,-1379,11,39
598.16,1488,2460,14216,-1403,58,34
598.17,1564,2508,14220,-1331,71,10
598.18,1532,2384,14420,-1279,54,0
598.19,1572,2432,14228,-1208,109,-31
598.2,1508,2432,14340,-1216,94,0
598.21,1520,2432,14244,-1336,53,25
598.22,1540,2224,14152,-1460,-48,39
598.23,1452,2188,14176,-1412,-135,37
598.24,1628,2120,14200,-1100,-15,10
598.25,1524,2216,14464,-747,185,-5
598.26,1576,2316,14420,-858,229,-1
598.27,1404,2216,14080,-1040,159,-55
598.28,1460,2168,14044,-1157,12,-15
598.29,1552,2036,14172,-1121,-58,28
598.3,1636,2012,14360,-942,-100,24
598.31,1624,2120,14432,-983,128,58
598.32,1472,2092,13696,-1876,-140,54
598.33,1708,1820,14060,-1354,-83,-10
598.34,1732,2008,14716,3,439,-156
598.35,1420,2188,14172,-878,-282,-19
598.36,1652,1948,13940,-1411,-376,21
598.37,1692,1948,14352,-501,351,-70
598.38,1464,1904,13772,-1132,-248,19
598.39,1616,1708,13904,-1182,-198,101
598.4,1744,1752,14280,-252,231,1
598.41,1640,2008,14668,103,310,-29
598.42,1520,1940,14392,74,194,6
598.43,1588,2032,14344,-24,262,28
598.44,1540,1924,14248,-15,229,62
598.45,1628,2004,14184,-12,189,104
598.46,1676,1968,14232,75,275,58
598.47,1712,1968,14036,165,282,99
598.48,1624,1848,13952,314,307,81
598.49,1648,1840,13924,510,287,57
598.5,1604,1956,14088,855,354,3
598.51,1716,1988,14196,1088,403,3
598.52,1564,1920,14380,1101,455,-17
598.53,1672,1968,14548,998,493,-40
598.54,1636,2132,14436,923,568,-60
598.55,1676,2052,14320,702,458,-42
598.56,1676,2044,14276,588,360,3
598.57,1616,2140,14212,632,362,-30
598.58,1672,2160,14184,571,337,-33
598.59,1612,2108,14144,574,267,33
598.6,1664,2164,14112,691,265,18
598.61,1552,2164,14124,933,327,16
598.62,1632,2296,14316,1210,414,-11
598.63,1496,2360,14404,1370,533,-45
598.64,1572,2256,14472,1216,453,-46
598.65,1408,2304,14304,1255,790,-75
598.66,1544,2388,14024,746,389,5
598.67,1660,2268,13968,636,389,10
598.68,1540,2376,14112,960,298,-33
598.69,1536,2432,14368,1247,455,-69
598.7,1460,2432,14232,1139,435,-70
598.71,1404,2504,14124,992,352,-3
598.72,1492,2484,14216,1050,330,-7
598.73,1516,2496,14200,1059,347,-26
598.74,1604,2628,14232,1043,465,-41
598.75,1408,2572,14168,1045,443,-53
598.76,1408,2604,14288,1104,413,-101
598.77,1532,2660,14304,1221,488,-57
598.78,1464,2676,14240,1146,528,-59
598.79,1376,2656,14128,1021,524,-51
598.8,1520,2644,14176,1005,459,-69
598.81,1456,2732,14232,1052,454,-65
598.82,1412,2772,14260,1021,451,-28
598.83,1520,2860,14128,962,459,-48
598.84,1528,2804,14024,950,465,-38
598.85,1320,2824,14160,934,447,-71
598.86,1476,2808,14008,929,407,-61
598.87,1452,2852,14044,932,378,-46
598.88,1480,2956,14196,889,385,-54
598.89,1388,2952,14104,978,422,-31
598.9,1476,2936,14104,900,422,-29
598.91,1384,2964,14160,1021,415,-50
598.92,1452,3000,14032,1084,398,-72
598.93,1440,3028,14136,1173,467,-94
598.94,1452,3116,13940,1046,561,-76
598.95,1404,3112,13976,933,443,-51
598.96,1452,3096,13992,937,394,-53
598.97,1324,3116,14256,1059,400,-84
598.98,1508,3192,14364,1323,524,-84
598.99,1272,3276,14236,1238,581,-89
599.0,1364,3288,14124,1024,464,-86
599.01,1244,3240,14004,886,468,-50
599.02,1380,3272,13972,821,340,-10
599.03,1396,3368,14060,1007,360,-86
599.04,1356,3368,14300,1093,303,-29
599.05,1164,3600,13836,186,138,106
599.06,1456,3220,13872,334,308,-31
599.07,1472,3260,14384,1632,675,-170
599.08,1332,3588,14168,1614,460,-106
599.09,1376,3604,14208,691,148,-51
599.1,1388,3420,14252,690,584,-60
599.11,1168,3348,13416,-237,91,72
599.12,1464,3188,13512,-124,186,87
599.13,1368,3344,13676,560,234,8
599.14,1268,3416,14132,1007,142,-59
599.15,1340,3636,14312,1136,91,-54
599.16,1224,3600,14284,822,156,-11
599.17,1200,3584,14232,615,232,6
599.18,1268,3640,14204,579,235,-13
599.19,1232,3700,14168,610,276,5
599.2,1376,3668,13968,593,360,-35
599.21,1368,3732,13952,621,373,-67
599.22,1416,3700,13836,574,348,-61
599.23,1284,3584,13912,737,342,-56
599.24,1328,3768,14032,894,384,-55
599.25,1364,3652,13960,941,297,-64
599.26,1392,3728,14124,886,314,-59
599.27,1376,3780,13944,744,308,-30
599.28,1364,3656,13988,766,374,-53
599.29,1296,3732,13980,737,343,-35
599.3,1208,3792,14048,698,341,-46
599.31,1356,3836,14092,627,330,-56
599.32,1324,3768,13804,536,290,-77
599.33,1252,3940,13924,550,338,-88
599.34,1236,3852,13980,622,364,-55
599.35,1340,3860,13916,672,356,-52
599.36,1236,3892,13976,738,377,-62
599.37,1324,4024,13968,867,404,-95
599.38,1244,3904,13980,831,413,-132
599.39,1284,3912,14236,857,701,-125
599.4,1168,4024,13536,434,268,-15
599.41,1284,3844,13692,397,441,-64
599.42,1244,3936,13836,873,433,-94
599.43,1192,4088,14108,772,387,-97
599.44,1204,4084,13916,561,320,-37
599.45,1192,4124,13860,404,318,-54
599.46,1264,4176,13928,398,278,-9
599.47,1212,4128,14048,485,247,-52
599.48,1200,4104,13936,472,218,-34
599.49,1216,4140,13840,371,284,-60
599.5,1276,4196,14092,372,351,-72
599.51,1248,4284,14048,386,339,-57
599.52,1192,4288,13912,342,347,-59
599.53,1172,4188,13804,342,306,-46
599.54,1204,4092,13908,289,333,-57
599.55,1148,4184,13940,344,315,-47
599.56,1252,4196,13952,392,375,-56
599.57,1276,4132,13764,315,333,-50
599.58,1124,4184,13788,251,318,-49
599.59,1220,4212,13876,210,309,-54
599.6,1188,4160,13712,246,327,-52
599.61,1208,4224,13852,239,361,-34
599.62,1160,4228,13868,199,370,-26
599.63,1212,4372,13796,153,348,-35
599.64,1188,4244,13824,137,326,-27
599.65,1184,4276,13908,101,307,-14
599.66,1204,4260,13820,48,328,-23
599.67,1164,4260,13836,34,325,-26
599.68,1252,4332,13748,48,320,-32
599.69,1172,4304,13828,16,312,-8
599.7,1156,4356,13972,12,291,-39
599.71,1180,4444,13900,-8,325,-2
599.72,1120,4272,13952,-3,306,-11
599.73,1252,4344,13860,-32,309,2
599.74,1120,4336,13828,-98,273,-12
599.75,1212,4324,13800,-130,255,-2
599.76,1132,4312,13748,-151,282,18
599.77,1136,4184,13960,-129,286,-23
599.78,1028,4304,13848,-146,289,-15
599.79,1224,4324,13788,-171,285,-19
599.8,1148,4228,13900,-245,279,-8
599.81,1196,4440,13780,-323,222,0
599.82,1152,4404,13976,-313,294,-19
599.83,1192,4344,13772,-370,216,-4
599.84,1192,4276,13944,-429,294,-16
599.85,952,4336,13988,-559,218,18
599.86,1160,4124,13784,-677,216,31
599.87,1172,4244,13960,-643,186,35
599.88,1124,4328,13988,-713,178,36
599.89,1128,4228,13800,-761,189,49
599.9,1160,4168,13948,-874,198,85
599.91,1172,4220,14004,-1012,164,80
599.92,1100,4304,13992,-1075,110,74
599.93,1152,4192,13828,-1165,156,73
599.94,1216,4292,13868,-1228,156,106
599.95,1192,4188,14132,-1295,152,134
599.96,1236,4176,14064,-1378,120,129
599.97,1124,4036,13960,-1476,79,139
599.98,1132,4012,14004,-1561,14,159
599.99,1216,3944,14080,-1473,30,157
600.0,1180,3928,13828,-1539,106,124
600.01,1176,4008,14004,-1530,111,151
600.02,1172,3832,13984,-1568,145,121
600.03,1100,3852,13988,-1634,141,164
600.04,1120,3804,14136,-1655,113,127
600.05,1068,3832,13884,-1591,80,118
600.06,1288,3804,13928,-1574,146,111
600.07,1252,3728,14076,-1664,129,124
600.08,1156,3764,14052,-1746,145,111
600.09,1084,3644,13996,-1934,32,170
600.1,1220,3548,13896,-2087,-57,157
600.11,1152,3556,13872,-1921,-35,152
600.12,1336,3524,14208,-1580,63,85
600.13,1144,3572,14248,-1497,100,116
600.14,1144,3616,14240,-1460,107,101
600.15,1232,3460,13956,-1599,-26,83
600.16,1148,3408,13964,-1662,-116,138
600.17,1296,3400,14148,-1534,-70,105
600.18,1124,3384,14052,-1876,112,190
600.19,1308,3384,13392,-2979,-249,271
600.2,1520,3168,14176,-2274,-165,104
600.21,1372,3200,14660,-672,66,-33
600.22,1232,3204,13852,-1568,-418,176
600.23,1344,3060,13980,-1948,-214,131
600.24,1132,3012,13768,-1698,-44,146
600.25,1364,2944,13676,-2114,-533,228
600.26,1448,2912,14236,-1275,-107,106
600.27,1320,3140,14476,-713,21,42
600.28,1288,3200,14528,-1164,-114,89
600.29,1232,3156,14260,-1579,-44,100
600.3,1264,3032,14224,-1710,-35,149
600.31,1292,3100,14232,-1790,-42,98
600.32,1372,2908,14188,-1738,38,81
600.33,1340,2880,14072,-1810,-2,75
600.34,1312,2736,13888,-1943,-30,103
600.35,1312,2644,13840,-1866,5,80
600.36,1272,2544,13932,-1566,-160,76
600.37,1444,2540,13840,-1255,-139,40
600.38,1464,2624,14444,-819,-26,35
600.39,1416,2664,14352,-758,33,14
600.4,1432,2564,14408,-962,28,42
600.41,1532,2576,14232,-1006,77,8
600.42,1392,2604,14196,-1060,60,-2
600.43,1416,2636,14164,-1201,85,15
600.44,1432,2576,14236,-1259,36,26
600.45,1452,2480,14132,-1271,4,51
600.46,1452,2436,14164,-1319,41,-11
600.47,1472,2528,14268,-1258,32,-8
600.48,1348,2552,14216,-1274,35,33
600.49,1440,2448,14228,-1126,90,0
600.5,1356,2496,14264,-988,79,12
600.51,1312,2452,14184,-982,53,-24
600.52,1436,2420,14296,-821,212,-32
600.53,1388,2412,14264,-904,153,39
600.54,1404,2436,14060,-1172,45,77
600.55,1552,2300,14208,-919,196,5
600.56,1384,2428,14148,-919,-56,-8
600.57,1568,2332,14256,-869,47,-33
600.58,1480,2240,14312,-856,14,-16
600.59,1440,2252,14344,-945,64,-27
600.6,1468,2312,14140,-1052,-12,12
600.61,1412,2188,14156,-1122,-38,4
600.62,1488,2220,14328,-1034,27,-13
600.63,1488,2152,14284,-903,33,-31
600.64,1568,2056,14224,-817,88,-13
600.65,1560,2104,14312,-762,86,-32
600.66,1484,2108,14172,-763,154,-26
600.67,1584,2020,14248,-755,149,-19
600.68,1472,2128,14152,-758,86,1
600.69,1476,2004,14184,-506,116,-1
600.7,1484,2036,14248,-354,123,-16
600.71,1480,1920,14064,-274,107,-1
600.72,1428,2080,14144,-181,189,-3
600.73,1484,1984,14196,10,286,28
600.74,1512,1976,14200,141,271,-15
600.75,1484,2080,14160,222,233,-15
600.76,1524,2124,14164,334,311,1
600.77,1600,2068,14244,406,314,9
600.78,1440,2136,14132,474,359,20
600.79,1584,2204,14208,441,358,34
600.8,1412,2160,14152,511,342,-2
600.81,1520,2228,14232,607,394,15
600.82,1452,2284,14216,661,415,-53
600.83,1460,2212,14248,628,382,-67
600.84,1388,2180,14248,604,382,-34
600.85,1508,2296,14220,621,357,-10
600.86,1452,2240,14104,626,352,-40
600.87,1516,2228,14108,650,348,-12
600.88,1536,2260,14108,735,418,-48
600.89,1520,2304,14116,690,346,-32
600.9,1524,2436,14196,742,366,-21
600.91,1464,2456,14308,847,419,-31
600.92,1476,2260,14256,848,363,-43
600.93,1376,2448,14072,816,375,-34
600.94,1548,2292,14152,835,352,-17
600.95,1480,2312,14084,883,365,-53
600.96,1540,2500,14240,929,392,-43
600.97,1440,2456,14196,1004,420,-29
600.98,1460,2384,14152,983,381,-19
600.99,1380,2468,14228,1022,454,-26
601.0,1408,2548,14232,1070,394,-20
601.01,1388,2584,14232,1028,464,-60
601.02,1408,2492,14032,901,337,-15
601.03,1436,2564,14056,939,320,-14
601.04,1428,2676,14308,1309,408,-42
601.05,1344,2704,14132,1527,555,-93
601.06,1424,2784,14348,1528,553,-51
601.07,1364,2852,14384,1420,567,-54
601.08,1252,2832,14236,1314,545,-52
601.09,1288,2820,14124,1178,445,-28
601.1,1416,2792,14240,1344,403,-75
601.11,1380,2896,14328,1341,433,-18
601.12,1244,3132,13768,524,462,64
601.13,1544,2848,14180,568,419,-27
601.14,1548,2892,14508,1952,753,-160
601.15,1332,3196,14124,1829,431,-134
601.16,1312,2972,13988,667,76,-14
601.17,1396,2972,14416,1249,732,-125
601.18,1160,3036,13692,561,71,62
601.19,1456,2880,13796,314,82,70
601.2,1356,2936,13996,1106,236,-10
601.21,1380,3076,14392,1639,233,-60
601.22,1368,3284,14400,1524,302,-64
601.23,1400,3372,14364,1192,240,-28
601.24,1220,3380,14320,1037,484,-19
601.25,1248,3432,14000,977,447,-27
601.26,1260,3444,13960,931,392,24
601.27,1276,3356,13940,878,491,-41
601.28,1180,3320,13980,812,461,-16
601.29,1344,3284,13880,825,484,-59
601.3,1400,3320,13856,1055,406,-53
601.31,1308,3268,13980,1280,429,-83
601.32,1316,3368,14044,1237,400,-85
601.33,1488,3532,14040,1201,451,-117
601.34,1232,3436,13972,1118,446,-95
601.35,1496,3504,14184,1153,397,-63
601.36,1276,3452,14036,1075,415,-61
601.37,1200,3636,14008,940,424,-60
601.38,1268,3616,13900,833,316,-82
601.39,1344,3612,13976,789,351,-66
601.4,1336,3640,13932,786,360,-65
601.41,1300,3684,13964,808,405,-69
601.42,1152,3696,13880,879,430,-57
601.43,1244,3652,14068,989,454,-87
601.44,1240,3760,13984,1068,443,-117
601.45,1100,3676,14164,1149,443,-137
601.46,1248,3796,14168,1174,721,-142
601.47,1148,3848,13796,873,473,-54
601.48,1216,3792,13780,544,425,-51
601.49,1204,3724,13824,724,407,-78
601.5,1200,3840,14148,1078,425,-134
601.51,1184,3864,14008,949,351,-113
601.52,1208,3928,13932,693,312,-69
601.53,1140,3896,14036,607,298,-68
601.54,1152,4032,13972,626,288,-78
601.55,1176,4000,13960,552,269,-35
601.56,1128,4036,13888,534,335,-52
601.57,1216,3940,14064,570,327,-57
601.58,1280,4092,13976,630,358,-57
601.59,1268,3984,13972,545,395,-66
601.6,1232,4100,13856,471,377,-45
601.61,1112,4000,13928,441,335,-47
601.62,1284,3936,13980,492,360,-65
601.63,1160,4004,14020,546,372,-28
601.64,1228,4104,13720,477,361,-42
601.65,1172,4044,13812,393,330,-51
601.66,1116,4088,13888,450,395,-77
601.67,1100,4112,13896,496,409,-64
601.68,1200,4096,13808,487,359,-28
601.69,1112,4104,13812,410,394,-59
601.7,1164,4192,13844,355,348,-60
601.71,1160,4124,13848,349,329,-22
601.72,1084,4208,13844,260,340,-28
601.73,1120,4252,13864,253,321,-17
601.74,1172,4184,13892,284,305,-22
601.75,1092,4188,13764,268,319,-28
601.76,1004,4288,13684,312,318,-44
601.77,1176,4284,13884,280,321,-39
601.78,1036,4152,13876,326,360,-45
601.79,1048,4220,13808,287,324,-38
601.8,1076,4340,13752,304,325,-28
601.81,1136,4236,13892,252,347,-41
601.82,1120,4296,13876,255,326,-54
601.83,1136,4236,13908,229,325,-33
601.84,1032,4192,13692,224,323,-36
601.85,1084,4328,13948,194,322,-65
601.86,1084,4336,13796,216,328,-53
601.87,1016,4268,13928,164,330,-57
601.88,1116,4296,13888,210,329,-44
601.89,1048,4416,13812,185,322,-40
601.9,1128,4336,13840,160,318,-57
601.91,1064,4356,13920,152,318,-22
601.92,1016,4296,13760,132,308,-41
601.93,1068,4396,13868,106,273,-7
601.94,1092,4292,13852,126,284,-15
601.95,1112,4340,13664,119,307,-30
601.96,976,4340,14000,91,309,-43
601.97,1028,4356,13852,109,314,-31
601.98,1052,4408,13828,57,316,4
601.99,1144,4348,13904,71,310,-18
602.0,1060,4352,13788,64,331,-37
602.01,992,4380,13708,17,288,-7
602.02,1008,4408,13908,52,318,-62
602.03,1016,4456,13808,52,338,-15
602.04,1072,4372,13756,17,315,-23
602.05,1056,4468,13860,60,338,-40
602.06,1092,4512,14008,-16,312,-25
602.07,1044,4408,13700,-143,284,-9
602.08,1004,4432,13708,-255,233,24
602.09,1004,4472,13724,-194,254,1
602.1,1084,4392,13896,-98,321,-53
602.11,1064,4436,13980,-46,385,-43
602.12,1036,4436,13960,-181,294,-42
602.13,888,4384,13764,-276,257,-15
602.14,996,4348,13708,-371,211,-8
602.15,1072,4336,13740,-268,190,4
602.16,904,4424,14192,-217,139,11
602.17,840,4408,13496,-853,158,142
602.18,1068,4340,13384,-1201,4,143
602.19,1192,4324,14292,-193,379,-42
602.2,864,4600,14068,-78,168,-57
602.21,936,4320,13764,-663,-23,71
602.22,1028,4340,13820,-517,231,58
602.23,1012,4320,13540,-1172,25,175
602.24,1076,4072,13636,-1063,-70,179
602.25,1220,4236,13936,-595,-136,117
602.26,996,4468,14108,-617,-222,67
602.27,1084,4308,14112,-731,-355,119
602.28,1064,4376,14136,-967,-314,177
602.29,912,4388,14016,-1016,-199,162
602.3,1140,4232,13908,-870,-55,167
602.31,1124,4272,13960,-840,-9,133
602.32,1160,4308,13976,-889,111,96
602.33,1000,4188,13840,-1154,122,142
602.34,1140,4124,13696,-1200,89,100
602.35,1084,4048,13864,-1076,112,124
602.36,1168,4076,13804,-1072,160,123
602.37,1212,4016,14032,-1088,135,97
602.38,1120,4076,14080,-1167,128,102
602.39,1108,4012,13976,-1261,135,102
602.4,1072,3912,13868,-1360,100,124
602.41,1020,4004,13900,-1412,137,140
602.42,1116,3872,13844,-1448,116,121
602.43,1192,3824,13980,-1517,96,144
602.44,1104,3868,13932,-1452,105,121
602.45,1192,3816,13968,-1404,92,147
602.46,1164,3836,14016,-1339,139,126
602.47,1176,3888,14044,-1251,167,114
602.48,1192,3828,14040,-1234,217,105
602.49,1104,3816,13924,-1258,226,92
602.5,1100,3924,13956,-1302,180,96
602.51,1124,3700,14184,-1157,285,20
602.52,1004,3688,13964,-1210,328,93
602.53,1108,3732,13920,-1681,55,173
602.54,1288,3484,13972,-1616,97,104
602.55,1084,3532,14024,-1120,109,31
602.56,1176,3616,14148,-1113,13,79
602.57,1140,3576,14088,-1326,-15,110
602.58,1224,3460,13992,-1335,5,102
602.59,1296,3508,14020,-1348,-4,91
602.6,1292,3504,14072,-1430,0,114
602.61,1196,3440,14184,-1535,7,127
602.62,1324,3512,14080,-1488,72,77
602.63,1256,3392,14192,-1550,31,76
602.64,1128,3532,14040,-1627,49,49
602.65,1304,3336,14180,-1598,50,55
602.66,1156,3408,14168,-1621,45,62
602.67,1284,3216,14068,-1530,-8,67
602.68,1272,3280,13988,-1578,-51,89
602.69,1280,3084,14148,-1342,3,71
602.7,1272,3176,14064,-1345,-21,60
602.71,1268,3056,13976,-1369,-73,72
602.72,1300,3100,13976,-1351,-80,84
602.73,1268,2996,14084,-1180,1,47
602.74,1360,2996,14164,-1156,-3,58
602.75,1304,3028,14276,-1255,-21,69
602.76,1212,3056,14232,-1251,35,62
602.77,1192,3060,14116,-1371,-30,68
602.78,1252,2952,14260,-1390,-48,59
602.79,1264,2964,14064,-1384,-11,59
602.8,1292,2928,14196,-1331,-71,66
602.81,1208,2900,14100,-1346,8,72
602.82,1260,2792,14136,-1287,-21,57
602.83,1312,2848,14012,-1186,-4,49
602.84,1296,2936,14224,-1203,44,23
602.85,1396,2780,14260,-1169,-27,70
602.86,1336,2744,14280,-1223,2,45
602.87,1340,2688,14272,-1213,-64,47
602.88,1276,2732,14208,-1172,18,13
602.89,1344,2660,14088,-1218,-1,34
602.9,1428,2572,14024,-1161,20,29
602.91,1360,2600,14220,-1109,41,3
602.92,1316,2648,14044,-1124,32,8
602.93,1400,2604,14168,-1110,31,-19
602.94,1392,2640,14068,-1056,24,16
602.95,1300,2588,14268,-1105,-58,29
602.96,1328,2620,14256,-1044,-21,56
602.97,1348,2436,14216,-1015,5,-11
602.98,1392,2396,14228,-1024,46,13
602.99,1312,2460,14316,-980,31,24
603.0,1404,2488,14192,-1052,10,15
603.01,1328,2444,14136,-1082,-3,33
603.02,1408,2400,14300,-968,59,-9
603.03,1420,2436,14148,-963,28,2
603.04,1400,2380,14252,-996,50,18
603.05,1376,2372,14292,-967,18,12
603.06,1408,2228,14088,-892,39,2
603.07,1420,2436,14140,-875,61,38
603.08,1436,2408,14136,-883,84,11
603.09,1420,2312,14160,-857,67,15
603.1,1460,2268,14216,-904,-24,26
603.11,1424,2180,14056,-1014,-79,39
603.12,1484,2112,14036,-1009,-111,31
603.13,1484,2180,14332,-728,24,44
603.14,1540,2184,14312,-427,121,18
603.15,1680,2236,14296,-376,124,-15
603.16,1440,2280,14268,-452,87,-14
603.17,1452,2148,14184,-454,62,13
603.18,1296,2120,14060,-435,11,33
603.19,1468,2128,14136,-234,61,17
603.2,1552,2164,14500,-11,266,-5
603.21,1332,2368,14200,-538,234,88
603.22,1400,2188,13640,-1181,-130,121
603.23,1668,1964,14580,-72,270,3
603.24,1552,2264,14360,815,160,-87
603.25,1300,2228,13852,-414,-223,88
603.26,1592,2008,14496,276,258,-4
603.27,1428,2236,14116,179,240,-37
603.28,1440,2036,13692,-705,-329,146
603.29,1548,2000,14124,146,201,60
603.3,1584,2264,14568,579,383,-46
603.31,1384,2280,14784,623,412,-54
603.32,1472,2404,14592,416,322,3
603.33,1416,2424,14304,36,312,76
603.34,1316,2240,14320,21,278,65
603.35,1388,2284,14120,-67,193,84
603.36,1408,2272,14152,-27,209,76
603.37,1440,2168,14276,14,176,25
603.38,1420,2240,14036,37,232,38
603.39,1440,2144,14012,117,255,39
603.4,1480,2204,14076,331,244,39
603.41,1460,2084,14284,577,198,15
603.42,1432,2180,14460,670,243,-6
603.43,1544,2232,14440,633,285,-10
603.44,1552,2336,14224,518,386,-25
603.45,1420,2292,14356,456,414,-18
603.46,1408,2196,14160,409,359,-20
603.47,1584,2296,14248,325,302,-6
603.48,1544,2296,14204,295,289,-8
603.49,1488,2348,14256,311,282,-13
603.5,1472,2320,14248,298,281,-9
603.51,1392,2332,14060,443,354,-8
603.52,1424,2436,14320,595,336,-10
603.53,1512,2504,14200,764,408,-39
603.54,1400,2360,14228,855,410,-83
603.55,1484,2496,14328,963,613,-75
603.56,1252,2504,14032,873,578,-33
603.57,1500,2568,13936,384,333,44
603.58,1444,2392,14176,586,454,-23
603.59,1304,2512,14140,883,417,-32
603.6,1412,2556,14140,662,216,-20
603.61,1392,2456,14232,885,353,-60
603.62,1392,2568,14184,945,329,-39
603.63,1488,2596,14272,930,341,13
603.64,1480,2724,14088,886,330,-1
603.65,1464,2580,14024,830,324,-65
603.66,1400,2668,14236,955,400,-72
603.67,1484,2736,14108,1100,476,-78
603.68,1404,2772,14180,1155,507,-97
603.69,1408,2676,14208,1110,560,-89
603.7,1396,2640,14196,1083,546,-64
603.71,1292,2788,14152,1018,422,-48
603.72,1468,2700,14084,1152,454,-70
603.73,1344,2860,14140,1326,473,-85
603.74,1344,2864,14152,1208,460,-78
603.75,1260,2972,14072,1129,552,-83
603.76,1312,2916,14124,1218,480,-73
603.77,1340,2932,14152,1313,525,-94
603.78,1324,3060,14140,1392,494,-53
603.79,1192,3068,14088,1406,535,-69
603.8,1260,3104,14136,1257,487,-78
603.81,1344,3224,13992,1262,501,-41
603.82,1332,3196,14036,1207,502,-30
603.83,1224,3212,14116,1162,480,-39
603.84,1132,3220,13984,1124,467,-41
603.85,1312,3208,14224,1142,472,-97
603.86,1356,3344,14040,1202,462,-56
603.87,1200,3340,13984,1145,559,-92
603.88,1332,3328,14032,1331,570,-99
603.89,1144,3424,13968,1177,528,-73
603.9,1268,3280,14100,898,453,-67
603.91,1160,3276,14072,974,554,-71
603.92,1104,3368,14132,1159,573,-82
603.93,1236,3440,14028,976,406,-54
603.94,1212,3472,14052,971,527,-91
603.95,1240,3360,13948,1200,500,-104
603.96,1192,3572,13940,1083,358,-71
603.97,1344,3616,14104,937,461,-92
603.98,1220,3628,14088,1028,464,-80
603.99,1192,3592,14112,1068,447,-103
604.0,1100,3772,14016,995,352,-91
604.01,1148,3668,13980,930,377,-60
604.02,1192,3672,14132,898,443,-59
604.03,1108,3688,13964,989,449,-56
604.04,1148,3740,13948,940,539,-72
604.05,1116,3848,13944,839,472,-38
604.06,1212,3728,13872,637,436,-79
604.07,1120,3824,13876,563,378,-39
604.08,1148,3888,13788,666,385,-58
604.09,1180,3912,14096,857,393,-105
604.1,1156,4000,14200,891,480,-93
604.11,1152,4004,13924,703,475,-79
604.12,924,3876,13980,624,405,-65
604.13,1092,3928,13772,573,335,-39
604.14,1180,3976,14084,614,293,-61
604.15,1020,3964,14008,559,407,-14
604.16,1000,4080,13392,-242,265,46
604.17,1312,4012,14088,8,343,-28
604.18,1232,4136,14512,971,538,-136
604.19,1028,4248,14084,657,284,-75
604.2,1148,4028,13988,265,149,-30
604.21,1060,4108,13860,485,409,-57
604.22,964,4028,13400,-373,-40,101
604.23,1132,3924,13692,5,110,72
604.24,1224,4152,13928,371,2,52
604.25,1120,4108,14196,565,-79,23
604.26,952,4200,14260,362,-98,56
604.27,1024,4172,14076,-11,80,50
604.28,1008,4216,13860,110,259,58
604.29,1036,4224,13884,290,206,41
604.3,1120,4220,13868,304,264,-3
604.31,1060,4240,13796,209,402,-47
604.32,988,4276,13740,136,400,-15
604.33,1040,4160,13792,275,340,-34
604.34,1124,4160,13816,454,314,-38
604.35,1140,4220,13836,514,328,-22
604.36,1044,4148,14044,492,360,-51
604.37,1140,4112,13900,431,351,-41
604.38,1020,4220,13912,333,354,-78
604.39,1064,4268,13932,303,359,-34
604.4,1192,4216,13712,210,361,-17
604.41,1052,4276,13856,220,310,-20
604.42,1092,4280,13836,176,330,-44
604.43,1116,4248,13924,125,332,-8
604.44,1028,4280,13808,119,370,-22
604.45,964,4212,13952,137,345,-16
604.46,1084,4344,13856,221,369,-41
604.47,1008,4364,13884,271,387,-49
604.48,956,4332,13904,358,407,-58
604.49,964,4372,13752,346,312,-43
604.5,888,4376,14184,524,632,-73
604.51,896,4444,13776,342,505,-29
604.52,908,4260,13424,-160,331,16
604.53,1028,4312,13652,162,469,-54
604.54,1116,4428,13988,528,418,-103
604.55,1000,4424,13864,357,324,-100
604.56,1032,4380,13800,156,283,-28
604.57,988,4492,13704,54,260,-21
604.58,1020,4404,13820,108,227,6
604.59,1092,4380,13860,131,156,-15
604.6,1036,4436,13812,92,183,-10
604.61,1028,4420,13976,-28,323,-32
604.62,952,4496,13816,50,311,-58
604.63,992,4396,13968,7,335,-16
604.64,1028,4500,13836,-26,307,-9
604.65,1020,4396,13848,-51,280,-3
604.66,912,4420,13852,-58,258,-18
604.67,1004,4392,14012,31,260,-27
604.68,1000,4376,13676,-5,275,-5
604.69,900,4340,13748,-89,301,-4
604.7,960,4424,13780,-100,277,4
604.71,972,4396,13788,-108,292,-40
604.72,1020,4464,13852,-126,318,-4
604.73,932,4452,13820,-175,302,-19
604.74,936,4508,13792,-244,275,-16
604.75,972,4460,13944,-274,243,-6
604.76,920,4480,13876,-294,240,35
604.77,948,4544,13884,-298,229,26
604.78,804,4512,13864,-332,275,24
604.79,928,4528,13916,-329,216,11
604.8,908,4544,13848,-375,231,30
604.81,944,4444,13840,-465,247,-6
604.82,1084,4440,13936,-502,243,29
604.83,984,4408,13840,-585,206,14
604.84,952,4360,13744,-596,159,23
604.85,944,4380,13800,-660,180,28
604.86,964,4396,14060,-707,159,47
604.87,956,4360,14032,-742,171,52
604.88,912,4380,13836,-828,156,26
604.89,984,4308,13864,-929,152,57
604.9,1056,4224,13912,-958,103,70
604.91,1056,4264,13868,-994,177,49
604.92,996,4396,13884,-1060,164,53
604.93,1064,4272,13856,-1139,157,18
604.94,960,4284,13872,-1145,110,99
604.95,948,4244,14028,-1252,49,87
604.96,1012,4156,13940,-1303,30,106
604.97,936,4084,13916,-1304,62,130
604.98,968,4112,13980,-1437,5,150
604.99,1052,4092,13860,-1433,10,137
605.0,1028,4008,13956,-1463,-21,153
605.01,992,3964,13864,-1470,-5,147
605.02,988,3984,13868,-1549,-19,139
605.03,988,3928,13944,-1531,62,119
605.04,980,3896,13880,-1551,50,96
605.05,1020,3896,13976,-1579,80,101
605.06,1108,3968,14052,-1581,61,96
605.07,1072,3832,14012,-1718,17,87
605.08,1116,3744,13980,-1764,-20,121
605.09,1120,3756,14016,-1907,-85,150
605.1,1136,3636,13892,-2049,-173,158
605.11,1080,3592,14168,-1809,-154,137
605.12,1120,3696,14188,-1491,-22,92
605.13,1084,3632,14136,-1442,-19,108
605.14,1084,3676,14092,-1558,-75,124
605.15,1148,3564,14076,-1644,-78,139
605.16,1052,3376,13844,-1730,-217,159
605.17,1204,3504,14072,-1559,-232,106
605.18,1116,3392,14300,-1510,-87,165
605.19,924,3524,13904,-2207,44,218
605.2,1292,3256,14060,-2610,-296,164
605.21,1376,3184,14608,-1403,-30,71
605.22,988,3276,14064,-1264,-389,113
605.23,1172,3212,13896,-2113,-649,178
605.24,1264,3056,14192,-1504,-85,120
605.25,1028,3180,13536,-2071,-592,223
605.26,1240,2816,13872,-2213,-697,279
605.27,1368,2912,14044,-1278,-311,177
605.28,1388,3172,14328,-927,-224,100
605.29,1252,3180,14528,-1408,-144,104
605.3,1152,3228,14468,-1892,-143,140
605.31,1192,3104,14308,-1978,-98,151
605.32,1216,3016,14048,-1962,-53,169
605.33,1300,2964,13912,-1938,-147,115
605.34,1256,2828,14020,-1905,-139,94
605.35,1332,2868,14100,-1914,-215,120
605.36,1412,2584,13704,-1746,-278,129
605.37,1448,2600,14096,-1479,-272,102
605.38,1444,2632,14348,-1180,-212,116
605.39,1500,2584,14376,-1132,-117,54
605.4,1476,2608,14172,-1174,-39,39
605.41,1292,2604,14380,-1165,-11,45
605.42,1516,2592,14140,-1281,-10,5
605.43,1432,2664,14252,-1441,-60,30
605.44,1300,2508,14160,-1585,-129,53
605.45,1444,2504,14096,-1704,-156,23
605.46,1400,2516,14208,-1674,-199,53
605.47,1504,2504,14128,-1662,-95,20
605.48,1392,2456,14260,-1676,-134,31
605.49,1356,2388,14160,-1551,-130,43
605.5,1440,2440,14164,-1383,-72,24
605.51,1364,2336,14300,-1270,-51,37
605.52,1400,2364,14152,-1351,-104,-13
605.53,1496,2244,14304,-1001,161,1
605.54,1364,2292,14180,-1199,-19,28
605.55,1496,2188,14076,-1494,-152,56
605.56,1488,2088,14156,-1349,-172,37
605.57,1456,2132,14280,-1004,-201,-3
605.58,1472,2236,14324,-1013,-137,-10
605.59,1428,2116,14304,-1212,-158,-16
605.6,1572,2112,14264,-1318,-181,22
605.61,1484,2088,14240,-1466,-199,22
605.62,1524,2024,14312,-1487,-221,5
605.63,1504,2084,14336,-1415,-186,-23
605.64,1532,2020,14216,-1371,-173,-10
605.65,1544,2020,14192,-1300,-152,-43
605.66,1540,1860,14068,-1312,-159,-38
605.67,1568,1888,14196,-1298,-158,8
605.68,1600,1816,14112,-1219,-105,12
605.69,1672,1856,14292,-1139,-76,0
605.7,1560,1796,14368,-1028,-99,-11
605.71,1544,1796,14252,-877,-138,10
605.72,1496,1880,14220,-830,-130,50
605.73,1656,1692,14056,-800,-91,19
605.74,1700,1776,14184,-580,-16,42
605.75,1664,1752,14396,-536,20,28
605.76,1664,1752,14128,-435,-8,24
605.77,1716,1792,14260,-487,43,34
605.78,1692,1836,14188,-396,90,38
605.79,1652,1676,14248,-305,111,55
605.8,1756,1824,14356,-173,224,43
605.81,1592,1744,14112,-81,174,24
605.82,1584,1820,14112,55,212,29
605.83,1656,1652,14280,235,263,39
605.84,1664,1700,14200,393,269,11
605.85,1644,1672,14056,482,286,30
605.86,1468,1744,14176,635,310,15
605.87,1484,1688,14144,713,321,44
605.88,1676,1808,14212,813,388,-23
605.89,1520,1840,14100,868,400,0
605.9,1544,1848,14272,970,474,-53
605.91,1556,1924,14368,1097,526,-62
605.92,1532,1908,14180,1097,521,-30
605.93,1568,1868,14268,1077,464,-45
605.94,1676,1904,14168,1137,477,-63
605.95,1600,1984,14212,1132,524,-60
605.96,1556,2072,14244,1212,573,-92
605.97,1604,2088,14176,1121,494,-49
605.98,1612,2108,14220,1116,511,-56
605.99,1604,2168,14164,1150,468,-43
606.0,1564,2152,14196,1017,388,-16
606.01,1572,2092,14084,1050,328,-11
606.02,1528,2188,14064,1136,358,-1
606.03,1660,2252,14320,1400,570,-41
606.04,1552,2368,14556,1622,680,-94
606.05,1488,2364,14368,1451,624,-64
606.06,1432,2428,14220,1172,530,-76
606.07,1528,2384,14144,1009,443,-9
606.08,1476,2352,14008,1092,374,-10
606.09,1468,2352,14460,1202,469,-63
606.1,1380,2512,14004,714,607,33
606.11,1508,2480,13700,-126,271,75
606.12,1696,2308,14612,1272,828,-111
606.13,1468,2648,14464,2056,662,-170
606.14,1440,2636,13944,770,87,-2
606.15,1628,2464,14376,1211,575,-101
606.16,1384,2504,14036,1415,497,-46
606.17,1404,2508,13624,385,-90,150
606.18,1572,2344,13936,951,336,52
606.19,1572,2572,14332,1679,397,-40
606.2,1500,2896,14600,1567,521,-59
606.21,1472,2912,14600,1146,629,-32
606.22,1368,3000,14304,788,674,-12
606.23,1312,2920,14240,549,619,3
606.24,1288,2808,14080,503,563,6
606.25,1356,2824,14212,529,453,-50
606.26,1480,2980,13980,525,465,-20
606.27,1376,2800,13760,680,499,-42
606.28,1496,2848,13792,804,464,-32
606.29,1388,2736,14116,1085,504,-49
606.3,1564,2920,14216,1312,545,-90
606.31,1408,2788,14204,1231,617,-64
606.32,1432,2992,14232,1158,636,-99
606.33,1432,2988,14132,1042,604,-91
606.34,1344,3036,14224,848,540,-78
606.35,1276,3184,14112,835,507,-42
606.36,1372,3088,14048,791,424,-25
606.37,1344,3148,13956,789,383,-15
606.38,1392,3144,14052,781,437,-65
606.39,1280,3112,13996,795,479,-55
606.4,1396,3208,14148,904,525,-25
606.41,1408,3272,14148,917,607,-87
606.42,1248,3320,14200,1036,551,-81
606.43,1340,3252,14128,1086,632,-99
606.44,1344,3328,14268,1136,626,-125
606.45,1268,3264,14184,1219,833,-121
606.46,1132,3440,13936,852,478,-38
606.47,1324,3312,13908,576,480,-47
606.48,1236,3328,13872,766,353,-76
606.49,1096,3352,14192,1235,445,-103
606.5,1324,3468,14096,1271,344,-74
606.51,1204,3408,14108,905,339,-18
606.52,1236,3444,14084,895,377,-37
606.53,1204,3464,14184,997,351,-49
606.54,1164,3552,14036,913,382,-57
606.55,1304,3596,13940,923,420,-86
606.56,1296,3628,13948,922,445,-92
606.57,1216,3596,13992,934,472,-117
606.58,1216,3620,14012,851,468,-88
606.59,1196,3600,14112,824,492,-98
606.6,1140,3528,13988,726,431,-79
606.61,1240,3648,13904,790,375,-85
606.62,1172,3632,14020,760,435,-104
606.63,1100,3540,14012,766,399,-88
606.64,1224,3740,13912,642,388,-35
606.65,1164,3628,13844,667,374,-29
606.66,1264,3732,14012,719,418,-73
606.67,1164,3752,13920,744,414,-68
606.68,1184,3816,14024,717,443,-54
606.69,1120,3752,13932,683,400,-70
606.7,992,3868,14020,634,408,-41
606.71,1080,3876,13752,517,419,-29
606.72,1160,3848,13880,574,413,-35
606.73,1084,3888,13936,543,412,-52
606.74,1100,3820,13864,592,384,-36
606.75,1200,3968,14068,562,397,-36
606.76,1080,3992,13988,601,383,-46
606.77,1164,3916,13884,592,404,-43
606.78,1072,3956,13980,562,376,-35
606.79,1188,3920,13880,555,404,-44
606.8,1124,3896,14032,546,350,-44
606.81,1200,3988,13924,548,392,-17
606.82,1136,3972,13916,543,342,-34
606.83,1068,4028,13916,507,348,-70
606.84,984,4024,13988,501,423,-69
606.85,1012,4028,13924,504,384,-66
606.86,1076,4120,14016,485,378,-39
606.87,1080,4156,13964,476,346,-49
606.88,1076,4168,14008,439,378,-84
606.89,1044,4120,13980,413,354,-28
606.9,1072,4148,13912,429,335,-39
606.91,1112,4208,13872,374,328,-36
606.92,1024,4068,14004,373,303,-33
606.93,1088,4176,14016,286,358,-56
606.94,1076,4180,13848,316,344,-52
606.95,1040,4132,13928,264,334,-34
606.96,1060,4188,13816,269,357,-54
606.97,996,4140,13892,241,342,-33
606.98,1100,4244,13952,279,307,-35
606.99,984,4208,13900,270,382,-64
607.0,1120,4276,14004,300,387,-24
607.01,1008,4300,13856,223,358,-28
607.02,1056,4124,13960,154,336,10
607.03,1072,4364,13888,57,265,-17
607.04,1028,4184,13728,-51,271,-4
607.05,1076,4184,13880,-9,356,-21
607.06,1132,4400,14112,308,396,-36
607.07,1072,4308,14108,240,421,-44
607.08,1020,4352,13964,87,356,-63
607.09,964,4236,13716,-103,279,-42
607.1,904,4328,13700,-97,255,-8
607.11,1052,4328,13964,-4,213,-15
607.12,900,4312,13796,-247,290,70
607.13,988,4232,13304,-917,104,135
607.14,1024,4240,14232,-128,424,-11
607.15,1052,4472,14384,497,478,-123
607.16,936,4308,13800,-257,36,19
607.17,936,4220,13852,-242,95,40
607.18,1016,4376,13692,-392,181,58
607.19,876,4092,13456,-862,-144,146
607.2,1156,4140,13644,-404,10,103
607.21,1116,4388,14036,-265,-27,37
607.22,904,4340,14220,-269,-110,62
607.23,988,4360,14236,-544,-119,91
607.24,924,4240,14008,-693,-23,137
607.25,992,4264,14000,-599,69,118
607.26,1024,4296,13484,-423,55,89
607.27,1088,4260,13884,-231,200,38
607.28,1120,4272,13780,-300,268,19
607.29,1056,4152,13792,-361,320,21
607.3,992,4332,13736,-252,262,17
607.31,1052,4148,13920,-148,224,21
607.32,1092,4204,14160,-115,263,7
607.33,1100,4304,14060,-263,220,21
607.34,1156,4176,14044,-385,184,21
607.35,1080,4236,13988,-590,159,29
607.36,996,4120,13868,-741,155,55
607.37,1068,4168,14060,-800,172,61
607.38,1012,4164,14016,-865,139,54
607.39,976,4156,13976,-996,144,100
607.4,1068,4036,13864,-1033,124,62
607.41,1048,4172,14048,-1053,166,80
607.42,1012,4064,13980,-1055,145,72
607.43,1120,4044,14064,-1010,118,68
607.44,1104,4152,13912,-929,130,87
607.45,1072,4096,14092,-992,129,87
607.46,1060,4024,13932,-1000,81,48
607.47,988,4116,13780,-1000,62,66
607.48,1068,3880,14348,-841,359,8
607.49,972,4008,13844,-1044,266,80
607.5,952,3928,13600,-1699,-29,124
607.51,1092,3860,13936,-1284,97,67
607.52,1144,3872,13940,-867,18,59
607.53,1172,3940,13836,-1075,-69,94
607.54,1228,3780,13968,-1282,-78,101
607.55,1032,3888,13908,-1356,-63,165
607.56,1092,3820,14104,-1393,-72,143
607.57,1136,3776,14148,-1362,-61,128
607.58,1260,3832,14040,-1391,-70,109
607.59,1232,3716,14032,-1503,-9,116
607.6,1164,3628,14000,-1594,-115,144
607.61,1148,3704,14068,-1573,-99,149
607.62,1200,3588,14044,-1537,-98,149
607.63,1180,3624,14080,-1664,-130,173
607.64,1232,3520,14120,-1784,-163,175
607.65,1092,3476,14132,-1691,-150,156
607.66,1132,3416,14032,-1612,-205,154
607.67,1196,3448,14044,-1692,-225,163
607.68,1208,3320,13980,-1788,-219,143
607.69,1312,3336,14028,-1717,-224,180
607.7,1132,3300,14140,-1519,-150,102
607.71,1140,3216,13936,-1564,-162,122
607.72,1272,3204,13976,-1549,-182,132
607.73,1304,3252,14172,-1523,-152,93
607.74,1240,3104,14020,-1514,-138,103
607.75,1300,3192,14108,-1504,-127,109
607.76,1200,3172,14016,-1492,-148,114
607.77,1308,3052,14080,-1496,-134,91
607.78,1268,3012,14188,-1435,-166,107
607.79,1228,3108,14156,-1377,-118,102
607.8,1252,3100,14060,-1388,-151,70
607.81,1316,3108,14056,-1394,-182,93
607.82,1396,2932,14228,-1446,-105,91
607.83,1340,2888,14132,-1431,-141,93
607.84,1312,2916,14260,-1441,-171,74
607.85,1400,2848,14284,-1406,-128,45
607.86,1332,2880,14116,-1288,-144,52
607.87,1416,2776,14032,-1303,-64,58
607.88,1256,2756,14188,-1336,-104,65
607.89,1452,2800,14300,-1293,-99,19
607.9,1496,2736,14164,-1326,-118,32
607.91,1320,2748,14068,-1352,-179,33
607.92,1548,2600,14032,-1392,-158,61
607.93,1488,2616,14080,-1282,-111,41
607.94,1404,2620,14224,-1294,-118,57
607.95,1412,2520,14176,-1274,-111,23
607.96,1376,2516,14204,-1287,-33,28
607.97,1312,2588,14188,-1356,-80,40
607.98,1508,2564,14224,-1370,-93,34
607.99,1404,2400,14304,-1395,-121,37
608.0,1412,2304,14212,-1401,-134,56
608.01,1384,2436,14252,-1312,-103,7
608.02,1492,2416,14248,-1288,-96,18
608.03,1428,2456,14088,-1409,-97,36
608.04,1496,2192,14236,-1468,-182,42
608.05,1544,2404,14308,-1405,-110,44
608.06,1532,2388,14140,-1345,-89,27
608.07,1496,2356,14180,-1432,-78,21
608.08,1548,2212,14212,-1307,-139,27
608.09,1636,2204,14180,-1342,-106,53
608.1,1664,2244,14124,-1322,-74,28
608.11,1540,2164,14264,-1304,-31,8
608.12,1488,2088,14236,-1233,-49,1
608.13,1620,2092,14296,-1182,-23,-18
608.14,1484,2164,14232,-1147,-95,-19
608.15,1620,2020,14012,-1270,-139,16
608.16,1644,2008,14188,-1329,-243,46
608.17,1600,2012,14152,-1267,-202,72
608.18,1632,1872,14308,-1028,-30,17
608.19,1640,2020,14416,-794,-19,1
608.2,1680,2000,14392,-677,-4,14
608.21,1568,2040,14180,-775,-20,18
608.22,1540,1896,14060,-816,-117,41
608.23,1640,1824,14244,-627,-123,38
608.24,1684,1856,14304,-413,47,9
608.25,1572,1876,14416,-376,158,29
608.26,1528,2092,13732,-1049,100,79
608.27,1612,1736,13808,-1393,-201,125
608.28,1876,1576,14744,-22,336,-16
608.29,1444,2100,14104,443,-77,-22
608.3,1600,1776,13704,-653,-454,122
608.31,1784,1780,14404,616,510,-54
608.32,1532,1956,13692,-106,-87,75
608.33,1736,1672,13644,-206,-137,142
608.34,1652,1892,14264,640,487,19
608.35,1680,1996,14704,949,480,-42
608.36,1656,2004,14512,993,393,-44
608.37,1596,2124,14444,573,422,10
608.38,1516,2140,14464,357,485,45
608.39,1440,2096,14288,298,421,55
608.4,1628,2064,14248,212,411,16
608.41,1576,2048,14020,372,376,4
608.42,1592,1964,14100,469,361,10
608.43,1672,2044,13992,645,363,67
608.44,1728,1912,14216,1056,280,19
608.45,1604,1896,14148,1189,338,-9
608.46,1696,1940,14296,1437,396,-23
608.47,1724,2120,14472,1484,528,-61
608.48,1640,2148,14252,1280,538,-57
608.49,1660,2304,14228,1124,593,-60
608.5,1672,2208,14148,949,452,-53
608.51,1588,2088,14104,914,450,-31
608.52,1596,2304,14176,877,411,-35
608.53,1572,2284,14060,926,443,-52
608.54,1536,2368,14224,948,463,-50
608.55,1704,2376,14108,895,435,10
608.56,1628,2440,14132,975,473,-30
608.57,1428,2500,14080,1130,417,-17
608.58,1560,2372,14368,1320,456,-29
608.59,1520,2580,14204,1344,406,-62
608.6,1572,2504,14460,1382,733,-102
608.61,1396,2608,14112,1192,615,-28
608.62,1468,2516,13936,509,457,-10
608.63,1536,2544,14216,843,574,-65
608.64,1484,2576,14168,1079,452,-100
608.65,1512,2636,14152,899,366,-50
608.66,1552,2632,14160,1024,440,-88
608.67,1560,2700,14224,1083,394,-66
608.68,1564,2704,14264,927,372,-21
608.69,1420,2700,14176,820,379,-29
608.7,1528,2760,14072,838,386,-70
608.71,1540,2764,14072,980,434,-62
608.72,1516,2788,14220,1154,495,-95
608.73,1556,2796,14208,1258,563,-135
608.74,1496,2852,14160,1186,552,-86
608.75,1444,2848,14144,1035,562,-113
608.76,1380,2848,14108,982,530,-88
608.77,1416,2868,14104,1008,509,-64
608.78,1464,2920,14152,1019,472,-90
608.79,1580,3064,14128,932,420,-73
608.8,1560,2992,14008,956,508,-80
608.81,1384,2988,14084,1042,520,-66
608.82,1408,3060,14104,1025,536,-85
608.83,1436,3156,13996,848,493,-17
608.84,1304,3052,14140,847,538,-73
608.85,1352,3184,14132,849,461,-61
608.86,1484,3112,14088,739,486,-59
608.87,1448,3128,14108,759,437,-8
608.88,1296,3204,14028,758,469,-40
608.89,1392,3220,14080,774,449,-29
608.9,1324,3200,14216,764,439,-51
608.91,1288,3296,14048,809,504,-72
608.92,1316,3284,14148,830,465,-87
608.93,1420,3272,14148,781,485,-78
608.94,1328,3340,13972,802,422,-69
608.95,1328,3328,13960,747,416,-63
608.96,1368,3256,14100,789,446,-59
608.97,1384,3312,14176,847,463,-85
608.98,1236,3396,13936,809,452,-105
608.99,1276,3436,13924,829,437,-57
609.0,1416,3368,14032,870,454,-70
609.01,1328,3400,14064,908,413,-51
609.02,1296,3460,14052,880,501,-73
609.03,1248,3516,14040,808,407,-68
609.04,1300,3512,13968,817,431,-47
609.05,1196,3572,14024,867,406,-80
609.06,1164,3568,13964,826,368,-65
609.07,1176,3612,14024,843,419,-107
609.08,1332,3652,13924,833,405,-61
609.09,1248,3644,14064,773,398,-65
609.1,1164,3692,13860,811,405,-55
609.11,1288,3680,13912,738,444,-80
609.12,1196,3740,13912,771,446,-82
609.13,1316,3836,13904,778,399,-89
609.14,1244,3684,14032,721,420,-75
609.15,1268,3820,13952,719,422,-82
609.16,1216,3700,13784,741,414,-54
609.17,1140,3832,14052,663,418,-77
609.18,1232,3876,14080,753,413,-78
609.19,1184,3804,13932,755,451,-88
609.2,1196,3896,13960,632,446,-61
609.21,1204,3812,13800,413,412,-75
609.22,1300,3788,13868,384,305,-49
609.23,1108,3828,13864,416,295,-15
609.24,1288,3960,13980,649,434,-66
609.25,1280,4000,14220,760,507,-87
609.26,1152,3868,13960,510,484,-57
609.27,1172,4004,13824,280,373,-48
609.28,1216,3948,13908,332,318,-94
609.29,1144,4056,13960,394,309,-53
609.3,1080,4008,13764,-21,417,19
609.31,1140,3916,13544,-569,159,98
609.32,1332,4048,14568,767,664,-139
609.33,1172,4272,14264,1072,527,-132
609.34,1108,4224,13916,160,69,-18
609.35,1224,4000,14040,255,286,-11
609.36,988,4056,13600,-137,149,51
609.37,1116,3856,13380,-630,-41,151
609.38,1252,3864,13724,-28,163,74
609.39,1212,4040,14080,181,92,35
609.4,1288,4120,14332,242,-37,15
609.41,1160,4160,14088,51,-44,57
609.42,1128,4188,14124,-132,56,43
609.43,1132,4088,13876,-86,202,70
609.44,1124,4052,13892,18,272,3
609.45,1124,4192,13976,142,375,-46
609.46,1232,4120,13876,150,415,-69
609.47,1172,4012,13884,154,395,-50
609.48,1104,3984,13784,217,350,-36
609.49,1140,4036,13960,388,285,-43
609.5,1236,4036,13852,441,257,-25
609.51,1260,4120,14008,358,264,-44
609.52,1200,4116,14008,293,265,-35
609.53,1200,4148,13864,182,257,-29
609.54,1124,4080,13996,131,313,-18
609.55,1080,4200,13840,48,307,-33
609.56,1180,4076,13880,10,268,-28
609.57,1124,4132,13996,-55,284,-17
609.58,1104,4148,13768,-61,269,11
609.59,1152,4236,13820,-58,260,-26
609.6,1112,4220,13900,-1,296,-24
609.61,1272,4284,13784,35,283,-21
609.62,1212,4124,13948,103,281,-10
609.63,1056,4236,13884,118,302,-34
609.64,1020,4140,13936,156,348,-35
609.65,1092,4256,13808,113,232,-40
609.66,1096,4284,14160,261,455,-85
609.67,976,4204,13888,133,458,-53
609.68,1096,4172,13404,-504,155,55
609.69,1192,4100,13888,-23,419,-45
609.7,1104,4160,14020,270,340,-81
609.71,1084,4204,13936,53,255,-36
609.72,1220,4248,13824,-118,206,-10
609.73,1080,4296,13952,-258,179,20
609.74,1044,4196,13956,-212,157,4
609.75,1064,4220,13828,-186,148,-1
609.76,1172,4260,13812,-230,225,5
609.77,1144,4208,13904,-200,195,-26
609.78,1100,4192,13844,-232,179,-4
609.79,1112,4228,13900,-273,159,9
609.8,1144,4220,13844,-318,145,-3
609.81,1124,4196,13872,-410,141,47
609.82,1048,4184,13908,-393,147,36
609.83,1148,4224,13992,-446,131,9
609.84,1148,4180,13824,-541,146,50
609.85,1068,4064,13928,-775,104,29
609.86,1208,4124,14000,-876,124,66
609.87,1100,4244,13960,-962,96,65
609.88,1144,4124,13836,-1016,26,88
609.89,1080,3996,13876,-1120,0,114
609.9,1152,4056,13888,-1199,-44,104
609.91,1208,4000,13908,-1228,-56,130
609.92,1128,3928,14024,-1195,-5,134
609.93,1196,4012,13832,-1189,32,134
609.94,1092,3984,14028,-1152,71,95
609.95,1052,3984,14004,-1218,29,101
609.96,1056,4032,13980,-1371,69,107
609.97,1144,3896,14060,-1352,29,91
609.98,1144,3884,13948,-1381,11,167
609.99,1188,3796,13908,-1542,-24,175
610.0,1140,3808,13888,-1564,-17,162
610.01,1124,3720,13968,-1541,-40,168
610.02,1148,3724,14144,-1696,-54,155
610.03,1192,3664,13960,-1746,-66,137
610.04,1212,3548,13860,-1702,-84,125
610.05,1236,3644,14184,-1689,-77,147
610.06,1308,3660,13960,-1631,-57,138
610.07,1160,3624,14032,-1493,-73,133
610.08,1268,3560,13936,-1474,-102,132
610.09,1180,3544,14140,-1588,-116,132
610.1,1184,3404,13988,-1588,-68,143
610.11,1252,3492,14032,-1575,-110,129
610.12,1324,3388,14016,-1544,-156,140
610.13,1344,3476,14108,-1513,-82,124
610.14,1228,3332,14232,-1494,-104,133
610.15,1272,3308,13980,-1500,-170,128
610.16,1168,3324,14100,-1512,-116,126
610.17,1324,3268,14292,-1594,-151,157
610.18,1288,3288,14132,-1638,-165,145
610.19,1324,3232,14100,-1543,-184,145
610.2,1340,3208,14108,-1458,-75,142
610.21,1404,3108,14192,-1665,-160,114
610.22,1428,3108,14100,-1706,-158,135
610.23,1432,3048,14120,-1806,-139,103
610.24,1428,3008,14160,-1814,-117,99
610.25,1264,2964,14152,-1787,-240,114
610.26,1372,2864,14148,-1780,-204,103
610.27,1460,2856,14104,-1681,-245,106
610.28,1536,2808,14268,-1498,-175,50
610.29,1376,2824,14116,-1399,-99,67
610.3,1396,2744,14112,-1384,-104,74
610.31,1344,2772,14096,-1255,-80,68
610.32,1408,2760,14172,-1311,-105,60
610.33,1408,2724,14312,-1382,-55,52
610.34,1364,2704,14116,-1308,-105,47
610.35,1560,2744,14196,-1355,-147,49
610.36,1376,2592,14084,-1501,-159,48
610.37,1416,2612,14104,-1521,-211,73
610.38,1564,2624,14220,-1236,-68,45
610.39,1572,2536,14444,-898,76,20
610.4,1548,2548,14392,-1042,20,12
610.41,1436,2664,14248,-1217,-16,47
610.42,1404,2420,14100,-1332,-127,69
610.43,1416,2420,13880,-1377,-238,84
610.44,1628,2360,14208,-1134,-102,74
610.45,1432,2528,14560,-1004,115,57
610.46,1396,2560,13956,-1672,137,75
610.47,1568,2272,13780,-2301,-261,107
610.48,1724,2144,15012,-960,198,-75
610.49,1500,2304,14088,-462,-289,13
610.5,1468,2304,13688,-1737,-731,105
610.51,1656,2132,14412,-858,131,7
610.52,1356,2128,13876,-1522,-469,134
610.53,1668,1976,13852,-1829,-459,148
610.54,1836,2064,14336,-974,103,28
610.55,1572,2244,14564,-714,102,-14
610.56,1696,2392,14640,-952,18,19
610.57,1544,2284,14464,-1335,-66,51
610.58,1516,2112,14336,-1621,-25,59
610.59,1572,2096,14356,-1778,-111,92
610.6,1560,2068,14104,-1650,-163,41
610.61,1572,1964,13980,-1511,-79,62
610.62,1652,1916,14008,-1369,-86,87
610.63,1636,1760,14072,-1109,-92,47
610.64,1728,1756,14108,-665,-62,59
610.65,1604,1800,14148,-286,-11,61
610.66,1832,1880,14200,-71,49,3
610.67,1672,1820,14492,-3,76,6
610.68,1724,1892,14308,-82,139,17
610.69,1656,1964,14200,-59,185,-7
610.7,1756,1864,14224,-92,216,29
610.71,1644,1928,14088,9,225,-1
610.72,1724,1876,14248,56,229,13
610.73,1712,2008,14084,124,225,33
610.74,1668,1964,14024,123,200,16
610.75,1732,2036,14132,313,252,-5
610.76,1676,1928,14160,468,238,9
610.77,1656,1892,14112,639,300,-2
610.78,1504,1972,14160,888,418,-28
610.79,1632,2056,14324,1035,464,-51
610.8,1552,2024,14292,933,378,-33
610.81,1612,2088,14384,1263,677,-104
610.82,1544,2080,14024,811,378,-22
610.83,1780,2020,14084,672,368,6
610.84,1664,2076,14132,1128,424,-55
610.85,1628,2080,14120,1086,242,-51
610.86,1632,2040,14288,1296,367,-74
610.87,1640,2248,14028,1427,398,-72
610.88,1620,2248,14212,1271,381,-73
610.89,1668,2256,14196,1124,362,-26
610.9,1700,2344,14284,1030,377,-60
610.91,1668,2340,14268,1217,400,-76
610.92,1692,2556,14080,1261,411,-95
610.93,1612,2420,14152,1361,483,-79
610.94,1612,2464,14212,1335,422,-80
610.95,1660,2360,14172,1267,461,-44
610.96,1576,2416,14184,1256,480,-73
610.97,1600,2516,14176,1336,439,-43
610.98,1600,2552,14288,1350,358,-51
610.99,1584,2520,14200,1317,417,-60
611.0,1688,2636,13988,1300,471,-75
611.01,1488,2608,14308,1394,601,-99
611.02,1560,2732,14100,1378,605,-113
611.03,1472,2728,14152,1223,458,-53
611.04,1592,2736,14040,1165,454,-37
611.05,1556,2868,13960,1027,491,-40
611.06,1560,2804,13984,1049,475,-71
611.07,1528,2932,14136,1049,493,-60
611.08,1504,2928,14100,980,450,-26
611.09,1476,2928,14192,1042,421,-32
611.1,1540,2936,14204,1037,416,-25
611.11,1420,2900,14200,1032,451,-80
611.12,1508,2928,14208,1046,454,-57
611.13,1376,3012,14108,1019,520,-58
611.14,1504,2988,14148,977,484,-68
611.15,1572,3044,14080,948,491,-84
611.16,1548,3068,14104,922,475,-79
611.17,1508,3040,14104,947,505,-80
611.18,1488,3080,14112,928,510,-86
611.19,1496,3060,14052,881,522,-101
611.2,1448,3188,14092,820,465,-65
611.21,1460,3200,13964,815,427,-87
611.22,1488,3268,14140,834,454,-79
611.23,1408,3276,13944,884,428,-80
611.24,1464,3316,14116,839,411,-60
611.25,1444,3340,14068,860,413,-46
611.26,1348,3244,14044,867,403,-48
611.27,1352,3320,14144,996,395,-63
611.28,1352,3288,14060,938,446,-67
611.29,1356,3352,14104,931,427,-75
611.3,1536,3352,14112,918,466,-74
611.31,1432,3388,14072,957,437,-70
611.32,1376,3416,14184,934,451,-69
611.33,1444,3468,14056,894,495,-72
611.34,1372,3536,13932,879,472,-56
611.35,1372,3548,14136,859,453,-53
611.36,1380,3548,14092,845,460,-134
611.37,1340,3584,14160,894,496,-74
611.38,1336,3568,14040,846,457,-75
611.39,1348,3628,13924,773,423,-45
611.4,1312,3656,13896,622,355,-11
611.41,1376,3520,13692,560,292,-22
611.42,1364,3532,13920,729,325,-36
611.43,1404,3664,14240,1014,494,-131
611.44,1236,3792,14100,1104,463,-111
611.45,1260,3796,14064,847,445,-103
611.46,1252,3864,14024,601,449,-51
611.47,1360,3608,13876,507,335,-79
611.48,1336,3844,14076,645,334,-76
611.49,1284,3868,14032,485,405,3
611.5,1240,3808,13516,-369,260,60
611.51,1480,3784,14308,722,662,-162
611.52,1332,4064,14220,1160,460,-165
611.53,1276,3768,13896,190,-16,10
611.54,1400,3796,14068,406,416,-44
611.55,1192,3948,13584,-210,47,72
611.56,1408,3632,13548,-370,56,124
611.57,1336,3672,13704,209,261,12
611.58,1352,3804,14140,524,84,-15
611.59,1424,3900,14128,518,-5,-33
611.6,1260,4064,14300,217,-59,30
611.61,1200,3952,14124,72,81,65
611.62,1340,4028,14000,248,116,48
611.63,1284,3940,13796,365,249,-24
611.64,1324,3944,13864,337,412,-55
611.65,1332,3980,14032,263,439,-76
611.66,1304,3944,13804,365,308,-31
611.67,1356,3964,13784,425,270,-30
611.68,1384,3872,13880,520,255,-30
611.69,1328,3896,13992,534,303,-50
611.7,1376,3920,14124,474,239,-11
611.71,1368,3964,14060,355,321,-70
611.72,1232,3964,13916,256,313,-21
611.73,1180,4020,13976,222,302,-25
611.74,1292,4080,13928,204,329,-23
611.75,1252,4040,13928,168,266,-3
611.76,1320,4024,13876,111,289,-27
611.77,1224,3976,13952,132,312,-37
611.78,1216,3984,13860,173,324,-41
611.79,1224,4028,13908,171,346,-66
611.8,1288,4056,13836,231,377,-29
611.81,1244,4060,13920,273,336,-43
611.82,1224,4120,13964,336,378,-65
611.83,1204,4232,13912,277,263,-49
611.84,1368,4128,14212,353,440,-66
611.85,1196,4072,13884,451,544,-66
611.86,1120,4144,13548,-216,233,15
611.87,1300,4028,13812,-89,425,-15
611.88,1292,4136,13788,447,423,-113
611.89,1288,4244,13916,344,325,-80
611.9,1132,4052,13940,108,254,-15
611.91,1332,4188,13904,-53,234,-14
611.92,1168,4236,14040,-68,206,5
611.93,1236,4180,13776,-51,175,33
611.94,1248,4188,13992,-62,195,-15
611.95,1308,4148,13840,-56,208,-23
611.96,1216,4248,13988,2,243,0
611.97,1208,4224,13872,-53,247,-26
611.98,1276,4172,13908,-140,250,-9
611.99,1288,4228,13768,-176,226,5
612.0,1276,4112,13708,-175,210,1
612.01,1280,4096,14056,-134,176,-13
612.02,1224,4096,14016,-65,204,-32
612.03,1168,4140,13868,-206,147,14
612.04,1276,4260,13980,-273,193,14
612.05,1232,4044,13872,-278,202,12
612.06,1192,4144,13936,-261,235,15
612.07,1180,4200,13828,-266,192,20
612.08,1372,4224,13840,-329,191,39
612.09,1396,4240,13772,-331,194,12
612.1,1208,4276,13880,-390,164,25
612.11,1356,4232,13908,-386,193,33
612.12,1240,4156,13856,-311,211,-1
612.13,1172,4156,13832,-331,200,35
612.14,1256,4176,13872,-355,204,22
612.15,1200,4196,13864,-371,196,30
612.16,1188,4096,13872,-358,192,28
612.17,1224,4136,13916,-397,224,23
612.18,1184,4136,13920,-461,178,46
612.19,1276,4108,13816,-563,142,61
612.2,1240,4056,13816,-569,158,63
612.21,1256,4056,13912,-559,117,75
612.22,1332,3960,13884,-559,143,61
612.23,1288,4060,14008,-553,217,34
612.24,1224,4116,14028,-632,218,39
612.25,1272,4104,13956,-741,227,62
612.26,1240,3984,13808,-887,119,41
612.27,1308,4020,14048,-906,126,77
612.28,1196,4064,13928,-952,126,54
612.29,1308,3968,13900,-1030,119,79
612.3,1316,3972,13884,-1107,82,110
612.31,1304,3944,13920,-1151,42,113
612.32,1180,3860,13980,-1184,61,114
612.33,1268,3848,13944,-1128,58,97
612.34,1344,3836,13900,-1197,26,93
612.35,1324,3852,14016,-1276,58,125
612.36,1276,3772,13932,-1305,54,133
612.37,1204,3748,14000,-1293,91,121
612.38,1288,3720,13888,-1422,93,120
612.39,1376,3740,13980,-1387,47,115
612.4,1352,3724,14124,-1347,95,141
612.41,1300,3684,13948,-1429,69,124
612.42,1380,3632,14004,-1640,35,164
612.43,1408,3604,13980,-1697,-37,149
612.44,1292,3572,13912,-1705,-57,137
612.45,1296,3536,14040,-1640,-47,151
612.46,1320,3548,14088,-1612,-61,174
612.47,1356,3448,14208,-1587,-116,161
612.48,1312,3536,14016,-1622,-108,185
612.49,1304,3472,14112,-1694,-76,186
612.5,1500,3400,13916,-1649,-54,154
612.51,1424,3356,14164,-1589,-20,124
612.52,1432,3368,14048,-1617,19,148
612.53,1392,3300,14016,-1583,-14,130
612.54,1280,3252,13980,-1694,-46,111
612.55,1380,3228,13884,-1838,-179,139
612.56,1384,3048,13980,-1906,-215,127
612.57,1376,3056,14040,-1773,-187,151
612.58,1476,2988,14232,-1505,-91,108
612.59,1424,3072,14292,-1156,50,67
612.6,1368,3112,14316,-1171,6,46
612.61,1368,3100,14132,-1366,-85,98
612.62,1440,2972,14016,-1476,-182,147
612.63,1392,2876,13992,-1492,-221,161
612.64,1436,2780,13776,-2396,-248,155
612.65,1648,2736,14636,-1327,109,-3
612.66,1456,2888,14144,-664,-291,43
612.67,1608,2700,13964,-1571,-220,98
612.68,1428,2624,13844,-1209,-216,81
612.69,1476,2604,13428,-1990,-634,235
612.7,1648,2560,13864,-1502,-148,100
612.71,1712,2596,14432,-575,4,24
612.72,1628,2712,14756,-673,-34,15
612.73,1476,2716,14608,-946,-51,59
612.74,1524,2796,14420,-1379,-56,110
612.75,1428,2740,14428,-1630,-41,120
612.76,1416,2632,13996,-1688,-33,129
612.77,1592,2596,13988,-1589,-94,125
612.78,1552,2440,14020,-1576,-90,95
612.79,1600,2344,13980,-1549,-115,88
612.8,1648,2388,13920,-1277,-157,117
612.81,1696,2268,13868,-1123,-164,91
612.82,1832,2248,14196,-804,-76,64
612.83,1584,2300,14300,-627,-81,43
612.84,1604,2272,14420,-670,20,32
612.85,1660,2256,14332,-747,37,44
612.86,1580,2316,14260,-865,37,34
612.87,1544,2352,14208,-844,22,35
612.88,1728,2256,14184,-963,-10,19
612.89,1644,2180,14136,-1130,-4,56
612.9,1724,2188,14220,-997,-11,50
612.91,1608,2292,14364,-928,-29,10
612.92,1644,2284,14172,-884,-1,41
612.93,1648,2196,14120,-810,37,34
612.94,1628,2216,14108,-634,129,30
612.95,1636,2144,14212,-418,153,22
612.96,1604,2196,14380,-314,151,45
612.97,1704,2192,14220,-360,99,13
612.98,1768,2120,14248,-60,341,-39
612.99,1568,2180,14160,-254,205,19
613.0,1756,2276,14004,-538,126,54
613.01,1700,2084,14156,-21,167,25
613.02,1800,2108,14144,25,1,18
613.03,1752,2144,14212,102,141,-19
613.04,1732,2132,14240,139,225,3
613.05,1664,2172,14272,308,280,-29
613.06,1752,2220,14092,243,178,0
613.07,1720,2160,14172,200,187,-9
613.08,1704,2176,13972,503,212,-53
613.09,1640,2152,14140,560,273,-48
613.1,1672,2256,14156,740,358,-68
613.11,1764,2192,14204,786,375,-84
613.12,1732,2232,14320,714,452,-63
613.13,1672,2220,14164,586,423,-40
613.14,1728,2276,14248,548,401,-77
613.15,1676,2232,14180,758,374,-42
613.16,1652,2296,14212,689,285,-57
613.17,1572,2260,14152,565,280,-45
613.18,1616,2324,14000,523,281,-34
613.19,1560,2304,14148,793,262,-10
613.2,1700,2300,14168,868,263,-22
613.21,1664,2456,14212,937,283,-48
613.22,1664,2332,14044,949,352,-25
613.23,1672,2408,14112,952,432,-16
613.24,1652,2540,14128,1048,406,1
613.25,1680,2528,14140,1106,484,-54
613.26,1628,2664,14224,1174,447,-66
613.27,1684,2560,14112,1176,449,-79
613.28,1616,2640,14112,1278,460,-76
613.29,1624,2688,14100,1300,481,-110
613.3,1456,2672,14284,1316,503,-121
613.31,1576,2716,14236,1353,484,-114
613.32,1568,2728,14240,1395,467,-88
613.33,1600,2844,14224,1365,483,-77
613.34,1520,2800,14112,1367,497,-99
613.35,1592,2924,14196,1324,541,-108
613.36,1592,2924,14104,1329,467,-78
613.37,1568,2904,14172,1319,446,-99
613.38,1636,2892,14228,1312,509,-111
613.39,1580,2988,14028,1233,493,-86
613.4,1496,3012,14240,1144,473,-75
613.41,1476,2880,14012,1065,447,-70
613.42,1572,3064,14088,1062,491,-106
613.43,1536,3032,14160,1033,492,-75
613.44,1532,3116,14076,972,479,-111
613.45,1500,3020,14196,982,479,-80
613.46,1472,3176,14004,1007,487,-94
613.47,1596,3164,14124,972,481,-69
613.48,1512,3160,14016,1044,434,-73
613.49,1552,3260,14104,988,475,-71
613.5,1464,3188,14152,1064,479,-68
613.51,1524,3280,14016,1108,432,-100
613.52,1472,3300,13996,1090,432,-95
613.53,1536,3320,13960,1040,441,-93
613.54,1472,3348,13984,1093,425,-78
613.55,1492,3456,14092,1106,453,-70
613.56,1496,3452,14152,1114,457,-101
613.57,1504,3520,14004,1040,445,-48
613.58,1392,3472,14004,961,402,-54
613.59,1592,3504,13976,768,376,-53
613.6,1400,3452,13900,695,364,-56
613.61,1400,3452,14036,920,431,-96
613.62,1376,3480,14244,1103,521,-132
613.63,1352,3604,14204,1091,492,-129
613.64,1368,3648,14020,836,446,-120
613.65,1452,3560,14060,658,459,-69
613.66,1444,3616,13956,562,346,-65
613.67,1376,3432,14016,679,267,-108
613.68,1384,3660,14112,715,300,-31
613.69,1300,3764,13692,65,480,33
613.7,1476,3652,13804,-210,234,-13
613.71,1628,3636,14448,998,632,-171
613.72,1348,3896,14268,1109,371,-128
613.73,1384,3768,13836,115,23,-10
613.74,1528,3560,13980,400,440,-54
613.75,1192,3808,13704,-119,115,54
613.76,1476,3412,13548,-283,171,77
613.77,1424,3656,13636,250,299,-7
613.78,1376,3664,14100,562,88,-24
613.79,1452,3816,14296,618,21,-41
613.8,1340,3860,14216,359,-21,50
613.81,1312,3828,14192,131,109,40
613.82,1224,3816,13952,154,173,22
613.83,1316,3852,13820,203,227,-7
613.84,1336,3944,13924,376,326,-37
613.85,1360,3912,13912,422,286,-52
613.86,1376,3840,13848,398,255,-19
613.87,1420,3740,13756,472,182,-21
613.88,1384,3836,13936,597,160,-36
613.89,1416,3876,13996,587,285,-26
613.9,1340,3892,13932,553,264,-26
613.91,1532,3872,14004,448,279,-23
613.92,1444,3868,14000,364,258,-49
613.93,1452,3880,13916,226,290,-7
613.94,1392,3920,13896,229,322,-12
613.95,1560,3932,13812,213,263,-74
613.96,1356,3920,13908,195,260,-43
613.97,1408,3968,13944,139,311,-25
613.98,1368,3992,13880,175,272,-23
613.99,1360,3896,13988,223,310,-43
614.0,1384,4036,13984,277,294,-33
614.01,1400,4008,13880,312,345,-22
614.02,1420,4064,13836,342,354,-44
614.03,1312,4056,13896,370,318,-78
614.04,1460,4020,14184,401,310,-82
614.05,1248,3964,14088,607,606,-113
614.06,1376,4092,13612,-41,288,-2
614.07,1332,4008,13716,-128,377,-24
614.08,1372,3980,13828,413,441,-92
614.09,1296,4092,14088,486,361,-111
614.1,1268,4024,13944,219,258,-67
614.11,1384,4080,13884,25,201,-25
614.12,1348,4224,13904,13,222,-4
614.13,1300,4084,13720,61,181,-16
614.14,1344,4124,13944,86,178,-15
614.15,1376,4208,13896,97,192,-15
614.16,1412,4304,13948,105,180,-23
614.17,1420,4220,13892,127,251,-37
614.18,1428,4104,13896,53,248,-3
614.19,1456,4176,13900,31,223,9
614.2,1340,4100,13800,4,212,-20
614.21,1368,4048,13952,79,189,-12
614.22,1376,4036,13876,154,219,-9
614.23,1324,4104,13896,46,200,7
614.24,1328,4036,13900,-93,189,0
614.25,1424,4108,13816,-88,250,18
614.26,1240,4056,13916,-47,264,1
614.27,1372,4124,13872,-28,246,-18
614.28,1320,4056,13804,-71,224,-19
614.29,1324,4136,13720,-124,221,-11
614.3,1224,4116,13748,-122,214,-2
614.31,1320,4116,13732,-138,259,-1
614.32,1312,4144,13916,-133,263,-2
614.33,1328,4124,13976,-130,222,-14
614.34,1248,4152,13816,-151,224,16
614.35,1356,4136,13768,-168,226,-7
614.36,1308,4064,13788,-152,214,10
614.37,1368,4224,13896,-139,212,-15
614.38,1368,4072,13816,-243,209,16
614.39,1300,4096,13928,-270,201,10
614.4,1284,4196,13952,-308,194,-1
614.41,1264,4036,13944,-343,231,16
614.42,1372,4088,13944,-346,249,4
614.43,1452,4208,13924,-392,278,10
614.44,1284,4104,13932,-458,265,3
614.45,1388,4128,13900,-486,188,43
614.46,1272,4060,13824,-591,187,14
614.47,1280,4076,13968,-588,157,35
614.48,1340,4052,13964,-623,154,41
614.49,1280,4120,13980,-721,144,14
614.5,1328,3960,13896,-747,137,34
614.51,1272,4072,13812,-807,108,78
614.52,1360,3948,13756,-779,114,63
614.53,1324,4072,13988,-749,108,95
614.54,1328,3972,13808,-676,136,66
614.55,1328,3980,13900,-709,136,75
614.56,1228,3920,14028,-725,145,68
614.57,1344,3976,13864,-776,144,63
614.58,1396,4016,13952,-819,162,76
614.59,1400,3932,14008,-878,135,64
614.6,1316,3904,13860,-968,113,110
614.61,1444,3904,14016,-962,153,109
614.62,1368,3952,13916,-1000,135,69
614.63,1292,3808,13900,-1093,119,115
614.64,1348,3748,13888,-1052,92,121
614.65,1356,3800,13996,-1023,39,94
614.66,1368,3780,13960,-1115,85,111
614.67,1400,3712,14008,-1202,156,72
614.68,1408,3760,14064,-1178,131,86
614.69,1416,3732,14060,-1203,50,131
614.7,1256,3676,13956,-1190,133,111
614.71,1444,3724,14000,-1252,138,112
614.72,1460,3700,14012,-1187,132,86
614.73,1476,3608,14096,-1318,87,126
614.74,1312,3572,13964,-1469,72,117
614.75,1412,3544,13960,-1544,-54,141
614.76,1392,3464,13896,-1506,-40,136
614.77,1444,3448,13996,-1315,66,116
614.78,1448,3504,14168,-1065,139,67
614.79,1464,3544,14160,-1069,90,98
614.8,1416,3532,14348,-1228,-6,115
614.81,1268,3440,14032,-1441,26,129
614.82,1424,3336,13896,-1501,-160,175
614.83,1484,3324,14200,-1387,-152,158
614.84,1512,3384,14232,-1348,33,204
614.85,1372,3428,13584,-2182,-27,254
614.86,1560,3236,14012,-2154,-150,164
614.87,1540,3012,14596,-850,106,74
614.88,1436,3312,14008,-1013,-380,148
614.89,1528,3180,13932,-1648,-356,168
614.9,1556,3092,14060,-1065,128,92
614.91,1388,3068,13476,-1777,-411,243
614.92,1524,2856,13568,-1708,-236,219
614.93,1636,3020,14256,-693,54,77
614.94,1624,3088,14444,-529,-50,23
614.95,1532,3156,14428,-751,-24,71
614.96,1472,3208,14408,-1168,-112,116
614.97,1420,3156,14364,-1410,-91,141
614.98,1540,2996,14064,-1465,-83,175
614.99,1504,3060,13904,-1464,-37,125
615.0,1524,2936,14104,-1365,-57,111
615.01,1496,2744,13944,-1313,-84,108
615.02,1516,2864,13908,-1247,-103,103
615.03,1508,2804,13840,-1168,-122,98
615.04,1620,2756,14188,-952,-87,84
615.05,1660,2764,14124,-712,64,57
615.06,1648,2760,14212,-729,71,29
615.07,1704,2812,14312,-737,36,42
615.08,1664,2664,14216,-810,89,33
615.09,1668,2660,14280,-819,122,55
615.1,1600,2648,14176,-907,100,30
615.11,1564,2620,13936,-1003,85,65
615.12,1604,2680,14192,-989,46,59
615.13,1684,2764,14100,-983,39,50
615.14,1700,2640,14104,-986,27,65
615.15,1660,2616,14196,-929,65,40
615.16,1640,2648,14104,-870,105,38
615.17,1592,2624,14164,-723,122,31
615.18,1660,2596,14176,-646,189,23
615.19,1540,2668,14100,-529,185,8
615.2,1648,2592,14212,-569,97,16
615.21,1672,2572,14480,-311,493,-30
615.22,1552,2620,13996,-763,198,39
615.23,1596,2484,14036,-943,155,68
615.24,1652,2564,14020,-700,127,22
615.25,1716,2508,14108,-572,97,-3
615.26,1768,2584,14300,-449,129,-15
615.27,1640,2588,14148,-620,73,-8
