694.23,1260,3624,13824,727,340,-53
694.24,1268,3620,14060,1016,546,-109
694.25,1256,3744,14200,1260,587,-109
694.26,1164,3812,14132,1177,551,-144
694.27,1180,3924,14040,888,481,-106
694.28,1216,3816,13844,742,429,-63
694.29,1212,3852,14000,781,399,-90
694.3,1104,3896,14088,674,347,1
694.31,1040,3908,13708,162,341,60
694.32,1200,3760,13752,-194,122,38
694.33,1428,3784,14444,910,612,-142
694.34,1148,4016,14336,1445,568,-170
694.35,1104,3980,13656,376,-28,2
694.36,1284,3880,14052,406,299,-38
694.37,1016,4016,13692,147,282,19
694.38,1132,3712,13516,-357,-35,108
694.39,1180,3704,13608,233,293,8
694.4,1192,3880,13988,659,343,-60
694.41,1172,3968,14232,909,153,-68
694.42,1080,4032,14100,712,118,-29
694.43,1124,4112,14088,476,140,26
694.44,1052,4132,14092,410,132,63
694.45,1120,4088,14040,376,286,-29
694.46,1132,4140,13800,407,347,-74
694.47,1096,4100,13832,439,381,-61
694.48,1140,4132,13836,513,282,-35
694.49,1172,4008,13696,596,300,-52
694.5,1148,4040,13856,717,270,-57
694.51,1200,4152,14048,692,270,-24
694.52,1140,4136,14032,652,274,-47
694.53,1144,4044,13944,564,203,-18
694.54,1156,4096,13832,434,309,-35
694.55,1160,4100,13836,328,391,-61
694.56,1120,4268,14052,209,357,2
694.57,1112,4064,13960,218,310,-23
694.58,1124,4188,13912,184,274,-10
694.59,1168,4272,13788,156,329,-8
694.6,1068,4236,13720,303,221,-29
694.61,1140,4292,13856,320,353,-13
694.62,1068,4336,13888,242,391,-43
694.63,1192,4252,13868,410,330,-52
694.64,1036,4388,13908,596,169,-56
694.65,1128,4376,14008,606,256,-71
694.66,1100,4404,14036,411,843,-142
694.67,872,4232,13780,237,208,-4
694.68,1040,4168,13384,-196,262,25
694.69,1148,4208,13864,296,373,-82
694.7,1288,4380,13964,667,352,-94
694.71,1064,4452,13748,140,369,-61
694.72,996,4216,13620,145,144,-1
694.73,1048,4344,13872,23,188,11
694.74,1028,4336,13860,-53,276,-17
694.75,1088,4300,13880,-31,189,0
694.76,1076,4424,13792,-32,191,-22
694.77,1148,4408,13920,2,185,-17
694.78,1164,4440,13752,90,145,12
694.79,1040,4396,14056,-15,273,8
694.8,1144,4272,13752,-260,289,18
694.81,1164,4336,13764,-77,209,-1
694.82,1152,4392,13924,2,276,-9
694.83,1164,4268,13952,-138,222,-2
694.84,1168,4312,13856,-224,166,8
694.85,1024,4336,13876,-168,239,10
694.86,1044,4252,13836,-159,270,16
694.87,1068,4356,13824,-176,256,-11
694.88,1116,4352,13816,-246,242,-7
694.89,1208,4328,13808,-315,228,12
694.9,1116,4260,13920,-275,254,45
694.91,1088,4420,14044,-276,218,33
694.92,1136,4392,13992,-268,216,44
694.93,1096,4432,13892,-305,185,18
694.94,1044,4424,13752,-323,172,29
694.95,1048,4364,13804,-350,209,50
694.96,1072,4340,14040,-382,244,-2
694.97,1124,4372,13780,-419,215,6
694.98,1008,4412,13984,-597,172,43
694.99,1036,4268,13864,-733,137,67
695.0,1020,4336,13824,-820,95,83
695.01,1164,4264,13936,-855,74,101
695.02,1172,4352,13776,-928,16,121
695.03,1020,4240,13900,-974,11,143
695.04,1116,4216,13920,-994,-19,144
695.05,1096,4132,13860,-1009,9,125
695.06,1220,4236,13852,-1071,65,136
695.07,1048,4196,13944,-1109,93,102
695.08,1184,4256,13912,-1139,63,120
695.09,1212,4100,13792,-1231,55,139
695.1,1128,4116,13796,-1279,41,129
695.11,1200,4088,13820,-1299,97,132
695.12,1204,4056,13856,-1501,76,170
695.13,1144,3992,13876,-1534,16,151
695.14,1012,4112,13808,-1531,31,186
695.15,1128,4008,13960,-1627,35,170
695.16,1032,4008,13988,-1700,38,185
695.17,1200,4024,13944,-1759,-30,151
695.18,1208,3764,13860,-1764,-18,154
695.19,1164,3744,13924,-1767,6,160
695.2,1112,3800,14004,-1713,-12,152
695.21,1108,3708,13916,-1651,31,182
695.22,1284,3696,14124,-1559,69,121
695.23,1096,3644,14032,-1476,130,118
695.24,1076,3636,14144,-1643,65,152
695.25,1124,3636,13896,-1843,-40,165
695.26,1256,3532,13900,-1939,-128,202
695.27,1148,3420,13932,-1872,-110,196
695.28,1224,3424,14000,-1683,-2,127
695.29,1244,3468,14224,-1289,180,79
695.3,1300,3496,14256,-1207,136,89
695.31,1184,3500,14164,-1538,-30,124
695.32,1224,3472,13944,-1755,-130,146
695.33,1196,3308,14040,-1594,-159,150
695.34,1260,3188,14128,-1393,-160,147
695.35,1144,3304,14044,-1995,-205,220
695.36,1376,3228,13400,-2586,-233,217
695.37,1464,3132,14392,-1756,213,29
695.38,1200,3244,14240,-651,95,17
695.39,1152,3284,13720,-1943,-723,198
695.4,1444,2900,14340,-1756,-273,134
695.41,1260,3024,13836,-1527,-78,150
695.42,1292,2992,13644,-2225,-575,267
695.43,1440,2840,13876,-1504,-133,141
695.44,1472,3016,14240,-676,134,-16
695.45,1420,3156,14492,-732,60,29
695.46,1388,3096,14336,-1237,-30,86
695.47,1268,3020,14328,-1376,-21,124
695.48,1248,3000,14332,-1528,32,156
695.49,1272,2936,14196,-1669,-6,166
695.5,1336,2868,14116,-1608,-4,119
695.51,1336,2780,14160,-1748,-163,136
695.52,1384,2788,13984,-1786,-166,134
695.53,1476,2644,13880,-1500,51,60
695.54,1388,2600,14044,-1190,-47,70
695.55,1528,2596,13976,-893,36,48
695.56,1428,2616,14388,-705,115,27
695.57,1468,2732,14376,-779,45,22
695.58,1372,2580,14272,-865,92,35
695.59,1428,2592,14160,-896,119,47
695.6,1452,2520,14304,-1006,144,-8
695.61,1480,2588,14236,-1171,73,45
695.62,1512,2568,14152,-1139,3,41
695.63,1384,2484,14236,-1172,41,36
695.64,1412,2416,14144,-1209,4,49
695.65,1452,2488,13996,-1162,11,60
695.66,1504,2544,14032,-1003,115,23
695.67,1460,2468,14228,-970,64,55
695.68,1356,2520,14248,-823,164,52
695.69,1424,2528,14244,-741,188,31
695.7,1464,2448,14132,-717,195,6
695.71,1500,2468,14420,-673,153,25
695.72,1432,2440,14424,-524,365,-9
695.73,1424,2416,14080,-1009,57,63
695.74,1460,2228,14032,-1021,75,34
695.75,1516,2368,14224,-781,57,26
695.76,1476,2204,14260,-560,40,22
695.77,1612,2348,14264,-611,46,12
695.78,1544,2292,14264,-705,94,36
695.79,1456,2368,14372,-707,96,10
695.8,1516,2320,14404,-801,8,15
695.81,1444,2336,14304,-741,71,25
695.82,1452,2268,14176,-700,87,-16
695.83,1520,2208,14416,-591,121,-20
695.84,1452,2216,14128,-407,207,10
695.85,1448,2280,14224,-460,219,3
695.86,1460,2128,14276,-474,220,27
695.87,1512,2188,14168,-466,224,18
695.88,1572,2112,14256,-341,193,18
695.89,1516,2152,14124,-264,150,15
695.9,1628,2160,14136,-151,171,24
695.91,1540,2088,14096,-62,185,21
695.92,1460,2108,14036,188,286,23
695.93,1500,2120,14196,290,267,-18
695.94,1508,2136,14108,310,300,-16
695.95,1436,2172,14240,392,338,-21
695.96,1564,2248,14076,421,346,-16
695.97,1464,2248,14132,547,414,-5
695.98,1528,2268,14120,680,491,-24
695.99,1396,2328,14188,741,428,-43
696.0,1504,2368,14264,880,438,-57
696.01,1476,2344,14276,1000,488,-69
696.02,1456,2432,14236,1051,475,-60
696.03,1508,2452,14184,1036,485,-39
696.04,1476,2364,14136,1101,507,-44
696.05,1396,2416,14248,1082,467,-36
696.06,1428,2380,14156,1068,420,-36
696.07,1408,2460,14248,1120,418,-31
696.08,1548,2408,14172,1131,464,-56
696.09,1532,2556,14196,1175,443,-69
696.1,1428,2452,14124,1264,443,-52
696.11,1492,2656,14284,1312,435,-58
696.12,1456,2560,14060,1394,498,-85
696.13,1544,2620,14140,1451,514,-83
696.14,1428,2708,14168,1460,516,-81
696.15,1524,2824,14208,1587,554,-108
696.16,1372,2652,14128,1612,574,-114
696.17,1348,2732,14244,1578,596,-89
696.18,1308,2848,14140,1531,543,-92
696.19,1420,3004,14184,1510,571,-107
696.2,1348,2896,14148,1518,580,-119
696.21,1352,2964,14184,1411,530,-102
696.22,1392,3064,14232,1496,532,-84
696.23,1324,3076,14252,1487,474,-99
696.24,1320,3164,14040,1353,506,-55
696.25,1344,3224,14072,1193,478,-46
696.26,1340,3156,13952,1036,405,-35
696.27,1300,3248,13976,1050,378,-40
696.28,1312,3120,14100,1400,568,-66
696.29,1384,3252,14200,1550,693,-117
696.3,1248,3352,14216,1597,694,-118
696.31,1264,3404,14132,1363,616,-108
696.32,1228,3420,14084,1071,512,-63
696.33,1252,3332,14020,991,457,-68
696.34,1224,3276,14188,1172,439,-77
696.35,1116,3400,14260,936,439,-20
696.36,1148,3468,13640,27,280,66
696.37,1452,3272,13928,375,355,-28
696.38,1408,3468,14672,1730,777,-263
696.39,1152,3696,14084,1352,393,-115
696.4,1252,3548,14032,382,68,-13
696.41,1356,3472,14212,854,632,-104
696.42,972,3576,13540,262,184,51
696.43,1240,3304,13628,-41,123,93
696.44,1180,3380,13988,934,405,-3
696.45,1208,3644,14360,1263,307,-96
696.46,1088,3648,14396,1298,206,-32
696.47,1072,3688,14168,1090,211,-28
696.48,1020,3840,14192,1026,291,-5
696.49,1152,3780,14216,867,296,12
696.5,1192,3744,14100,776,363,-13
696.51,1180,3888,13956,758,388,-31
696.52,1256,3784,13896,767,404,-29
696.53,1176,3696,13676,857,378,-42
696.54,1192,3724,13736,937,375,-38
696.55,1268,3724,13904,1031,373,-57
696.56,1148,3840,14016,1135,395,-109
696.57,1252,3852,14108,1046,326,-100
696.58,1216,3860,13976,921,377,-86
696.59,1276,3840,13860,827,384,-67
696.6,1264,3972,13772,732,396,-31
696.61,1056,3980,14020,684,386,-56
696.62,1124,3960,13980,607,333,-56
696.63,1096,3964,13992,540,327,-28
696.64,1128,3976,13872,504,346,-73
696.65,1208,3996,13880,569,341,-20
696.66,1000,3984,13828,548,378,-68
696.67,1068,4008,13624,640,378,-53
696.68,1040,4108,13916,674,457,-60
696.69,1064,4016,13868,797,459,-64
696.7,1096,4204,13872,730,333,-91
696.71,1196,4152,14184,855,581,-136
696.72,912,4224,13860,733,597,-67
696.73,1092,4192,13660,116,354,0
696.74,1116,4036,13716,356,427,-50
696.75,1072,4140,14060,689,507,-137
696.76,1072,4224,13888,712,413,-110
696.77,1104,4172,13816,409,327,-40
696.78,1016,4304,13832,290,242,-26
696.79,1016,4204,13824,296,279,-20
696.8,1064,4296,13796,270,256,-10
696.81,1104,4376,13800,359,279,-47
696.82,1104,4308,13924,291,308,-38
696.83,1088,4352,13912,198,280,-12
696.84,1064,4204,13900,114,310,-9
696.85,1080,4348,13884,165,322,-19
696.86,1020,4340,14028,240,305,-41
696.87,1036,4364,13804,100,299,-13
696.88,1140,4332,13860,38,263,-25
696.89,1076,4320,13936,40,318,-32
696.9,1076,4284,13848,-43,322,-30
696.91,944,4336,13884,-165,274,-1
696.92,912,4308,13752,-260,222,31
696.93,992,4252,13968,-302,237,47
696.94,1020,4320,13760,-330,205,25
696.95,1120,4264,13828,-342,209,25
696.96,956,4344,13900,-319,212,35
696.97,1096,4360,14116,-750,224,52
696.98,996,4304,13768,-1077,39,80
696.99,1020,4260,13852,-1460,-6,125
697.0,1008,4224,14060,-1531,3,131
697.01,1084,4060,14132,-1656,24,147
697.02,1164,3916,14024,-1885,-97,208
697.03,1132,3860,13872,-1662,-41,197
697.04,1168,3824,13964,-1525,-18,128
697.05,1088,3820,14012,-1542,92,153
697.06,1172,3760,13904,-1595,86,143
697.07,1152,3776,13944,-1742,11,146
697.08,1212,3704,13940,-1675,-27,182
697.09,1220,3764,14008,-1583,-53,157
697.1,1156,3688,13924,-1578,0,158
697.11,1056,3664,14132,-1415,63,130
697.12,1124,3604,14232,-1618,63,98
697.13,1084,3556,13980,-1908,-30,136
697.14,1140,3464,14004,-2099,-155,174
697.15,1180,3344,13720,-1949,-156,164
697.16,1236,3352,14080,-1540,58,95
697.17,1268,3572,14252,-1293,80,77
697.18,1148,3512,14332,-1441,43,79
697.19,1088,3364,14144,-1709,-102,141
697.2,1108,3292,14068,-1910,-238,193
697.21,1248,3200,14068,-1785,-253,163
697.22,1104,3156,14424,-1743,-163,177
697.23,1240,3388,13992,-2392,7,254
697.24,1280,3028,13632,-2943,-421,249
697.25,1360,3028,14536,-1669,8,49
697.26,1236,3096,14188,-1092,-199,91
697.27,1180,3036,13788,-2260,-825,228
697.28,1316,2856,14292,-1432,47,72
697.29,1140,2948,13608,-1989,-510,238
697.3,1288,2780,13816,-2049,-392,237
697.31,1456,2808,14244,-1181,45,53
697.32,1268,3104,14504,-815,68,31
697.33,1360,3088,14412,-1216,-18,40
697.34,1256,2980,14416,-1546,-65,126
697.35,1244,3012,14340,-1706,-73,122
697.36,1248,2832,14228,-1850,-68,162
697.37,1356,2824,14164,-1973,-118,111
697.38,1272,2688,14024,-1986,-107,102
697.39,1332,2556,14048,-2007,-166,138
697.4,1420,2528,14048,-1873,-185,99
697.41,1460,2392,13840,-1669,-171,101
697.42,1472,2504,14084,-1260,-127,87
697.43,1496,2408,14308,-969,-4,70
697.44,1400,2544,14296,-868,-1,46
697.45,1420,2444,14448,-960,45,3
697.46,1424,2404,14268,-1043,5,61
697.47,1432,2436,14340,-1035,6,40
697.48,1484,2400,14332,-1155,-2,50
697.49,1484,2456,14124,-1336,-42,42
697.5,1400,2392,14256,-1509,-70,66
697.51,1404,2276,14308,-1521,-17,43
697.52,1476,2324,14128,-1587,-70,21
697.53,1448,2344,14268,-1615,1,42
697.54,1476,2352,14272,-1411,1,29
697.55,1448,2300,14176,-1453,59,17
697.56,1404,2188,14192,-1331,4,13
697.57,1428,2256,14348,-1197,5,25
697.58,1444,2140,14092,-1265,-55,29
697.59,1500,2012,14440,-995,177,12
697.6,1440,2192,14136,-983,117,28
697.61,1536,2036,14020,-1278,-73,67
697.62,1404,1916,14052,-1041,-9,43
697.63,1492,1892,14228,-558,-1,-14
697.64,1556,2016,14188,-204,110,4
697.65,1632,2044,14132,-177,151,19
697.66,1492,1904,14332,-45,104,20
697.67,1544,2004,14092,89,119,24
697.68,1576,1912,13872,305,158,18
697.69,1448,1824,13996,574,275,-26
697.7,1596,1944,14124,900,364,-29
697.71,1520,1948,14056,1276,461,-47
697.72,1552,2048,14104,1627,478,-73
697.73,1416,2148,14072,1760,576,-73
697.74,1340,2176,14236,1955,698,-88
697.75,1428,2212,14472,2305,907,-136
697.76,1352,2464,14248,2446,763,-164
697.77,1484,2432,14372,2249,732,-140
697.78,1364,2428,14400,2259,864,-168
697.79,1208,2580,14288,1846,611,-123
697.8,1332,2544,14224,1574,590,-90
697.81,1372,2548,14204,1585,614,-92
697.82,1472,2484,14160,1550,464,-111
697.83,1380,2536,13832,1125,536,-82
697.84,1208,2592,13936,1189,440,-63
697.85,1476,2704,14244,1476,619,-104
697.86,1392,2828,14376,1626,753,-165
697.87,1420,2724,14388,1387,622,-119
697.88,1376,2784,14340,893,600,-110
697.89,1248,2832,14196,698,600,-99
697.9,1404,2808,14076,694,403,-121
697.91,1392,2820,14252,612,393,-70
697.92,1296,2768,14184,557,507,-64
697.93,1272,2852,14040,470,325,-28
697.94,1392,2900,14240,337,341,-16
697.95,1380,2776,14060,494,330,-46
697.96,1408,2840,14092,569,191,5
697.97,1492,2776,14108,225,402,13
697.98,1152,2964,14188,714,335,-27
697.99,1168,3080,14108,796,416,-11
698.0,1424,2864,13696,-55,145,110
698.01,1188,3024,13928,218,294,30
698.02,1236,3124,14140,771,385,-61
698.03,1232,3332,14336,1076,603,-119
698.04,1100,3292,14500,982,709,-154
698.05,1072,3132,13852,-323,33,45
698.06,1240,3120,14164,18,112,-6
698.07,1288,3116,14356,190,518,-54
698.08,1240,3208,14148,257,182,-39
698.09,1324,3056,14008,200,282,-20
698.1,1248,3008,13800,226,185,33
698.11,1276,3016,13772,499,221,29
698.12,1256,3068,14096,771,293,7
698.13,1124,3304,13748,562,273,103
698.14,1272,3056,13716,444,156,34
698.15,1400,2960,14428,1819,639,-129
698.16,1072,3432,14700,3034,1005,-227
698.17,1152,3628,13924,1213,248,-47
698.18,1236,3436,14212,1236,603,-103
698.19,1084,3488,13624,904,409,18
698.2,1192,3416,13496,415,168,124
698.21,1260,3304,13784,968,417,-35
698.22,1216,3476,14200,1614,379,-84
698.23,1180,3584,14292,1681,275,-66
698.24,1096,3648,14240,1428,285,-66
698.25,1080,3700,14212,1324,331,-22
698.26,984,3804,14248,1208,348,-19
698.27,1228,3780,14032,1042,380,-69
698.28,1172,3668,14024,986,437,-34
698.29,1168,3740,14000,896,406,-54
698.3,1156,3696,13888,966,377,-40
698.31,1172,3684,13856,1127,359,-130
698.32,1308,3708,13860,1281,324,-93
698.33,1216,3748,13852,1331,352,-101
698.34,1268,3804,13900,1226,323,-115
698.35,1116,3836,14120,1105,338,-77
698.36,1132,3868,14040,1023,393,-82
698.37,1108,3876,14188,900,383,-86
698.38,1124,3900,13992,761,407,-54
698.39,1020,3952,13952,733,371,-81
698.4,1072,3912,14076,593,355,-68
698.41,1000,3956,13968,583,371,-23
698.42,1228,4052,13904,548,361,-46
698.43,1112,4044,13872,564,420,-72
698.44,1176,4040,13828,576,398,-45
698.45,1092,4140,13960,611,437,-31
698.46,1084,4144,14012,682,463,-67
698.47,1064,4140,13844,687,443,-84
698.48,1036,4192,13980,669,360,-83
698.49,1048,4200,14188,847,747,-109
698.5,948,4164,13600,362,419,-41
698.51,1068,4092,13608,47,389,-32
698.52,1180,4096,13828,638,504,-77
698.53,1028,4200,13888,688,406,-95
698.54,1004,4276,13760,428,340,-58
698.55,1020,4220,13836,308,268,-17
698.56,1068,4268,13864,246,213,-7
698.57,1008,4200,13916,313,234,-37
698.58,1008,4416,13908,320,234,-31
698.59,1040,4252,13920,281,240,-40
698.6,1072,4356,13916,271,306,-29
698.61,1008,4336,13992,273,286,-59
698.62,1084,4296,13972,258,285,-77
698.63,988,4360,13908,189,288,-34
698.64,980,4296,13960,142,298,-35
698.65,1032,4240,13920,174,302,-12
698.66,1040,4360,13932,267,344,-36
698.67,1008,4328,13988,164,303,-36
698.68,1036,4356,13776,54,279,3
698.69,872,4324,13760,-3,274,-19
698.7,1008,4296,13868,35,282,-35
698.71,920,4312,13852,78,283,-17
698.72,984,4324,13716,70,292,-37
698.73,996,4268,13836,17,277,-25
698.74,980,4276,13828,19,307,12
698.75,1024,4352,13984,-7,310,2
698.76,1108,4424,13716,11,352,-2
698.77,1020,4444,13788,12,324,-7
698.78,1004,4360,13820,4,294,13
698.79,944,4392,13836,-68,304,-10
698.8,1040,4412,13940,-61,278,20
698.81,1072,4464,13776,-71,260,-1
698.82,1016,4444,13884,-94,275,15
698.83,976,4388,13920,-169,278,2
698.84,924,4332,13860,-184,250,26
698.85,1044,4352,13856,-174,255,-6
698.86,1016,4352,14000,-205,233,-4
698.87,904,4328,13880,-224,237,8
698.88,972,4424,14004,-243,236,1
698.89,948,4356,13944,-240,235,-4
698.9,928,4404,13972,-312,229,-9
698.91,928,4428,13868,-390,192,6
698.92,1020,4376,13968,-436,190,0
698.93,984,4468,13912,-510,192,22
698.94,964,4328,13888,-581,187,25
698.95,1012,4364,13920,-639,208,3
698.96,900,4368,13988,-746,200,50
698.97,960,4340,13836,-834,176,50
698.98,1052,4252,13980,-945,141,58
698.99,956,4352,14016,-1007,106,76
699.0,988,4308,13908,-1124,80,99
699.01,976,4240,14000,-1235,82,89
699.02,980,4248,13828,-1379,62,133
699.03,1056,4192,13940,-1427,87,121
699.04,964,4220,13896,-1517,76,135
699.05,948,4104,13996,-1556,53,130
699.06,1048,4128,13872,-1615,19,109
699.07,1056,3956,13916,-1573,11,171
699.08,1028,3952,14072,-1508,62,165
699.09,1048,3832,14080,-1488,71,119
699.1,1068,3916,13940,-1657,16,184
699.11,1036,3848,13952,-1728,7,170
699.12,988,3740,13868,-1841,-68,179
699.13,1008,3836,13868,-1947,-160,184
699.14,1188,3644,13944,-1850,-67,138
699.15,1040,3680,14188,-1407,99,103
699.16,1084,3888,14248,-1428,123,89
699.17,972,3756,14028,-1612,65,129
699.18,988,3616,13960,-1648,-102,123
699.19,1012,3568,13988,-1706,-117,175
699.2,1120,3588,13984,-1616,-104,129
699.21,1088,3524,14248,-1600,-32,155
699.22,1072,3640,13824,-2464,-83,269
699.23,1208,3444,13636,-2814,-398,255
699.24,1336,3220,14616,-1592,14,58
699.25,1124,3500,14152,-1057,-255,121
699.26,1168,3312,13800,-2099,-703,225
699.27,1416,3160,14232,-1475,-15,127
699.28,1112,3292,13800,-2140,-509,278
699.29,1204,3172,13696,-2419,-654,288
699.3,1316,3032,13952,-1592,-211,171
699.31,1312,3164,14488,-933,-33,82
699.32,1220,3172,14380,-1124,-93,78
699.33,1224,3100,14412,-1485,-170,141
699.34,1124,3096,14292,-1600,-103,159
699.35,1212,3200,14364,-1609,-77,178
699.36,1128,3100,14228,-1828,-143,156
699.37,1148,3012,14012,-1899,-150,186
699.38,1332,3016,14072,-1889,-190,169
699.39,1292,2820,13892,-1900,-205,146
699.4,1340,2796,13804,-1734,-178,146
699.41,1332,2780,14040,-1324,-74,60
699.42,1332,2664,14284,-1014,27,37
699.43,1268,2788,14248,-960,-10,49
699.44,1356,2784,14352,-995,-51,54
699.45,1376,2776,14392,-1049,13,62
699.46,1280,2708,14132,-1182,-32,69
699.47,1280,2660,14152,-1222,31,72
699.48,1296,2608,14212,-1229,-23,42
699.49,1304,2572,14164,-1280,-59,72
699.5,1440,2640,14188,-1368,-40,44
699.51,1404,2584,14100,-1381,-42,49
699.52,1536,2612,14152,-1325,17,51
699.53,1240,2552,14008,-1238,31,43
699.54,1392,2496,14076,-1085,126,50
699.55,1276,2580,14284,-917,94,15
699.56,1320,2572,14384,-803,171,-11
699.57,1436,2524,14408,-908,70,0
699.58,1380,2488,14468,-637,312,-14
699.59,1368,2536,14132,-1109,29,55
699.6,1416,2392,13968,-1338,39,83
699.61,1400,2300,14144,-1109,-47,26
699.62,1344,2368,14196,-947,-27,0
699.63,1484,2440,14344,-930,2,12
699.64,1356,2328,14328,-1063,23,8
699.65,1400,2340,14296,-1127,6,5
699.66,1420,2368,14216,-1285,-77,-5
699.67,1572,2284,14344,-1420,-102,17
699.68,1416,2284,14388,-1356,-13,4
699.69,1480,2256,14312,-1217,37,-40
699.7,1400,2200,14132,-1212,71,-31
699.71,1440,2176,14260,-1342,59,-13
699.72,1320,2068,14152,-1334,55,33
699.73,1384,2004,14188,-1313,-37,43
699.74,1540,2052,14312,-1261,-22,39
699.75,1520,2012,14332,-1121,-48,18
699.76,1436,1968,14256,-1068,-48,-5
699.77,1392,1944,14312,-982,31,22
699.78,1404,2020,14260,-974,61,11
699.79,1432,2032,14232,-891,24,3
699.8,1524,1988,14272,-898,-8,10
699.81,1528,1908,14328,-871,-2,17
699.82,1472,2044,14160,-907,-20,53
699.83,1488,2000,14232,-869,95,32
699.84,1460,1988,14268,-839,80,34
699.85,1552,1812,14264,-739,110,27
699.86,1496,1880,14188,-738,105,32
699.87,1500,1836,14252,-633,113,61
699.88,1520,1792,14232,-535,120,28
699.89,1564,1840,14240,-426,187,7
699.9,1492,1816,14324,-379,169,14
699.91,1540,1788,14212,-337,153,28
699.92,1516,1880,14192,-193,191,16
699.93,1508,1832,14092,-93,223,41
699.94,1572,1716,14040,51,273,1
699.95,1552,1724,14176,187,261,35
699.96,1524,1876,14160,278,286,-19
699.97,1512,1756,14128,424,313,-11
699.98,1584,1848,14144,567,339,-21
699.99,1564,1836,14184,651,360,-7
700.0,1508,1940,14156,749,388,-19
700.01,1284,1956,14252,873,419,-47
700.02,1488,1980,14336,764,436,-35
700.03,1524,1884,14160,740,459,-18
700.04,1396,1972,14364,712,414,-17
700.05,1416,1988,14440,666,427,-31
700.06,1444,2064,14368,641,384,-18
700.07,1428,1924,14212,565,346,-12
700.08,1432,2064,14124,642,341,-9
700.09,1472,1968,14240,682,404,-3
700.1,1552,2076,14328,667,423,-29
700.11,1440,2032,14112,762,429,-13
700.12,1512,2176,14308,780,405,-43
700.13,1456,2080,14216,757,353,3
700.14,1468,2136,14104,752,297,6
700.15,1464,2028,14140,933,367,-21
700.16,1492,2308,14356,1326,535,-53
700.17,1472,2296,14316,1529,622,-61
700.18,1400,2320,14256,1495,607,-59
700.19,1384,2348,14200,1431,464,-58
700.2,1344,2336,13960,1396,341,-21
700.21,1496,2292,14128,1593,356,-8
700.22,1480,2348,14296,1876,591,-63
700.23,1336,2560,14044,1377,619,7
700.24,1400,2444,13620,613,334,31
700.25,1556,2412,14652,2095,784,-152
700.26,1460,2700,14456,2730,674,-153
700.27,1232,2824,14000,1394,164,-60
700.28,1564,2556,14508,1585,662,-102
700.29,1236,2676,13940,1655,755,-128
700.3,1300,2628,13660,402,-27,97
700.31,1440,2536,13944,1091,476,-42
700.32,1372,2740,14280,1836,577,-135
700.33,1336,2932,14512,1803,526,-121
700.34,1244,2840,14328,1607,467,-68
700.35,1264,2996,14376,1442,493,-3
700.36,1332,3104,14356,1338,545,-5
700.37,1172,3096,14156,1185,441,4
700.38,1248,3096,14160,1190,493,-11
700.39,1208,3128,14068,1048,543,-57
700.4,1368,3020,13928,1033,520,-6
700.41,1268,3020,13768,1154,502,-34
700.42,1344,2996,13944,1336,498,-72
700.43,1404,2976,14172,1500,507,-77
700.44,1272,3172,14296,1553,500,-101
700.45,1268,3128,14412,1406,479,-119
700.46,1324,3284,14232,1324,512,-50
700.47,1196,3236,14124,1204,464,-82
700.48,1308,3272,14164,1128,425,-64
700.49,1240,3532,14092,973,429,-63
700.5,1264,3308,13944,938,397,-50
700.51,1196,3384,14060,940,375,-30
700.52,1252,3404,14068,834,399,-73
700.53,1216,3292,14020,906,421,-49
700.54,1196,3456,14040,915,394,-15
700.55,1152,3444,14048,1096,452,-28
700.56,1028,3508,14180,1264,511,-79
700.57,1204,3588,14076,1344,478,-88
700.58,1224,3564,14168,1436,591,-119
700.59,1100,3660,13992,1487,799,-128
700.6,1132,3704,13908,881,509,-65
700.61,1180,3628,14032,845,606,-87
700.62,1120,3628,13916,838,383,-70
700.63,1100,3740,13952,1051,447,-114
700.64,1160,3704,14008,1148,388,-88
700.65,1060,3768,14092,892,371,-61
700.66,1060,3644,14052,816,342,-35
700.67,1160,3796,14148,856,278,-53
700.68,1164,3848,13944,771,275,-63
700.69,1152,3836,13972,835,374,-87
700.7,1096,3888,14024,896,455,-76
700.71,1072,3836,13960,924,402,-95
700.72,1208,3920,14140,847,421,-52
700.73,1272,3864,14020,702,435,-55
700.74,1120,3956,13944,742,435,-90
700.75,1168,3972,13980,798,441,-50
700.76,988,3880,13948,639,401,-30
700.77,1104,3968,13980,562,331,-25
700.78,1120,4004,13972,609,406,-44
700.79,1120,3968,13880,613,421,-86
700.8,1044,4088,14036,650,442,-67
700.81,1080,4020,13908,615,360,-59
700.82,1148,4060,13940,526,363,-49
700.83,1072,4108,13932,496,351,-34
700.84,952,4156,13984,508,363,-40
700.85,1056,4200,13908,483,356,-22
700.86,948,4164,13972,446,365,-46
700.87,1052,4192,13916,449,337,-28
700.88,1028,4120,13984,429,330,-43
700.89,1040,4152,13808,425,384,-54
700.9,976,4116,13972,434,369,-34
700.91,928,4220,13816,400,344,-43
700.92,1000,4224,13888,296,360,-28
700.93,972,4256,13912,321,353,-26
700.94,1020,4152,13964,328,333,-32
700.95,1104,4284,13788,339,302,-41
700.96,956,4228,13896,293,334,-65
700.97,1044,4184,13860,318,342,-51
700.98,924,4272,13860,285,360,-57
700.99,928,4284,13808,243,332,-55
701.0,1012,4328,14024,180,295,-44
701.01,908,4272,13912,176,301,-20
701.02,1020,4252,13820,150,312,-35
701.03,1036,4336,13840,137,318,-15
701.04,976,4356,13980,89,306,-16
701.05,988,4344,13888,76,294,-23
701.06,976,4324,13980,94,331,3
701.07,1008,4404,13908,75,294,-18
701.08,980,4360,13936,61,293,-33
701.09,1052,4396,13928,51,326,-43
701.1,1052,4408,13824,56,334,-19
701.11,996,4316,13936,16,327,-49
701.12,1008,4328,14028,31,355,-31
701.13,1104,4356,13848,11,339,-10
701.14,968,4364,13844,-49,312,-6
701.15,896,4404,13872,-127,264,23
701.16,928,4300,13716,-248,193,51
701.17,948,4332,13696,-305,189,5
701.18,956,4296,13872,-255,243,4
701.19,1080,4388,14028,-116,384,-27
701.2,876,4480,14004,-143,381,-29
701.21,852,4376,13972,-268,319,-36
701.22,832,4492,13788,-417,228,-6
701.23,972,4260,13816,-472,150,-10
701.24,988,4328,13948,-380,139,24
701.25,840,4312,13940,-479,90,80
701.26,896,4292,13428,-1448,-34,189
701.27,1224,4144,13804,-1263,93,111
701.28,1112,4268,14528,-154,442,-13
701.29,872,4576,14248,-469,77,29
701.3,920,4392,13720,-1173,-159,138
701.31,948,4244,13964,-1135,93,114
701.32,844,4092,13564,-1668,-202,211
701.33,892,3936,13592,-1663,-277,227
701.34,1092,4040,13924,-1145,-126,165
701.35,988,4144,14264,-1009,-135,103
701.36,1140,4252,14188,-1166,-322,128
701.37,1100,4244,14188,-1391,-284,179
701.38,944,4168,14084,-1637,-305,228
701.39,1004,4164,13976,-1645,-294,250
701.4,944,4080,14080,-1598,-190,249
701.41,1036,3992,13980,-1696,-34,230
701.42,940,3968,13756,-1756,-6,207
701.43,1072,3876,14028,-1845,-9,186
701.44,1084,3740,13828,-1674,-39,179
701.45,1116,3776,13924,-1512,6,180
701.46,1068,3796,13992,-1406,-3,180
701.47,1180,3724,14152,-1394,-2,134
701.48,1060,3664,14180,-1440,-23,156
701.49,1044,3664,14124,-1520,10,161
701.5,1024,3688,14136,-1642,118,122
701.51,964,3632,14116,-1807,64,149
701.52,1052,3620,14160,-1950,2,160
701.53,1176,3580,14004,-2024,-85,153
701.54,1164,3572,14044,-2135,-140,203
701.55,1176,3536,13944,-2079,-114,197
701.56,1192,3432,14152,-1960,-131,193
701.57,1120,3380,14088,-1888,-93,151
701.58,1160,3388,14204,-1786,-32,149
701.59,1116,3288,14232,-1642,36,133
701.6,1080,3368,14084,-1475,12,76
701.61,1232,3344,14152,-1529,-70,104
701.62,1184,3148,14480,-1298,239,56
701.63,1052,3296,14244,-1512,82,130
701.64,1188,3128,14024,-2056,-148,150
701.65,1216,3004,13940,-1913,-166,114
701.66,1228,3172,14248,-1320,-62,28
701.67,1260,3096,14100,-1354,-197,93
701.68,1196,3044,14148,-1530,-99,86
701.69,1156,3036,14156,-1512,-109,91
701.7,1256,3068,14224,-1483,-83,72
701.71,1108,3020,14220,-1527,-144,66
701.72,1212,2996,14188,-1596,-68,56
701.73,1288,2960,14316,-1537,-25,48
701.74,1264,2876,14248,-1494,-47,51
701.75,1236,2852,14068,-1573,-44,60
701.76,1204,2912,14084,-1611,-38,59
701.77,1156,2796,14276,-1677,-2,60
701.78,1252,2692,14228,-1739,-80,47
701.79,1300,2596,14132,-1681,-67,71
701.8,1304,2648,14088,-1560,-110,42
701.81,1320,2552,14172,-1460,-137,34
701.82,1288,2580,14124,-1438,-134,40
701.83,1324,2568,14144,-1441,-43,57
701.84,1276,2608,14224,-1223,-8,22
701.85,1344,2532,14088,-1333,-15,44
701.86,1272,2480,14208,-1371,-21,50
701.87,1300,2536,14148,-1349,-59,64
701.88,1300,2424,14240,-1435,-18,40
701.89,1420,2452,14320,-1391,4,65
701.9,1432,2360,14248,-1364,-24,20
701.91,1408,2348,14252,-1282,-18,36
701.92,1464,2340,14076,-1294,22,37
701.93,1356,2348,14332,-1312,8,33
701.94,1372,2276,14416,-1235,27,37
701.95,1408,2340,14252,-1272,9,34
701.96,1364,2260,14224,-1282,68,12
701.97,1400,2236,14320,-1301,61,5
701.98,1392,2176,14228,-1544,-34,25
701.99,1416,2116,14484,-1468,-93,-6
702.0,1440,2032,14184,-1061,104,18
702.01,1480,2244,14152,-1204,-58,74
702.02,1432,2056,14212,-1267,-27,43
702.03,1384,1996,14248,-1164,-54,27
702.04,1488,2096,14268,-1109,-21,17
702.05,1524,2036,14444,-1048,22,18
702.06,1508,2032,14180,-1086,79,-11
702.07,1404,2000,14356,-1058,38,-2
702.08,1440,1864,14220,-1018,14,2
702.09,1408,1912,14180,-1004,36,9
702.1,1316,1852,14292,-948,40,29
702.11,1448,1920,14312,-840,39,24
702.12,1456,1844,14224,-804,25,42
702.13,1436,1764,14316,-762,24,52
702.14,1536,1852,14276,-674,76,12
702.15,1560,1736,14240,-594,109,31
702.16,1568,1796,14292,-496,144,33
702.17,1612,1880,14348,-396,185,28
702.18,1664,1848,14248,-371,183,21
702.19,1456,1828,14164,-341,81,39
702.2,1472,1728,14124,-304,62,65
702.21,1556,1708,14120,-159,135,53
702.22,1512,1852,14416,213,282,20
702.23,1516,1872,14476,487,438,-36
702.24,1616,1812,14400,431,410,-9
702.25,1356,1796,14340,295,287,-11
702.26,1428,1804,14192,264,169,44
702.27,1468,1780,14076,454,244,-17
702.28,1552,1908,14284,596,419,-35
702.29,1308,1976,14328,377,475,2
702.3,1332,2016,13672,-541,241,75
702.31,1668,1724,14620,382,503,-8
702.32,1552,1936,14648,1281,612,-97
702.33,1328,2040,14084,755,39,-48
702.34,1568,1788,14044,208,-90,38
702.35,1524,1888,14600,1069,592,-77
702.36,1224,2000,13768,183,-13,50
702.37,1576,1800,13904,152,84,118
702.38,1580,1956,14292,884,542,10
702.39,1500,2076,14764,1202,641,-70
702.4,1444,2160,14720,1111,549,-80
702.41,1324,2300,14408,661,370,-3
702.42,1280,2132,14296,390,354,34
702.43,1476,2132,14336,437,241,74
702.44,1368,2092,14396,417,215,94
702.45,1400,2036,14340,498,251,40
702.46,1512,2104,14156,505,302,33
702.47,1440,2100,13880,581,364,36
702.48,1464,2092,14040,952,388,4
702.49,1408,2096,14152,1436,442,-2
702.5,1452,2020,14360,1660,474,-43
702.51,1416,2224,14244,1774,515,-50
702.52,1444,2320,14464,1658,544,-59
702.53,1380,2368,14440,1488,556,-51
702.54,1388,2472,14348,1295,532,-89
702.55,1356,2476,14348,1096,524,-78
702.56,1408,2384,14148,935,452,-44
702.57,1292,2496,14012,920,403,-23
702.58,1268,2532,14140,950,422,-48
702.59,1344,2492,14188,1039,469,-60
702.6,1292,2560,14232,1007,488,-56
702.61,1228,2544,14096,1160,488,-42
702.62,1292,2648,14176,1312,490,-88
702.63,1368,2684,14348,1413,526,-54
702.64,1356,2676,14312,1401,455,-64
702.65,1312,2704,14400,1665,780,-100
702.66,1204,2656,13888,1188,490,-11
702.67,1324,2732,13912,1132,533,-57
702.68,1228,2756,14096,1702,576,-111
702.69,1188,2796,13972,1525,376,-97
702.7,1292,2820,14164,1623,510,-96
702.71,1256,2944,14188,1804,609,-126
702.72,1260,2936,14316,1602,514,-110
702.73,1212,3008,14096,1441,443,-74
702.74,1160,3088,14220,1231,352,-77
702.75,1300,3076,14068,1222,359,-56
702.76,1260,3160,14204,1267,387,-96
702.77,1240,3164,14196,1273,456,-82
702.78,1308,3128,14268,1355,489,-108
702.79,1240,3164,14316,1217,534,-66
702.8,1176,3204,14124,1059,489,-89
702.81,1172,3168,14144,1133,508,-49
702.82,1220,3204,13988,1115,530,-79
702.83,1196,3204,14056,1075,460,-77
702.84,1144,3260,14112,919,491,-52
702.85,1244,3204,13972,1088,514,-82
702.86,1188,3320,14104,1156,554,-81
702.87,1212,3392,14144,1184,556,-80
702.88,1192,3364,14064,1098,504,-91
702.89,1228,3484,14048,998,470,-81
702.9,1112,3496,14080,942,470,-39
702.91,1160,3460,14064,875,457,-17
702.92,1188,3596,14128,867,485,-57
702.93,1072,3500,14048,872,442,-62
702.94,1152,3572,13868,872,491,-73
702.95,1080,3616,13916,885,426,-46
702.96,1172,3576,14164,923,454,-41
702.97,1136,3664,14012,930,516,-43
702.98,1080,3580,14200,936,484,-51
702.99,1048,3616,14160,884,476,-70
703.0,1168,3668,14060,927,406,-35
703.01,1192,3680,13952,859,448,-57
703.02,1124,3668,14044,941,462,-75
703.03,1104,3780,13972,929,451,-65
703.04,1064,3800,14060,946,477,-35
703.05,1052,3752,13984,914,519,-84
703.06,1184,3788,13856,925,483,-50
703.07,1088,3800,14024,850,449,-98
703.08,1064,3844,13984,830,397,-81
703.09,1064,3944,14072,785,413,-46
703.1,1012,4000,13960,783,460,-69
703.11,1064,3956,14040,740,402,-71
703.12,964,4004,13988,687,416,-70
703.13,1064,3948,14080,681,388,-51
703.14,1008,3956,13964,665,419,-58
703.15,1044,3952,14016,666,384,-66
703.16,1096,4080,13936,650,424,-69
703.17,1044,4040,14024,695,521,-83
703.18,1064,4064,13944,643,419,-70
703.19,1008,4104,14000,536,422,-30
703.2,924,4168,13744,422,368,-25
703.21,1072,4104,13788,326,303,-25
703.22,1004,4072,13868,491,387,-41
703.23,1048,4084,14088,705,524,-109
703.24,1000,4180,14176,774,542,-105
703.25,1032,4216,13976,638,468,-71
703.26,888,4116,13980,362,389,-58
703.27,936,4268,13904,277,345,-55
703.28,1072,4100,13968,375,318,-39
703.29,900,4256,14048,184,261,24
703.3,740,4096,13392,-594,162,90
703.31,1148,4024,13896,-271,292,3
703.32,1200,4388,14660,1020,685,-157
703.33,844,4408,14032,678,264,-51
703.34,872,4260,13848,-145,1,13
703.35,964,4164,13936,-27,285,28
703.36,776,4176,13440,-561,68,98
703.37,996,3976,13500,-356,5,126
703.38,1052,4116,13636,132,171,25
703.39,1060,4244,14036,324,32,5
703.4,1060,4340,14068,423,-110,15
703.41,844,4296,14084,308,6,27
703.42,824,4352,13984,228,40,51
703.43,824,4296,13936,150,80,65
703.44,952,4328,13960,104,276,2
703.45,1032,4412,13880,118,329,-15
703.46,972,4360,13876,64,354,-56
703.47,1040,4304,13760,136,332,-37
703.48,1000,4272,13900,378,333,-3
703.49,988,4280,13988,419,325,-22
703.5,900,4260,13900,456,312,-30
703.51,1060,4360,14040,395,234,-32
703.52,1004,4340,13736,211,272,-19
703.53,1008,4336,13996,143,314,-20
703.54,892,4352,14020,25,293,-19
703.55,940,4288,13952,-47,305,-24
703.56,900,4400,13916,-50,309,-10
703.57,912,4356,13800,-111,303,-30
703.58,976,4396,13844,-155,323,-34
703.59,888,4376,13836,-128,258,15
703.6,940,4376,13932,-58,290,-7
703.61,896,4380,13952,37,342,2
703.62,1052,4288,13972,89,321,-39
703.63,944,4452,13752,90,295,-37
703.64,936,4480,13912,41,283,-25
703.65,988,4404,14044,198,583,-83
703.66,860,4456,13528,-357,229,16
703.67,1008,4308,13680,-416,302,-9
703.68,888,4384,13900,-137,136,30
703.69,1032,4456,13956,-182,118,26
703.7,880,4360,13900,-215,202,23
703.71,956,4456,13992,-195,217,26
703.72,884,4440,13928,-202,244,6
703.73,932,4408,13900,-248,243,19
703.74,912,4420,13828,-285,210,9
703.75,880,4324,13752,-305,166,65
703.76,936,4324,13932,-283,194,17
703.77,920,4328,13968,-196,214,16
703.78,888,4340,13932,-378,169,3
703.79,952,4360,13784,-542,160,51
703.8,944,4236,14000,-874,82,96
703.81,884,4264,13940,-900,117,97
703.82,896,4204,13868,-993,84,99
703.83,912,4288,13964,-1065,90,119
703.84,968,4176,13952,-1044,138,102
703.85,868,4244,13884,-1065,130,82
703.86,848,4208,13820,-1218,73,111
703.87,920,4092,13828,-1408,50,110
703.88,960,3984,13984,-1494,47,116
703.89,996,3988,13880,-1474,47,157
703.9,984,4132,13972,-1446,55,119
703.91,992,4076,13832,-1466,53,103
703.92,1112,4024,13972,-1557,91,96
703.93,1024,3916,13868,-1576,55,108
703.94,1028,4008,13840,-1547,-32,137
703.95,1064,3904,13896,-1538,-37,141
703.96,984,3864,13992,-1542,-38,141
703.97,1036,3808,13936,-1423,-74,150
703.98,1040,3808,14124,-1358,-19,146
703.99,1044,3848,14088,-1445,-1,144
704.0,1052,3704,14072,-1565,-30,107
704.01,1052,3700,14064,-1603,-37,131
704.02,1056,3664,14104,-1603,-54,132
704.03,1096,3644,14224,-1633,-20,149
704.04,1028,3628,14136,-1579,-63,163
704.05,976,3552,13980,-1565,-29,156
704.06,1072,3524,14076,-1611,-4,112
704.07,1076,3572,14016,-1783,-95,135
704.08,960,3432,14204,-1797,-105,137
704.09,1020,3340,14152,-1711,-121,117
704.1,1104,3444,14156,-1660,-106,134
704.11,1116,3208,14268,-1587,-31,118
704.12,1096,3324,14092,-1676,-101,104
704.13,1216,3260,14056,-1758,-115,125
704.14,1096,3188,14112,-1941,-198,133
704.15,1172,3204,13988,-2057,-262,148
704.16,1160,3084,14004,-1961,-268,146
704.17,1152,3168,14188,-1629,-101,96
704.18,1224,3060,14184,-1388,-10,90
704.19,1104,3156,14256,-1458,-26,78
704.2,1136,3112,14160,-1693,-189,118
704.21,1116,2988,14024,-1809,-260,133
704.22,1252,2948,14280,-1549,-194,89
704.23,1228,2944,14268,-1516,-134,119
704.24,1120,3068,13868,-2282,-71,154
704.25,1296,2736,13716,-2718,-497,202
704.26,1552,2736,14712,-1041,166,10
704.27,1104,2908,13952,-949,-359,49
704.28,1392,2668,14196,-1898,-605,173
704.29,1312,2624,14408,-1296,80,37
704.3,1128,2656,13532,-2000,-526,214
704.31,1432,2488,13840,-1889,-361,144
704.32,1480,2488,14228,-951,105,44
704.33,1364,2732,14532,-791,107,4
704.34,1184,2736,14520,-1036,-25,31
704.35,1256,2788,14316,-1275,-79,84
704.36,1292,2548,14332,-1452,-28,120
704.37,1180,2584,14332,-1588,-64,131
704.38,1304,2452,14252,-1808,-210,150
704.39,1340,2500,14212,-1876,-158,97
704.4,1264,2268,14024,-1901,-112,76
704.41,1388,2208,13892,-1695,-112,58
704.42,1376,2136,14100,-1439,-101,69
704.43,1364,2220,14088,-987,-44,28
704.44,1368,2196,14328,-808,-20,20
704.45,1364,2176,14360,-861,-8,33
704.46,1352,2292,14348,-1009,-41,49
704.47,1316,2164,14296,-1056,23,33
704.48,1464,2184,14400,-1141,6,27
704.49,1412,2124,14312,-1185,-55,67
704.5,1432,2276,14340,-1242,-50,45
704.51,1496,2048,14344,-1246,12,-3
704.52,1444,2076,14304,-1350,28,32
704.53,1480,2148,14188,-1351,-34,9
704.54,1384,2036,14136,-1114,33,33
704.55,1424,1980,14152,-1003,44,-7
704.56,1424,2032,14376,-833,83,37
704.57,1328,2108,14176,-708,137,28
704.58,1380,1972,14448,-759,58,31
704.59,1396,1984,14476,-532,286,16
704.6,1460,2016,14068,-937,41,53
704.61,1404,2024,14096,-1153,-36,82
704.62,1500,1828,14180,-783,99,13
704.63,1396,1952,14280,-734,-52,10
704.64,1516,1888,14376,-601,44,24
704.65,1584,1856,14172,-604,30,19
704.66,1412,1880,14284,-568,50,24
704.67,1432,1892,14200,-706,-53,11
704.68,1536,1916,14272,-719,33,-11
704.69,1520,1924,14516,-634,81,-10
704.7,1516,1844,14272,-614,127,-20
704.71,1516,1844,14308,-552,149,-22
704.72,1496,1828,14320,-553,162,2
704.73,1452,1940,14340,-555,168,31
704.74,1492,1664,14264,-612,65,23
704.75,1620,1716,14404,-533,134,23
704.76,1528,1700,14296,-337,184,10
704.77,1548,1660,14252,-373,90,19
704.78,1420,1672,14196,-308,112,43
704.79,1504,1812,14300,-160,183,2
704.8,1524,1676,14240,-13,162,-2
704.81,1516,1724,14364,64,215,23
704.82,1544,1876,14272,86,281,-17
704.83,1440,1720,14084,44,299,10
704.84,1492,1736,14116,24,250,39
704.85,1552,1800,14344,141,324,12
704.86,1496,1872,14364,232,295,19
704.87,1432,1808,14172,279,292,5
704.88,1564,1864,14312,350,328,-14
704.89,1532,1804,14252,464,367,-2
704.9,1452,1888,14432,512,366,-4
704.91,1412,1792,14380,645,438,-43
704.92,1512,1856,14228,663,447,-22
704.93,1444,1824,14176,617,419,-40
704.94,1464,1836,14292,700,402,-38
704.95,1396,1912,14296,719,429,-61
704.96,1540,1936,14272,787,404,-15
704.97,1400,1924,14248,798,429,-23
704.98,1436,1956,14352,876,419,-34
704.99,1412,1956,14248,847,350,-33
705.0,1428,2020,14160,997,381,-24
705.01,1496,2048,14188,1150,416,-46
705.02,1432,2120,14264,1163,417,-53
705.03,1320,2016,14244,1275,465,-47
705.04,1348,2024,14076,1395,484,-59
705.05,1408,2092,14316,1496,483,-57
705.06,1384,2172,14228,1656,578,-72
705.07,1476,2228,14200,1778,593,-87
705.08,1424,2204,14360,1991,699,-107
705.09,1392,2380,14248,1962,786,-109
705.1,1340,2500,14272,1702,648,-110
705.11,1340,2472,14140,1460,494,-65
705.12,1312,2468,14040,1453,476,-52
705.13,1416,2524,14272,1749,606,-97
705.14,1404,2588,14384,1985,779,-141
705.15,1324,2688,14312,1946,771,-171
705.16,1256,2772,14284,1752,729,-110
705.17,1292,2660,14104,1488,551,-68
705.18,1420,2608,14180,1464,491,-59
705.19,1276,2672,14204,1710,513,-93
705.2,1188,2872,14204,1137,645,26
705.21,1156,2864,13688,371,343,67
705.22,1552,2604,14196,978,587,-62
705.23,1428,2916,14664,2502,809,-199
705.24,1112,3028,14028,1657,319,-43
705.25,1408,2968,14376,957,347,-58
705.26,1224,2876,14196,1469,827,-107
705.27,1088,3044,13540,346,94,73
705.28,1308,2816,13672,293,223,63
705.29,1272,2876,14020,1389,537,-65
705.3,1276,3072,14376,1757,457,-114
705.31,1284,3160,14500,1714,426,-89
705.32,1156,3168,14232,1523,425,-12
705.33,1080,3224,14176,1584,524,-26
705.34,1064,3264,14236,1463,527,-35
705.35,1296,3412,14192,1311,479,-53
705.36,1184,3404,14124,1062,564,-18
705.37,1080,3348,14032,934,680,-38
705.38,1204,3276,13832,954,669,-61
705.39,1192,3252,14048,1108,558,-64
705.4,1224,3324,14116,1249,491,-92
705.41,1292,3444,14100,1320,474,-98
705.42,1176,3356,14180,1321,522,-108
705.43,1156,3456,14056,1183,475,-87
705.44,1140,3476,14016,1065,462,-41
705.45,1176,3540,14204,985,463,-93
705.46,1080,3564,14136,929,504,-94
705.47,1120,3520,14084,807,422,-40
705.48,1148,3632,14032,792,348,-40
705.49,1188,3644,13944,722,420,-50
705.5,1168,3708,13936,764,422,-39
705.51,1104,3648,13932,718,394,-67
705.52,1016,3700,14072,828,428,-55
705.53,1040,3760,14000,918,444,-77
705.54,1040,3760,14104,1005,457,-60
705.55,976,3800,13952,932,389,-73
705.56,1088,3828,14328,1199,739,-110
705.57,896,3760,13788,777,510,-37
705.58,1012,3868,13852,384,443,-17
705.59,1040,3732,13820,453,335,-39
705.6,1068,3892,14024,815,452,-111
705.61,1088,3872,13988,1053,370,-78
705.62,1064,3892,13928,723,370,-58
705.63,984,3920,14048,590,335,14
705.64,1072,3884,13976,616,303,-44
705.65,1112,3992,14040,606,271,-59
705.66,1124,3988,13932,562,271,-36
705.67,1100,4024,14040,597,342,-51
705.68,1084,3908,14044,667,401,-98
705.69,1020,4136,14072,678,372,-55
705.7,1064,4032,13944,566,361,-60
705.71,1048,4060,14024,485,372,-31
705.72,1092,3952,14104,515,358,-62
705.73,1056,4100,13940,577,355,-25
705.74,936,4040,13824,458,349,-46
705.75,1040,4008,13852,372,354,-37
705.76,1028,4080,13876,442,397,-72
705.77,892,4128,13832,475,406,-82
705.78,876,4132,13988,475,365,-56
705.79,1008,4084,13932,449,347,-40
705.8,1036,4216,13940,348,370,-41
705.81,948,4136,13836,323,345,-21
705.82,1028,4220,13964,309,361,-40
705.83,976,4220,13896,354,373,-29
705.84,964,4224,13880,333,312,16
705.85,924,4208,13908,284,314,-15
705.86,928,4180,13784,257,325,-31
705.87,940,4236,14024,311,344,-22
705.88,948,4308,13964,292,358,-26
705.89,992,4260,13960,277,335,4
705.9,940,4220,13996,203,352,-43
705.91,1060,4180,13880,219,340,-15
705.92,1004,4224,13900,218,310,-30
705.93,952,4220,13960,222,329,-26
705.94,968,4312,13864,246,345,-36
705.95,904,4244,13784,258,314,-47
705.96,932,4168,14060,237,329,-37
705.97,992,4392,13820,242,349,-34
705.98,984,4300,14060,205,325,-16
705.99,844,4328,13756,206,281,-22
706.0,876,4304,13924,185,328,-35
706.01,868,4264,13852,145,279,-29
706.02,948,4356,13796,165,321,-26
706.03,860,4376,13900,106,278,-22
706.04,884,4316,13904,127,328,-27
706.05,876,4272,13808,116,284,-32
706.06,964,4340,13952,73,338,16
706.07,896,4300,13928,53,288,-25
706.08,864,4404,13880,73,309,-14
706.09,868,4364,13820,38,274,-23
706.1,952,4400,13936,12,313,2
706.11,948,4416,13824,-31,325,-25
706.12,892,4476,13880,-32,329,-17
706.13,896,4516,13884,-39,336,-35
706.14,956,4356,13992,-76,274,-21
706.15,896,4244,13824,-78,284,-11
706.16,860,4500,13848,-94,305,13
706.17,840,4328,13904,-132,286,-7
706.18,860,4344,13948,-173,280,15
706.19,764,4368,13916,-215,300,-2
706.2,884,4276,13824,-321,221,4
706.21,900,4496,13924,-387,245,15
706.22,804,4424,13912,-511,218,-13
706.23,884,4312,13852,-747,147,38
706.24,888,4348,14016,-758,253,22
706.25,732,4428,14032,-893,231,24
706.26,816,4408,13932,-1159,131,69
706.27,820,4268,13888,-1407,24,110
706.28,844,3860,13740,-1952,-204,267
706.29,868,3740,13632,-2318,-437,318
706.3,1104,3800,13984,-1195,-176,149
706.31,1008,3912,14308,-1070,-237,145
706.32,1036,3912,14312,-1357,-273,167
706.33,1084,3808,14120,-1733,-178,224
706.34,948,3752,14104,-1770,-264,245
706.35,1116,3828,14124,-1927,-259,228
706.36,1096,3708,14140,-2065,-167,224
706.37,1204,3292,14156,-1904,-206,153
706.38,1204,3276,14220,-1918,-231,185
706.39,1192,3132,14280,-1924,-199,182
706.4,1244,3164,14052,-1921,-166,145
706.41,1132,3028,14108,-1833,-176,113
706.42,1124,3016,14100,-1739,-185,118
706.43,1280,3016,14156,-1584,-112,98
706.44,1216,2852,14168,-1373,-100,77
706.45,1260,3016,14288,-1178,31,68
706.46,1256,3012,14308,-1294,13,103
706.47,1204,2904,14192,-1293,22,46
706.48,1248,2936,14284,-1148,159,75
706.49,1252,2916,13852,-1682,-129,108
706.5,1340,2712,14060,-1698,-231,67
706.51,1232,2696,14240,-933,-53,-14
706.52,1280,2860,14176,-1013,-148,47
706.53,1356,2764,14112,-1276,-116,67
706.54,1244,2756,14232,-1352,-92,110
706.55,1300,2796,14204,-1278,-94,59
706.56,1332,2708,14352,-1317,-193,58
706.57,1360,2568,14328,-1398,-84,40
706.58,1264,2648,14204,-1326,-25,36
706.59,1320,2552,14324,-1412,-25,38
706.6,1256,2608,14272,-1561,-17,30
706.61,1312,2448,14276,-1591,-40,24
706.62,1444,2384,14204,-1593,-73,54
706.63,1356,2412,14248,-1527,-101,92
706.64,1328,2380,14220,-1452,-139,13
706.65,1464,2408,14440,-1239,-74,22
706.66,1400,2416,14188,-1310,-103,15
706.67,1308,2256,14280,-1341,-94,46
706.68,1380,2336,14252,-1278,-46,43
706.69,1384,2284,14356,-1181,-51,25
706.7,1444,2276,14300,-1283,-42,55
706.71,1516,2288,14220,-1454,-77,68
706.72,1340,2304,14264,-1461,-33,27
706.73,1360,2264,14232,-1489,-26,43
706.74,1492,2168,14212,-1517,-8,42
706.75,1420,2136,14080,-1503,-96,44
706.76,1380,2040,14180,-1280,-88,24
706.77,1528,2052,14156,-1154,13,-13
706.78,1400,2060,14248,-1030,9,39
706.79,1360,2080,14236,-1132,-20,58
706.8,1392,1968,14184,-984,20,51
706.81,1516,1992,14332,-995,33,63
706.82,1440,2008,14316,-1074,18,6
706.83,1496,1932,14364,-1067,10,34
706.84,1464,1832,14248,-1032,21,-6
706.85,1544,1936,14212,-1028,46,49
706.86,1424,1908,14224,-944,103,5
706.87,1520,1976,14320,-1029,72,10
706.88,1500,1888,14164,-1054,30,-5
706.89,1524,1740,14316,-1027,-52,14
706.9,1540,1780,14084,-929,-31,2
706.91,1564,1768,14228,-785,13,10
706.92,1560,1696,14180,-737,21,41
706.93,1544,1832,14372,-629,66,20
706.94,1408,1772,14208,-621,107,27
706.95,1552,1832,14372,-599,70,35
706.96,1544,1804,14300,-612,62,25
706.97,1604,1692,14232,-551,63,14
706.98,1544,1740,14380,-445,106,35
706.99,1572,1692,14212,-355,182,32
707.0,1584,1760,14208,-329,195,19
707.01,1496,1760,14160,-345,145,47
707.02,1444,1756,14052,-372,74,45
707.03,1540,1684,14132,-218,74,49
707.04,1620,1624,14224,162,262,35
707.05,1500,1664,14396,461,417,-17
707.06,1616,1716,14380,562,408,-28
707.07,1528,1752,14220,539,334,8
707.08,1420,1596,14020,519,236,-5
707.09,1452,1672,14088,570,152,60
707.1,1472,1708,14376,968,377,-24
707.11,1536,1756,14460,1064,671,-27
707.12,1372,2084,13920,172,475,32
707.13,1548,1652,14196,178,293,35
707.14,1736,1792,14780,1816,824,-153
707.15,1336,2044,14132,1672,206,-90
707.16,1564,1880,13864,855,2,12
707.17,1668,1824,14516,1920,797,-115
707.18,1304,2056,13648,1048,145,23
707.19,1464,1904,13700,741,66,121
707.2,1636,1920,14164,1770,798,-3
707.21,1512,2180,14660,2375,834,-114
707.22,1508,2308,14676,2301,767,-96
707.23,1384,2412,14284,2022,597,-41
707.24,1312,2368,14308,1978,696,-26
707.25,1360,2416,14348,2098,682,-28
707.26,1400,2432,14340,1864,478,-28
707.27,1424,2340,14148,1847,497,-56
707.28,1304,2520,14084,1774,589,-71
707.29,1400,2460,13960,1792,623,-37
707.3,1444,2416,14072,2058,687,-89
707.31,1400,2488,14152,2352,700,-102
707.32,1496,2640,14376,2386,769,-134
707.33,1396,2552,14364,2329,716,-117
707.34,1284,2788,14300,2247,711,-144
707.35,1340,2824,14320,2063,691,-82
707.36,1264,2980,14112,1792,647,-103
707.37,1320,2900,14284,1696,636,-76
707.38,1324,2912,14088,1675,540,-86
707.39,1272,2964,14084,1427,548,-72
707.4,1344,3096,14184,1393,648,-104
707.41,1192,3072,14128,1396,655,-134
707.42,1152,3088,14132,1466,596,-88
707.43,1212,3164,14024,1455,643,-88
707.44,1212,3144,14100,1494,685,-113
707.45,1176,3324,14200,1570,643,-120
707.46,1184,3332,14380,1462,531,-125
707.47,1248,3320,14360,1676,946,-136
707.48,1160,3408,14060,1041,570,-65
707.49,1180,3280,14036,778,560,-61
707.5,1200,3276,13836,996,481,-51
707.51,1164,3412,14024,1087,359,-65
707.52,1316,3316,14120,1382,540,-133
707.53,1188,3412,14024,1311,471,-83
707.54,1252,3424,14124,1067,440,-60
707.55,1208,3508,14012,1114,413,-26
707.56,1172,3536,14124,1060,417,-47
707.57,1192,3592,14136,1072,477,-85
707.58,1072,3588,13888,1244,467,-77
707.59,1116,3660,14156,1189,564,-99
707.6,1232,3724,14228,1150,576,-121
707.61,1184,3700,14104,1019,627,-62
707.62,1164,3740,14164,876,530,-76
707.63,1120,3632,14200,1004,485,-68
707.64,1052,3792,14120,978,413,-54
707.65,1060,3652,14060,854,365,-63
707.66,1076,3840,13960,865,424,-71
707.67,952,3988,13952,733,412,-24
707.68,1056,4092,13944,631,415,-51
707.69,1020,4072,13956,568,382,-45
707.7,1044,4088,13996,554,369,-38
707.71,936,4052,13980,513,361,-31
707.72,1016,4052,14020,540,357,-43
707.73,1000,4160,13956,538,367,-30
707.74,988,4124,13788,517,375,-42
707.75,1108,4192,13900,471,376,-67
707.76,904,4232,13924,406,393,-77
707.77,916,4180,13840,440,364,-38
707.78,1016,4180,13932,378,373,-55
707.79,852,4264,13844,369,387,-38
707.8,812,4220,13952,311,339,-20
707.81,976,4260,13908,306,374,-46
707.82,876,4292,13916,279,351,-20
707.83,880,4352,13828,193,355,-50
707.84,940,4272,13724,-96,197,20
707.85,1024,4392,13948,236,444,-62
707.86,960,4460,14016,213,441,-77
707.87,856,4400,14004,6,343,-37
707.88,836,4392,13964,-361,149,60
707.89,820,4296,13312,-1058,-18,169
707.9,1124,4260,14012,-326,395,-2
707.91,768,4608,14136,408,353,-87
707.92,856,4464,13872,-469,-128,75
707.93,1020,4372,13736,-427,214,60
707.94,616,4332,13460,-943,-21,165
707.95,920,4092,13512,-824,-133,133
707.96,1064,4152,13696,-371,62,91
707.97,1024,4284,14124,-168,41,41
707.98,912,4424,14028,-74,-143,43
707.99,884,4372,14140,-221,-103,66
708.0,944,4300,14020,-271,-57,108
708.01,836,4312,13992,-222,-51,96
708.02,884,4420,13888,-219,56,53
708.03,952,4364,13812,-188,230,22
708.04,944,4384,13788,-178,282,13
708.05,968,4328,13848,-143,307,11
708.06,944,4328,13888,-35,251,29
708.07,1024,4312,13960,-18,249,6
708.08,972,4320,13952,-56,249,-19
708.09,920,4308,13932,-133,228,-12
708.1,916,4272,13928,-246,221,29
708.11,980,4312,14052,-390,153,42
708.12,1004,4340,13960,-552,126,35
708.13,920,4268,13964,-654,181,58
708.14,936,4216,13968,-742,120,105
708.15,864,4316,13900,-857,89,116
708.16,872,4324,13876,-941,115,103
708.17,992,4196,13928,-1000,88,89
708.18,960,4216,13940,-1003,143,56
708.19,1000,4248,13940,-1031,154,82
708.2,956,4152,13960,-1059,95,104
708.21,948,4292,13964,-999,104,81
708.22,1020,4272,13936,-991,132,77
708.23,904,4216,13968,-1185,-11,81
708.24,1008,4160,14268,-1175,255,62
708.25,924,4092,13816,-1387,144,141
708.26,1048,4072,13572,-1989,-179,219
708.27,1072,3868,14024,-1351,49,115
708.28,1044,3884,14092,-1014,-27,98
708.29,1084,3936,13860,-1185,-86,118
708.3,1064,3960,13796,-1324,-56,163
708.31,956,3944,13876,-1427,-125,165
708.32,1092,3860,14068,-1342,-43,161
708.33,1060,3900,14148,-1339,-90,164
708.34,1092,3844,14096,-1469,-84,141
708.35,1052,3748,14128,-1589,-37,135
708.36,1088,3780,14160,-1581,-39,131
708.37,1100,3760,14124,-1722,-58,138
708.38,1080,3788,14004,-1854,-107,170
708.39,1016,3520,14108,-2041,-152,220
708.4,1136,3556,14044,-2077,-221,200
708.41,1024,3588,14004,-2085,-217,182
708.42,1204,3412,13960,-2146,-274,210
708.43,1112,3488,14036,-2147,-285,215
708.44,1112,3312,13936,-2146,-331,194
708.45,1148,3372,13996,-2039,-237,136
708.46,1068,3292,14036,-1957,-306,151
708.47,1148,3204,14084,-1780,-245,127
708.48,1140,3164,14132,-1844,-250,126
708.49,1128,3216,14228,-1906,-144,142
708.5,1220,3148,14112,-1923,-171,158
708.51,1204,3200,14176,-1805,-144,133
708.52,1228,3136,14000,-1704,-183,145
708.53,1156,3112,14040,-1718,-168,126
708.54,1236,2948,14260,-1705,-197,132
708.55,1188,3068,14152,-1687,-103,123
708.56,1160,2984,14060,-1787,-175,112
708.57,1332,2964,14116,-1604,-146,125
708.58,1292,2984,14160,-1626,-170,80
708.59,1280,2896,14196,-1622,-221,83
708.6,1244,2832,14176,-1551,-171,91
708.61,1312,2804,14112,-1482,-153,81
708.62,1280,2764,14292,-1398,-116,93
708.63,1340,2692,14228,-1362,-46,72
708.64,1304,2768,14248,-1286,-44,42
708.65,1376,2696,14048,-1340,-110,63
708.66,1280,2664,14308,-1441,-91,63
708.67,1264,2784,14028,-1325,-103,29
708.68,1396,2520,14256,-1371,-154,51
708.69,1384,2612,14224,-1329,-58,56
708.7,1252,2532,14088,-1326,-57,39
708.71,1332,2504,14340,-1334,-80,46
708.72,1376,2504,14216,-1381,-34,47
708.73,1388,2408,14196,-1388,-101,40
708.74,1432,2444,14296,-1399,-60,45
708.75,1312,2380,14192,-1393,-102,32
708.76,1348,2320,14296,-1474,-81,43
708.77,1460,2272,14224,-1397,-89,37
708.78,1412,2396,14236,-1304,-87,31
708.79,1452,2244,14404,-1375,-99,39
708.8,1492,2300,14144,-1367,-52,26
708.81,1504,2172,14168,-1402,-20,35
708.82,1380,2220,14228,-1348,-32,54
708.83,1408,2168,14176,-1363,-33,59
708.84,1496,2080,14128,-1230,-3,38
708.85,1324,2112,14112,-1177,18,21
708.86,1432,2064,14284,-1181,-25,36
708.87,1412,2052,14052,-1188,-28,59
708.88,1444,2096,14312,-1130,-42,59
708.89,1496,2096,14484,-1065,28,18
708.9,1532,2044,14464,-1060,35,22
708.91,1560,1996,14124,-1195,-44,24
708.92,1492,1904,14096,-1281,-95,47
708.93,1564,1932,14120,-1258,-81,45
708.94,1584,1900,14376,-874,89,5
708.95,1448,1984,14480,-639,171,-2
708.96,1460,1972,14376,-748,45,-39
708.97,1408,1960,14320,-871,-48,29
708.98,1340,1880,14108,-969,-128,36
708.99,1592,1756,14248,-735,-47,50
709.0,1440,1800,14472,-531,203,19
709.01,1492,2000,14312,-854,238,48
709.02,1448,1860,13460,-1841,-125,116
709.03,1808,1628,14332,-1369,27,55
709.04,1676,1776,14628,194,239,-91
709.05,1388,1768,13696,-978,-563,108
709.06,1780,1616,14440,-560,81,34
709.07,1472,1832,14088,-276,227,3
709.08,1428,1656,13796,-1302,-513,175
709.09,1740,1592,14112,-494,194,102
709.1,1676,1744,14620,178,453,2
709.11,1676,1728,14836,300,448,-48
709.12,1476,1856,14448,120,241,4
709.13,1492,1888,14348,-116,280,39
709.14,1508,1748,14392,-165,316,57
709.15,1588,1856,14264,-268,146,60
709.16,1428,1764,14376,-223,99,93
709.17,1536,1640,14112,-229,136,43
709.18,1480,1684,13960,-148,182,54
709.19,1628,1688,14008,75,211,77
709.2,1544,1684,14012,477,308,11
709.21,1552,1700,14364,769,324,-11
709.22,1756,1748,14320,890,383,-22
709.23,1628,1712,14412,831,418,-38
709.24,1524,1880,14308,618,408,-22
709.25,1544,1740,14364,536,409,-21
709.259999999,1508,1868,14344,513,372,-17
709.269999999,1524,1884,14164,480,278,17
709.279999999,1584,1952,14168,529,322,18
709.289999999,1508,1860,14084,601,360,5
709.299999999,1524,2004,14212,772,345,-3
709.309999999,1620,1936,14116,906,399,-5
709.319999999,1536,1852,14080,1184,422,-11
709.329999999,1440,2000,14260,1584,552,-50
709.339999999,1472,2028,14300,1802,590,-75
709.349999999,1432,2052,14104,1789,564,-76
709.359999999,1432,2132,14436,2121,862,-115
709.369999999,1412,2224,13908,1775,583,-43
709.379999999,1512,2188,14036,1476,518,-24
709.389999999,1604,2160,14260,2112,739,-122
709.399999999,1388,2384,14028,2049,529,-97
709.409999999,1444,2332,14220,2096,576,-131
709.419999999,1284,2380,14300,2377,691,-136
709.429999999,1360,2500,14244,2407,607,-127
709.439999999,1344,2468,14216,2276,626,-110
709.449999999,1400,2696,14140,2154,594,-75
709.459999999,1460,2576,14356,2081,650,-113
709.469999999,1484,2720,14260,2158,723,-142
709.479999999,1496,2780,14392,2176,742,-140
709.489999999,1400,2836,14204,2018,784,-148
709.499999999,1332,2688,14364,1841,744,-131
709.509999999,1456,2816,14100,1624,673,-118
709.519999999,1368,2744,14088,1604,624,-127
709.529999999,1440,2908,14100,1769,579,-87
709.539999999,1384,2928,14184,1746,568,-76
709.549999999,1276,2936,14132,1530,483,-83
709.559999999,1272,3032,14156,1654,594,-123
709.569999999,1316,3076,14088,1738,645,-109
709.579999999,1288,3052,14060,1748,693,-122
709.589999999,1168,3128,14116,1789,599,-112
709.599999999,1192,3308,14196,1652,633,-131
709.609999999,1204,3312,14112,1509,638,-100
709.619999999,1228,3296,14084,1500,686,-86
709.629999999,1284,3324,14080,1507,672,-78
709.639999999,1304,3432,14120,1433,660,-104
709.649999999,1264,3428,14128,1444,612,-106
709.659999999,1228,3496,14092,1223,578,-72
709.669999999,1192,3480,14020,1222,574,-110
709.679999999,1228,3496,14072,1238,556,-87
709.689999999,1164,3560,14188,1174,574,-75
709.699999999,1232,3640,14112,1041,468,-55
709.709999999,1140,3520,14016,1139,462,-63
709.719999999,1124,3556,13888,1040,486,-41
709.729999999,1116,3656,13968,1023,473,-89
709.739999999,1176,3576,13908,1105,480,-53
709.749999999,1196,3656,13844,1079,519,-93
709.759999999,1140,3620,14036,1106,534,-102
709.769999999,1156,3764,13940,1083,509,-88
709.779999999,1096,3728,13984,1071,520,-109
709.789999999,1036,3868,14012,1049,494,-104
709.799999999,1072,3780,13940,951,468,-121
709.809999999,1072,3908,14060,920,511,-82
709.819999999,1172,3848,13980,892,468,-49
709.829999999,1008,3864,13908,765,432,-56
709.839999999,1048,3848,13936,751,425,-93
709.849999999,1084,3948,13876,690,377,-63
709.859999999,1036,3976,14124,680,423,-64
709.869999999,1100,3980,13948,664,404,-67
709.879999999,1128,3924,14084,607,454,-81
709.889999999,960,4068,13948,596,440,-82
709.899999999,1032,4000,14036,606,473,-27
709.909999999,924,4064,13968,573,443,-41
709.919999999,964,4212,13916,607,446,-55
709.929999999,1040,4096,13980,524,462,-46
709.939999999,984,4016,13916,499,414,-33
709.949999999,956,4140,14024,464,436,-50
709.959999999,1008,4040,13960,536,469,-61
709.969999999,1020,4164,13900,434,456,-62
709.979999999,1056,4124,14024,535,399,-57
709.989999999,916,4148,14076,473,443,-33
709.999999999,900,4228,13896,305,378,-63
710.009999999,1036,4116,13764,206,331,-42
710.019999999,1024,4092,13888,219,358,-29
710.029999999,944,4196,13924,452,507,-50
710.039999999,904,4328,14032,569,548,-79
710.049999999,884,4296,14056,479,508,-114
710.059999999,840,4212,13880,245,414,-81
710.069999999,844,4252,13812,79,341,-29
710.079999999,1008,4304,13804,103,313,-25
710.089999999,940,4168,14204,232,233,-16
710.099999999,852,4240,13876,-44,250,55
710.109999999,860,4340,13448,-767,53,114
710.119999999,1180,4124,14216,-38,509,-29
710.129999999,1104,4472,14336,820,658,-181
710.139999999,856,4408,13824,119,68,26
710.149999999,912,4196,14024,-82,108,8
710.159999999,952,4316,13816,-150,263,62
710.169999999,868,4156,13484,-758,-104,139
710.179999999,980,3984,13500,-325,105,117
710.189999999,996,4132,13692,26,194,35
710.199999999,1036,4260,13968,235,83,32
710.209999999,888,4388,14108,279,-35,15
710.219999999,920,4328,14068,189,41,56
710.229999999,936,4280,14052,101,71,53
710.239999999,848,4344,13936,80,121,47
710.249999999,944,4436,13880,25,233,11
710.259999999,892,4388,13776,37,353,-31
710.269999999,968,4400,13904,66,390,-62
710.279999999,880,4220,13784,95,292,-13
710.289999999,920,4272,13840,223,239,-20
710.299999999,908,4240,14040,298,268,3
710.309999999,976,4276,13936,197,210,-7
710.319999999,996,4360,13972,114,214,29
710.329999999,896,4284,14016,-41,214,13
710.339999999,1012,4356,13944,-93,229,-20
710.349999999,880,4356,13952,-193,230,22
710.359999999,924,4328,13828,-292,192,27
710.369999999,888,4188,14020,-334,197,42
710.379999999,928,4428,13928,-404,174,42
710.389999999,952,4308,13964,-459,207,36
710.399999999,1036,4324,13792,-474,220,30
710.409999999,968,4380,13944,-506,201,3
710.419999999,936,4364,13924,-495,235,20
710.429999999,1052,4348,13824,-525,205,27
710.439999999,1020,4296,13968,-549,213,42
710.449999999,796,4424,13752,-556,209,27
710.459999999,876,4252,13936,-769,27,51
710.469999999,1008,4292,14080,-595,428,-1
710.479999999,884,4260,13548,-1437,-133,173
710.489999999,1084,4148,13720,-1397,119,135
710.499999999,1056,4084,13956,-850,183,51
710.509999999,960,4164,13908,-958,4,64
710.519999999,904,4128,13872,-1172,-63,115
710.529999999,840,4144,13944,-1263,-55,165
710.539999999,996,4144,13832,-1439,-129,165
710.549999999,1024,4080,13944,-1403,-121,141
710.559999999,1064,4024,14044,-1323,-90,146
710.569999999,1112,4096,14048,-1438,-50,139
710.579999999,1048,4032,13952,-1547,-56,164
710.589999999,1024,3992,13988,-1520,-62,156
710.599999999,984,3940,14092,-1591,-36,149
710.609999999,968,3880,14104,-1749,-73,193
710.619999999,1068,3824,14104,-1808,-35,164
710.629999999,1148,3796,14032,-1932,-136,173
710.639999999,1100,3740,14144,-1984,-221,206
710.649999999,1140,3744,14008,-1931,-251,191
710.659999999,1056,3712,14044,-2066,-268,247
710.669999999,1072,3608,14004,-2026,-272,222
710.679999999,1160,3528,14032,-1767,-229,195
710.689999999,1140,3576,13984,-1771,-168,181
710.699999999,1048,3500,14112,-1862,-137,163
710.709999999,1108,3436,13988,-1983,-245,194
710.719999999,1148,3424,14176,-1839,-177,187
710.729999999,1144,3460,14128,-1751,-176,195
710.739999999,1096,3448,14232,-1737,-162,173
710.749999999,1056,3440,14172,-1794,-148,151
710.759999999,1236,3316,14004,-1803,-160,159
710.769999999,1196,3280,14220,-1783,-168,137
710.779999999,1212,3268,14104,-1764,-133,136
710.789999999,1224,3288,14028,-1708,-204,115
710.799999999,1208,3196,14168,-1640,-213,144
710.809999999,1296,3272,14160,-1723,-212,117
710.819999999,1244,3096,14224,-1762,-184,123
710.829999999,1276,3036,13952,-1723,-186,141
710.839999999,1284,2980,14036,-1723,-232,116
710.849999999,1292,2964,14108,-1587,-158,93
710.859999999,1276,2952,14104,-1551,-188,111
710.869999999,1332,2944,14124,-1487,-140,91
710.879999999,1276,2960,14204,-1445,-151,78
710.889999999,1348,2980,14280,-1474,-120,80
710.899999999,1440,2728,14200,-1393,-135,43
710.909999999,1336,2872,14176,-1353,-64,67
710.919999999,1348,2792,14236,-1463,-68,70
710.929999999,1316,2732,14040,-1378,-122,70
710.939999999,1224,2724,14056,-1409,-72,64
710.949999999,1448,2624,14108,-1273,-88,93
710.959999999,1300,2708,14320,-1273,-54,38
710.969999999,1360,2692,14120,-1353,-56,36
710.979999999,1400,2624,14192,-1349,-97,64
710.989999999,1320,2624,14220,-1418,-54,59
710.999999999,1388,2572,14072,-1346,-68,94
711.009999999,1340,2536,14228,-1355,-43,43
711.019999999,1468,2584,14272,-1315,-19,64
711.029999999,1452,2464,14156,-1260,-83,54
711.039999999,1388,2416,14276,-1212,1,67
711.049999999,1452,2448,14172,-1215,-12,53
711.059999999,1428,2288,14248,-1196,7,59
711.069999999,1444,2272,14396,-1194,-10,62
711.079999999,1444,2432,14260,-1194,-26,50
711.089999999,1464,2236,14312,-1250,6,21
711.099999999,1440,2340,14320,-1203,10,18
711.109999999,1404,2160,14240,-1292,-55,45
711.119999999,1328,2216,14336,-1293,1,19
711.129999999,1536,2112,14224,-1238,1,21
711.139999999,1484,2228,14260,-1292,7,47
711.149999999,1540,2072,14172,-1365,-16,52
711.159999999,1416,2052,14124,-1400,-103,47
711.169999999,1556,1972,14224,-1286,-113,45
711.179999999,1508,2176,14440,-837,127,7
711.189999999,1552,2176,14476,-694,139,7
711.199999999,1484,2236,14344,-865,137,3
711.209999999,1404,1960,14276,-967,38,17
711.219999999,1520,2004,14128,-1069,-128,97
711.229999999,1608,1876,14348,-882,-43,74
711.239999999,1524,1980,14380,-602,196,15
711.249999999,1460,2084,14256,-973,210,51
711.259999999,1364,2000,13656,-1770,-58,92
711.269999999,1748,1672,14336,-1300,94,56
711.279999999,1608,1832,14612,230,311,-102
711.289999999,1412,2016,13664,-780,-417,87
711.299999999,1712,1664,14368,-554,-37,59
711.309999999,1392,1948,13924,-166,211,7
711.319999999,1404,1684,13764,-1122,-433,152
711.329999999,1684,1668,14268,-49,384,53
711.339999999,1540,1848,14400,513,515,-52
711.349999999,1560,1996,14620,625,458,-35
711.359999999,1568,1892,14344,526,334,-39
711.369999999,1476,1992,14168,249,290,22
711.379999999,1508,1896,14124,333,306,59
711.389999999,1504,2008,14244,203,231,38
711.399999999,1500,1928,14140,235,208,48
711.409999999,1544,1960,14064,253,309,28
711.419999999,1424,1912,13864,356,346,27
711.429999999,1604,1796,14144,631,402,13
711.439999999,1632,1920,14148,1042,412,-36
711.449999999,1524,1876,14268,1332,422,-54
711.459999999,1540,1908,14508,1463,524,-98
711.469999999,1540,2020,14468,1308,491,-71
711.479999999,1516,2068,14352,1077,445,-47
711.489999999,1560,2136,14276,864,452,-31
711.499999999,1592,2108,14208,776,363,-17
711.509999999,1500,2164,14320,680,321,-1
711.519999999,1592,2168,14168,708,282,-27
711.529999999,1480,2132,14240,843,329,6
711.539999999,1436,2112,14016,913,308,2
711.549999999,1496,2176,14120,1008,358,-8
711.559999999,1312,2308,14096,1259,421,-30
711.569999999,1356,2320,14052,1590,541,-65
711.579999999,1436,2448,14276,1882,555,-71
711.589999999,1484,2444,14252,1948,637,-103
711.599999999,1416,2452,14464,1971,685,-108
711.609999999,1404,2596,14268,1995,743,-103
711.619999999,1404,2528,14040,1289,374,15
711.629999999,1484,2536,14112,1092,624,-68
711.639999999,1484,2556,13968,1490,544,-97
711.649999999,1440,2612,14004,1328,310,-70
711.659999999,1468,2648,14296,1604,516,-73
711.669999999,1372,2712,14204,1599,437,-69
711.679999999,1340,2684,14204,1560,421,-43
711.689999999,1560,2800,14188,1576,360,-54
711.699999999,1436,2820,14048,1590,503,-69
711.709999999,1476,2900,14248,1663,654,-148
711.719999999,1264,2916,14384,1773,624,-101
711.729999999,1376,2888,14128,1700,559,-145
711.739999999,1388,2932,14168,1662,567,-109
711.749999999,1356,2952,14188,1522,531,-122
711.759999999,1220,2988,14188,1636,488,-70
711.769999999,1392,2996,14072,1766,529,-87
711.779999999,1276,3112,14068,1799,534,-126
711.789999999,1324,3212,14080,1517,526,-126
711.799999999,1332,3236,14032,1531,569,-103
711.809999999,1260,3236,14176,1553,623,-143
711.819999999,1236,3376,14232,1484,621,-127
711.829999999,1288,3408,14256,1304,610,-105
711.839999999,1252,3412,13964,1073,553,-98
711.849999999,1272,3400,14016,966,519,-97
711.859999999,1180,3400,14136,982,480,-61
711.869999999,1208,3448,14188,882,492,-28
711.879999999,1232,3428,14184,874,504,-63
711.889999999,1292,3444,14076,925,500,-76
711.899999999,1180,3420,13876,956,473,-55
711.909999999,1240,3464,14084,993,510,-84
711.919999999,1200,3496,14152,1050,523,-49
711.929999999,1316,3536,13972,1050,504,-69
711.939999999,1148,3544,14084,1014,487,-58
711.949999999,1220,3532,14048,994,483,-37
711.959999999,1240,3696,14032,947,477,-70
711.969999999,1092,3684,14064,996,486,-91
711.979999999,1100,3592,14104,1037,514,-94
711.989999999,1248,3748,14008,996,508,-64
711.999999999,1128,3760,13988,978,532,-91
712.009999999,1200,3852,13932,954,490,-81
712.019999999,1152,3832,13956,942,478,-92
712.029999999,1140,3740,14024,884,449,-50
712.039999999,1128,3840,14072,804,446,-98
712.049999999,1128,3896,14044,833,453,-61
712.059999999,1080,3864,13968,750,435,-81
712.069999999,1088,3808,13896,745,407,-56
712.079999999,992,3912,13908,679,435,-55
712.089999999,1060,3980,14040,721,394,-80
712.099999999,1108,3860,14068,693,431,-58
712.109999999,1152,3916,13980,660,440,-69
712.119999999,1156,3984,13932,605,446,-80
712.129999999,1040,4020,14012,645,464,-58
712.139999999,1112,4008,13916,610,451,-60
712.149999999,1104,3932,13928,547,454,-51
712.159999999,1128,4068,13948,538,440,-78
712.169999999,1032,4028,13900,560,426,-71
712.179999999,1116,4036,13880,485,427,-59
712.189999999,1088,4160,13936,452,449,-71
712.199999999,1068,4084,13988,473,427,-68
712.209999999,968,4084,13840,355,376,-49
712.219999999,1056,4144,13792,200,307,-29
712.229999999,1060,4096,13928,170,237,-14
712.239999999,1092,4172,13928,264,349,-32
712.249999999,1016,4172,14096,519,525,-89
712.259999999,896,4096,14024,494,460,-90
712.269999999,924,4272,14004,340,379,-30
712.279999999,912,4188,13896,106,319,-16
712.289999999,1052,4144,13872,52,308,-51
712.299999999,996,4188,13956,268,255,-18
712.309999999,992,4148,14088,23,176,20
712.319999999,944,4204,13528,-722,-15,105
712.329999999,1224,4028,14020,20,458,-36
712.339999999,1116,4464,14472,898,711,-176
712.349999999,896,4292,13852,16,-39,27
712.359999999,1144,4140,13904,-28,87,29
712.369999999,1028,4272,13852,-54,298,44
712.379999999,828,4068,13316,-676,-104,144
712.389999999,1172,3992,13472,-333,82,109
712.399999999,1172,4140,13664,60,263,15
712.409999999,1020,4148,14096,326,79,-11
712.419999999,1064,4288,14068,327,-17,1
712.429999999,904,4268,13928,156,53,26
712.439999999,928,4296,13984,114,39,34
712.449999999,1008,4332,14072,99,111,34
712.459999999,1024,4416,14028,105,256,8
712.469999999,1120,4324,13856,183,332,-42
712.479999999,1068,4348,13724,210,321,-48
712.489999999,1048,4208,13808,312,305,-42
712.499999999,996,4316,13980,425,266,-1
712.509999999,1012,4148,13932,457,222,-4
712.519999999,1012,4196,13876,328,271,-1
712.529999999,980,4256,14012,283,265,-31
712.539999999,1052,4316,13988,169,253,-20
712.549999999,1024,4336,13900,129,318,-35
712.559999999,1060,4376,13868,11,309,0
712.569999999,1116,4296,13848,-61,274,-2
712.579999999,1032,4368,13912,-84,258,25
712.589999999,1060,4192,13960,-91,248,0
712.599999999,1068,4324,13824,-107,280,-2
712.609999999,1060,4320,13928,-95,246,0
712.619999999,1052,4340,13808,-56,264,-11
712.629999999,876,4376,13848,-25,309,-13
712.639999999,1032,4376,13764,4,339,-13
712.649999999,1032,4388,13900,35,399,-17
712.659999999,912,4504,13860,38,340,-47
712.669999999,928,4380,13836,-119,173,-22
712.679999999,1068,4316,14280,205,597,-80
712.689999999,952,4416,13572,-484,139,63
712.699999999,1116,4188,13708,-419,312,20
712.709999999,956,4352,13976,4,395,-29
712.719999999,908,4384,13844,-126,250,-36
712.729999999,1004,4268,13948,-206,210,-17
712.739999999,944,4436,13984,-382,207,62
712.749999999,1000,4360,13912,-375,146,39
712.759999999,1032,4328,14032,-340,107,29
712.769999999,1028,4336,13828,-486,87,42
712.779999999,1064,4304,13960,-512,104,39
712.789999999,1076,4340,13968,-503,47,22
712.799999999,1028,4384,13968,-523,58,77
712.809999999,1028,4324,13896,-585,15,61
712.819999999,964,4352,14020,-613,34,96
712.829999999,964,4268,13876,-732,36,88
712.839999999,1044,4268,13912,-770,59,77
712.849999999,1100,4288,13820,-721,124,44
712.859999999,1040,4148,13836,-960,0,99
712.869999999,1028,4220,13856,-1080,-39,115
712.879999999,1076,4188,13832,-1129,-14,107
712.889999999,1172,4228,13840,-1108,85,78
712.899999999,1100,4124,13972,-1165,44,69
712.909999999,956,4192,13956,-1270,24,120
712.919999999,1072,4164,13868,-1520,-49,156
712.929999999,1120,4128,14112,-1578,-67,182
712.939999999,900,4068,13924,-1539,-120,173
712.949999999,1192,4064,13968,-1612,-92,176
712.959999999,1104,4012,13980,-1646,-132,212
712.969999999,1040,3848,14128,-1539,-117,174
712.979999999,1152,3940,14152,-1564,7,130
712.989999999,1088,3988,14084,-1638,75,136
712.999999999,1020,3852,13996,-1852,-63,173
713.009999999,1100,3748,13948,-1987,-102,211
713.019999999,1104,3832,13968,-2032,-166,215
713.029999999,1132,3588,13988,-2019,-138,179
713.039999999,1188,3568,14112,-1867,-138,156
713.049999999,1112,3624,14028,-1788,-162,149
713.059999999,1268,3576,14068,-1720,-59,150
713.069999999,1232,3656,14016,-1628,-47,155
713.079999999,1236,3644,14008,-1652,-59,149
713.089999999,1256,3488,14092,-1787,-72,160
713.099999999,1164,3464,13960,-1854,-199,180
713.109999999,1208,3368,14060,-1750,-146,133
713.119999999,1236,3460,14124,-1713,-150,136
713.129999999,1256,3320,14032,-1698,-172,159
713.139999999,1184,3368,14224,-1602,-105,121
713.149999999,1188,3252,13944,-1632,-136,114
713.159999999,1272,3180,14024,-1638,-121,131
713.169999999,1272,3236,14084,-1631,-96,118
713.179999999,1372,3276,14160,-1631,-110,126
713.189999999,1260,3148,14096,-1686,-111,129
713.199999999,1192,3172,14040,-1675,-124,120
713.209999999,1320,3156,14032,-1589,-107,93
713.219999999,1204,3012,14320,-1568,-79,99
713.229999999,1312,3044,14204,-1523,-101,94
713.239999999,1328,3056,14200,-1570,-86,89
713.249999999,1228,2928,14216,-1587,-98,87
713.259999999,1332,3052,14148,-1621,-93,94
713.269999999,1388,2892,14104,-1624,-81,105
713.279999999,1304,2836,13996,-1566,-123,122
713.289999999,1296,2784,14024,-1486,-56,93
713.299999999,1348,2848,14192,-1437,-7,96
713.309999999,1324,2844,14184,-1454,-19,53
713.319999999,1388,2828,14160,-1554,-7,19
713.329999999,1360,2696,14056,-1491,-18,21
713.339999999,1400,2732,14216,-1442,-45,55
713.349999999,1280,2724,14068,-1540,-98,51
713.359999999,1468,2648,14164,-1562,-97,78
713.369999999,1336,2516,14076,-1379,-97,71
713.379999999,1436,2504,14384,-1060,36,40
713.389999999,1284,2592,14364,-941,49,11
713.399999999,1452,2568,14312,-1142,103,0
713.409999999,1300,2456,14244,-1217,-49,36
713.419999999,1384,2508,14200,-1330,-120,69
713.429999999,1420,2392,14184,-1175,-89,77
713.439999999,1388,2452,14468,-987,84,35
713.449999999,1404,2528,14192,-1251,148,83
713.459999999,1464,2576,13704,-2186,-38,104
713.469999999,1592,2248,14160,-1981,-126,79
713.479999999,1640,2252,14708,-479,350,-100
713.489999999,1220,2480,13924,-901,-367,63
713.499999999,1492,2132,14036,-1487,-416,81
713.509999999,1528,2192,14416,-527,362,-2
713.519999999,1300,2240,13716,-1615,-478,146
713.529999999,1548,2056,13792,-1494,-265,154
713.539999999,1552,2184,14452,-524,336,-16
713.549999999,1512,2340,14720,-308,329,-10
713.559999999,1396,2292,14500,-517,198,5
713.569999999,1352,2304,14488,-911,43,39
713.579999999,1412,2316,14288,-1080,90,50
713.589999999,1420,2200,14408,-1140,-8,104
713.599999999,1556,2164,14208,-1154,-15,69
713.609999999,1416,2128,14188,-1281,24,57
713.619999999,1564,1936,14116,-1261,46,42
713.629999999,1476,1920,13964,-1015,75,49
713.639999999,1600,1884,14020,-697,41,52
713.649999999,1456,1916,14244,-345,51,20
713.659999999,1524,1884,14320,-174,141,20
713.669999999,1588,1848,14516,-161,170,15
713.679999999,1464,1976,14276,-304,159,22
713.689999999,1592,2020,14208,-317,195,22
713.699999999,1572,1976,14392,-350,181,1
713.709999999,1488,1924,14124,-386,145,47
713.719999999,1512,1900,14252,-388,120,34
713.729999999,1544,1872,14240,-308,142,33
713.739999999,1596,1856,14168,-205,169,20
713.749999999,1540,2032,14224,-24,263,31
713.759999999,1452,2064,14248,142,265,33
713.769999999,1596,1992,14360,350,303,22
713.779999999,1496,1992,14296,505,430,-17
713.789999999,1432,2136,14260,544,464,-18
713.799999999,1508,1952,14340,600,478,-44
713.809999999,1444,2056,14388,653,533,-22
713.819999999,1528,1980,13916,71,271,52
713.829999999,1504,1920,14072,458,368,4
713.839999999,1416,2092,14224,561,318,-26
713.849999999,1520,2064,14248,591,295,-19
713.859999999,1436,2124,14176,812,391,-36
713.869999999,1444,2104,14268,749,351,-34
713.879999999,1492,2216,14312,675,306,-29
713.889999999,1448,2172,14192,528,248,-20
713.899999999,1572,2208,14232,568,312,-26
713.909999999,1588,2248,14268,762,377,-72
713.919999999,1628,2184,14244,849,433,-58
713.929999999,1476,2180,14260,963,480,-87
713.939999999,1488,2316,14300,1014,458,-64
713.949999999,1512,2216,14160,1032,469,-33
713.959999999,1508,2240,14276,1035,463,-70
713.969999999,1416,2256,14260,1234,426,-43
713.979999999,1428,2252,14180,1369,509,-58
713.989999999,1332,2396,14148,1317,523,-75
713.999999999,1376,2484,14148,1323,619,-80
714.009999999,1324,2456,14144,1429,603,-101
714.019999999,1444,2428,14008,1539,524,-92
714.029999999,1512,2536,14044,1596,509,-85
714.039999999,1412,2492,14184,1631,516,-84
714.049999999,1368,2632,14192,1562,564,-55
714.059999999,1388,2732,14284,1513,622,-56
714.069999999,1420,2792,14208,1406,620,-37
714.079999999,1296,2832,14052,1326,580,-46
714.089999999,1360,2900,14200,1274,549,-66
714.099999999,1324,2820,14192,1154,493,-52
714.109999999,1380,2816,14296,1162,472,-52
714.119999999,1332,2736,14176,1256,483,-42
714.129999999,1340,2904,14108,1310,474,-61
714.139999999,1260,2828,14168,1340,425,-48
714.149999999,1232,2896,13996,1426,480,-75
714.159999999,1292,3032,14332,1505,567,-73
714.169999999,1304,2960,14228,1553,667,-105
714.179999999,1340,3072,14080,1594,629,-116
714.189999999,1292,3156,14080,1593,684,-113
714.199999999,1204,3172,14128,1488,654,-132
714.209999999,1256,3196,14168,1377,628,-118
714.219999999,1264,3236,14024,1278,567,-63
714.229999999,1268,3248,14076,1256,516,-108
714.239999999,1264,3232,14060,1152,497,-59
714.249999999,1264,3256,14092,1124,485,-92
714.259999999,1248,3292,14132,1145,469,-79
714.269999999,1200,3348,14032,1109,482,-77
714.279999999,1120,3356,13980,1111,502,-73
714.289999999,1116,3388,14004,1122,541,-106
714.299999999,1228,3476,14088,1104,566,-72
714.309999999,1220,3520,14052,1061,535,-80
714.319999999,1240,3536,13972,1004,567,-78
714.329999999,1160,3484,14028,1061,529,-63
714.339999999,1208,3496,14072,965,558,-81
714.349999999,1256,3480,13924,1012,538,-96
714.359999999,1176,3596,14012,957,506,-71
714.369999999,1096,3596,13880,833,488,-91
714.379999999,1124,3552,14040,804,421,-85
714.389999999,1208,3536,13960,828,399,-31
714.399999999,1172,3664,14076,1100,537,-117
714.409999999,1092,3692,14136,1337,640,-128
714.419999999,1168,3680,14224,1265,628,-154
714.429999999,1124,3836,14032,1115,557,-92
714.439999999,1060,3872,14052,738,443,-69
714.449999999,1104,3800,14120,741,437,-69
714.459999999,1044,3932,14016,841,360,-89
714.469999999,960,3920,13880,374,349,52
714.479999999,1140,3756,13552,-329,61,105
714.489999999,1320,3720,14260,644,538,-91
714.499999999,1068,4088,14464,1652,738,-212
714.509999999,932,4020,13776,426,85,-8
714.519999999,1164,3896,14172,441,302,-21
714.529999999,1040,3920,13528,-91,118,91
714.539999999,1100,3764,13440,-367,-22,96
714.549999999,1196,3780,13692,336,286,1
714.559999999,1120,3924,14016,697,346,-54
714.569999999,1028,4036,14068,956,145,-62
714.579999999,1048,4028,14152,882,142,-47
714.589999999,960,4120,14016,705,214,-8
714.599999999,904,4072,14136,575,256,-1
714.609999999,1128,4192,13968,471,237,-2
714.619999999,1048,4112,14028,451,374,-29
714.629999999,960,4112,13952,469,375,-41
714.639999999,1108,4220,13752,460,427,-61
714.649999999,1084,4068,13952,588,362,-41
714.659999999,948,4152,13828,670,304,-34
714.669999999,1156,4100,14020,749,304,-49
714.679999999,1080,4112,13908,666,318,-42
714.689999999,1008,4180,14000,547,252,-31
714.699999999,1028,4212,13848,465,316,-20
714.709999999,1020,4156,13880,405,356,-20
714.719999999,1008,4144,13928,324,319,10
714.729999999,1044,4272,13844,251,299,-33
714.739999999,968,4188,13996,198,282,1
714.749999999,992,4240,13940,150,297,-14
714.759999999,1008,4220,13824,160,311,-23
714.769999999,1144,4292,14000,195,277,-12
714.779999999,1028,4264,13936,289,81,-11
714.789999999,1012,4256,13872,424,254,-30
714.799999999,960,4364,13732,296,574,-31
714.809999999,988,4308,14008,187,354,-56
714.819999999,1096,4328,13712,519,439,-64
714.829999999,940,4416,13796,72,359,-69
714.839999999,964,4328,14276,448,643,-106
714.849999999,940,4428,13488,-95,196,44
714.859999999,1096,4136,13580,-375,238,39
714.869999999,1060,4340,13852,299,454,-95
714.879999999,1044,4300,13924,152,349,-55
714.889999999,1020,4260,13916,22,269,-19
714.899999999,1004,4396,13884,-140,251,15
714.909999999,1020,4312,13916,-127,205,13
714.919999999,1036,4328,13892,-76,161,-12
714.929999999,1088,4368,13976,-98,206,14
714.939999999,1068,4308,13944,-124,162,6
714.949999999,1052,4476,14092,-68,187,32
714.959999999,1072,4432,13912,-93,163,5
714.969999999,948,4416,13864,-165,208,-1
714.979999999,1032,4372,13880,-200,199,12
714.989999999,908,4348,13728,-196,211,0
714.999999999,1208,4328,13976,-97,242,2
715.009999999,980,4368,13864,-213,202,8
715.019999999,1060,4432,13816,-362,144,27
715.029999999,976,4356,13828,-443,187,17
715.039999999,1040,4376,13908,-448,238,35
715.049999999,1020,4252,13892,-508,217,17
715.059999999,1072,4292,13924,-637,153,56
715.069999999,1044,4272,13860,-776,169,32
715.079999999,1016,4240,13900,-840,139,77
715.089999999,1028,4236,13988,-992,127,116
715.099999999,1068,4292,13868,-1054,60,116
715.109999999,1060,4200,13988,-1074,-7,126
715.119999999,1112,4328,13836,-1085,4,113
715.129999999,1112,4140,14156,-1105,16,118
715.139999999,936,4188,13984,-1152,44,109
715.149999999,920,4180,13960,-1271,7,116
715.159999999,1076,4156,13864,-1314,96,121
715.169999999,1060,4100,13868,-1395,-59,154
715.179999999,1140,4128,13924,-1466,-57,169
715.189999999,1076,4024,13944,-1370,37,135
715.199999999,1152,3996,14008,-1334,22,131
715.209999999,1004,3892,13920,-1446,-40,152
715.219999999,1068,3944,14036,-1553,-19,142
715.229999999,1144,3948,13916,-1526,-18,159
715.239999999,1012,3856,14144,-1525,-32,155
715.249999999,1112,3908,13880,-1582,-19,153
715.259999999,1124,3812,13948,-1611,-14,169
715.269999999,1084,3836,14184,-1588,-8,129
715.279999999,1096,3788,14044,-1639,-44,116
715.289999999,1076,3744,13964,-1788,-103,119
715.299999999,1176,3772,14024,-1828,-109,163
715.309999999,1232,3644,13984,-1775,-84,156
715.319999999,1096,3692,14100,-1846,-97,165
715.329999999,1180,3548,14040,-1942,-147,175
715.339999999,1104,3596,13916,-1826,-172,177
715.349999999,1232,3548,14052,-1668,-149,169
715.359999999,1168,3460,14180,-1607,-73,143
715.369999999,1028,3484,14100,-1581,-72,160
715.379999999,1224,3428,14104,-1701,-132,168
715.389999999,1188,3388,13960,-1746,-97,154
715.399999999,1232,3308,14020,-1663,-108,138
715.409999999,1292,3212,14252,-1647,-107,165
715.419999999,1208,3264,14104,-1637,-83,83
715.429999999,1312,3208,14032,-1607,-103,129
715.439999999,1196,3140,14172,-1595,-84,88
715.449999999,1152,3112,14264,-1592,-93,116
715.459999999,1216,3072,14036,-1578,-102,136
715.469999999,1160,3024,14072,-1566,-72,104
715.479999999,1316,3080,14200,-1509,-42,84
715.489999999,1144,3116,14028,-1551,-98,95
715.499999999,1248,2968,14212,-1689,-158,102
715.509999999,1316,2944,13968,-1741,-205,119
715.519999999,1284,2932,14096,-1692,-241,117
715.529999999,1392,2764,14208,-1375,-38,76
715.539999999,1244,2792,14204,-1123,116,25
715.549999999,1220,2940,14412,-1169,57,30
715.559999999,1324,2852,14140,-1361,-73,82
715.569999999,1324,2680,14076,-1425,-126,93
715.579999999,1308,2604,14004,-1329,-138,62
715.589999999,1356,2632,14344,-1085,2,59
715.599999999,1404,2824,14364,-1308,128,108
715.609999999,1256,2836,13764,-2213,-112,158
715.619999999,1644,2460,14080,-2047,-176,112
715.629999999,1516,2576,14580,-403,279,-53
715.639999999,1268,2760,13856,-1081,-395,75
715.649999999,1580,2480,14028,-1650,-485,133
715.659999999,1356,2420,14296,-836,195,17
715.669999999,1224,2544,13704,-1894,-554,192
715.679999999,1496,2336,13984,-1416,-136,120
715.689999999,1484,2376,14352,-541,305,-18
715.699999999,1300,2452,14744,-496,228,-34
715.709999999,1284,2432,14512,-798,86,50
715.719999999,1328,2616,14384,-1056,41,98
715.729999999,1372,2452,14464,-1183,108,66
715.739999999,1352,2484,14248,-1339,13,97
715.749999999,1432,2396,14224,-1412,-101,97
715.759999999,1388,2324,14100,-1373,18,87
715.769999999,1424,2164,14028,-1299,-28,74
715.779999999,1404,2132,13924,-1166,-13,88
715.789999999,1520,2184,14140,-788,0,79
715.799999999,1432,2144,14328,-527,110,28
715.809999999,1500,2152,14276,-431,65,28
715.819999999,1464,2160,14336,-423,122,16
715.829999999,1604,2228,14232,-506,130,11
715.839999999,1432,2020,14192,-523,134,23
715.849999999,1440,2068,14320,-512,138,39
715.859999999,1552,2088,14272,-541,98,26
715.869999999,1524,2156,14068,-557,99,38
715.879999999,1480,2112,14212,-554,116,46
715.889999999,1520,2188,14280,-432,133,50
715.899999999,1544,2056,14224,-264,181,24
715.909999999,1476,2152,14164,-70,167,40
715.919999999,1300,2236,14168,163,286,23
715.929999999,1524,2240,14272,403,383,-29
715.939999999,1508,2228,14292,502,402,-19
715.949999999,1504,2224,14296,569,367,12
715.959999999,1456,2120,14348,877,608,-26
715.969999999,1492,2208,13980,307,298,23
715.979999999,1536,2092,14056,489,368,-8
715.989999999,1456,2196,14056,794,381,6
715.999999999,1404,2168,14256,875,277,-35
716.009999999,1428,2248,14280,1247,387,-65
716.019999999,1540,2320,14112,1204,388,-78
716.029999999,1448,2328,14280,1221,358,-40
716.039999999,1416,2404,14176,1166,292,-15
716.049999999,1484,2380,14248,1046,337,-32
716.059999999,1396,2424,14208,1229,379,-55
716.069999999,1496,2364,14216,1332,400,-67
716.079999999,1464,2524,14320,1443,524,-54
716.089999999,1384,2548,14204,1551,546,-69
716.099999999,1380,2520,14120,1389,460,-67
716.109999999,1412,2508,14188,1416,527,-55
716.119999999,1436,2584,14196,1519,564,-64
716.129999999,1456,2604,14168,1641,631,-69
716.139999999,1460,2708,14128,1592,610,-82
716.149999999,1336,2716,14164,1427,581,-100
716.159999999,1348,2724,14248,1612,641,-113
716.169999999,1268,2768,14156,1717,659,-114
716.179999999,1312,2828,14216,1749,665,-125
716.189999999,1336,2964,14004,1616,629,-70
716.199999999,1300,2896,14080,1565,626,-77
716.209999999,1236,2984,14032,1645,678,-116
716.219999999,1296,3068,14128,1735,659,-91
716.229999999,1300,3128,14264,1721,713,-120
716.239999999,1284,3204,14100,1647,683,-98
716.249999999,1288,3200,14080,1704,688,-119
716.259999999,1292,3216,14200,1723,647,-125
716.269999999,1360,3288,14116,1698,682,-137
716.279999999,1240,3324,14132,1608,650,-118
716.289999999,1240,3352,14000,1554,634,-139
716.299999999,1172,3428,14116,1506,568,-110
716.309999999,1204,3480,13956,1502,572,-112
716.319999999,1248,3368,14116,1384,616,-124
716.329999999,1204,3424,14156,1280,628,-144
716.339999999,1300,3432,14028,1212,613,-102
716.349999999,1180,3448,13996,1182,582,-120
716.359999999,1352,3496,14148,1082,615,-108
716.369999999,1128,3492,13984,1036,539,-112
716.379999999,1184,3532,14076,1006,516,-122
716.389999999,1128,3528,14076,1022,499,-100
716.399999999,1180,3656,14060,962,494,-100
716.409999999,1192,3564,13924,975,486,-117
716.419999999,1168,3568,14096,995,506,-89
716.429999999,1092,3668,13952,996,487,-104
716.439999999,1100,3780,14124,916,521,-112
716.449999999,1140,3776,14016,989,519,-83
716.459999999,1196,3804,14104,970,488,-102
716.469999999,1192,3796,14072,945,587,-54
716.479999999,1044,3852,14048,857,488,-70
716.489999999,1140,3860,13912,869,437,-103
716.499999999,1164,3888,13880,849,486,-42
716.509999999,992,3852,14060,803,503,-84
716.519999999,1040,4012,13896,810,477,-87
716.529999999,1156,3976,13904,807,495,-96
716.539999999,1164,3996,14076,764,510,-86
716.549999999,1092,4000,13956,720,493,-100
716.559999999,996,4040,13980,603,456,-75
716.569999999,1088,4040,14032,429,377,-55
716.579999999,944,3996,13956,284,367,-25
716.589999999,984,3976,13836,338,355,-88
716.599999999,1096,3932,13996,583,525,-76
716.609999999,980,4084,13956,735,588,-111
716.619999999,1088,4136,13968,567,510,-118
716.629999999,856,4060,13884,314,417,-79
716.639999999,940,4000,13764,151,359,-54
716.649999999,1092,4064,14000,199,287,-63
716.659999999,896,4152,14076,332,264,-15
716.669999999,916,4232,14092,-40,220,52
716.679999999,932,4160,13600,-650,-43,109
716.689999999,1184,4016,14320,540,551,-67
716.699999999,1056,4288,14312,1128,680,-161
716.709999999,860,4228,13952,258,106,6
716.719999999,1132,4048,13932,56,120,20
716.729999999,952,4140,13648,-71,208,63
716.739999999,964,4104,13380,-647,-127,156
716.749999999,1024,3916,13680,-178,129,90
716.759999999,1084,4112,13780,205,204,56
716.769999999,960,4192,14052,512,82,-3
716.779999999,968,4228,14104,542,-1,40
716.789999999,808,4224,13884,414,84,55
716.799999999,884,4252,14172,315,132,38
716.809999999,896,4312,13924,243,114,43
716.819999999,1076,4284,14008,214,229,-3
716.829999999,912,4308,13900,255,295,6
716.839999999,948,4212,13792,302,290,-41
716.849999999,1008,4252,13804,303,243,-7
716.859999999,952,4188,13864,438,246,10
716.869999999,1004,4204,13844,481,247,-17
716.879999999,1100,4184,13892,448,225,-13
716.889999999,968,4228,13916,402,233,-12
716.899999999,936,4320,14036,287,248,2
716.909999999,1048,4220,14020,175,272,-3
716.919999999,920,4352,13772,128,311,-20
716.929999999,964,4276,13828,42,254,-2
716.939999999,1040,4264,13908,22,272,-12
716.949999999,1020,4240,13932,-25,256,-24
716.959999999,972,4264,13928,-29,277,-2
716.969999999,872,4328,13892,-54,288,-13
716.979999999,976,4244,13856,-43,275,5
716.989999999,932,4396,13968,-16,311,-3
716.999999999,996,4416,13828,18,335,9
717.009999999,948,4396,13892,-1,365,-3
717.019999999,960,4368,13888,26,373,-14
717.029999999,1004,4468,13872,22,330,-33
717.039999999,988,4304,13860,-81,254,-31
717.049999999,1004,4304,14056,74,605,-58
717.059999999,752,4288,13604,-684,45,84
717.069999999,1060,4312,13776,-427,326,39
717.079999999,1040,4340,13888,-8,367,-26
717.089999999,976,4292,13976,-145,277,-44
717.099999999,920,4244,13848,-250,169,26
717.109999999,1120,4260,14036,-478,129,53
717.119999999,900,4400,14068,-486,138,57
717.129999999,1028,4324,14032,-468,79,76
717.139999999,1016,4336,13944,-551,69,77
717.149999999,944,4312,13908,-614,144,44
717.159999999,1000,4420,14016,-605,77,60
717.169999999,928,4416,13948,-667,69,69
717.179999999,944,4332,13896,-738,57,80
717.189999999,916,4208,13820,-847,0,111
717.199999999,1056,4260,13796,-932,-13,112
717.209999999,1020,4176,13948,-980,20,126
717.219999999,992,4116,14052,-997,3,112
717.229999999,984,4128,14032,-1050,21,104
717.239999999,1060,4256,13924,-1208,-18,147
717.249999999,916,4096,13952,-1419,-12,160
717.259999999,1008,4116,14020,-1309,-28,117
717.269999999,1028,4116,13760,-1270,10,147
717.279999999,1004,4008,13852,-1323,25,121
717.289999999,1120,4024,13936,-1347,26,114
717.299999999,1060,4032,13928,-1352,-4,137
717.309999999,1076,3936,13976,-1479,-66,153
717.319999999,1028,3952,13840,-1473,-13,153
717.329999999,1100,4052,14132,-1363,13,159
717.339999999,1104,3964,14036,-1381,31,141
717.349999999,980,3852,14004,-1482,-40,140
717.359999999,1084,3844,13940,-1471,51,125
717.369999999,1160,3892,13996,-1487,-20,146
717.379999999,1028,3748,14000,-1594,-36,162
717.389999999,1164,3632,13920,-1602,18,183
717.399999999,1108,3776,13976,-1653,-12,151
717.409999999,1096,3648,13900,-1697,-126,192
717.419999999,1204,3608,13900,-1736,-63,158
717.429999999,1084,3592,14280,-1747,-10,146
717.439999999,1092,3576,14024,-1704,-71,150
717.449999999,1208,3564,13988,-1605,-108,128
717.459999999,1164,3540,13900,-1583,-125,148
717.469999999,1176,3460,14168,-1465,-92,106
717.479999999,1232,3460,14160,-1439,-105,93
717.489999999,1052,3436,14068,-1511,-102,136
717.499999999,1152,3392,14088,-1526,-98,125
717.509999999,1156,3324,14128,-1561,-119,121
717.519999999,1144,3328,14192,-1555,-78,110
717.529999999,1224,3332,14020,-1517,-98,110
717.539999999,1160,3252,14252,-1567,-89,120
717.549999999,1148,3236,14160,-1624,-92,107
717.559999999,1188,3236,14084,-1564,-80,108
717.569999999,1200,3208,14044,-1654,-66,130
717.579999999,1164,3156,14112,-1692,-111,117
717.589999999,1308,3144,14032,-1699,-170,128
717.599999999,1140,2964,13996,-1629,-145,143
717.609999999,1192,3124,13956,-1578,-149,113
717.619999999,1320,2924,14224,-1485,-114,101
717.629999999,1272,2912,14196,-1421,-111,100
717.639999999,1220,2828,14184,-1375,-66,78
717.649999999,1340,2940,14228,-1422,-75,120
717.659999999,1404,2960,14260,-1280,-42,81
717.669999999,1264,2916,14364,-1308,-31,58
717.679999999,1328,2792,14248,-1304,-11,78
717.689999999,1196,2900,14104,-1277,-63,73
717.699999999,1216,2828,14128,-1285,-50,70
717.709999999,1340,2748,14152,-1260,43,39
717.719999999,1232,2832,14136,-1274,-15,62
717.729999999,1344,2712,14092,-1381,-25,54
717.739999999,1312,2624,14004,-1312,-5,56
717.749999999,1296,2696,14288,-1351,-17,39
717.759999999,1408,2656,14276,-1426,-39,38
717.769999999,1400,2624,14208,-1477,8,45
717.779999999,1280,2532,13960,-1616,-133,84
717.789999999,1464,2516,14032,-1543,-120,63
717.799999999,1424,2392,14416,-1174,74,20
717.809999999,1356,2480,14364,-938,139,9
717.819999999,1348,2516,14360,-1060,76,14
717.829999999,1432,2472,14216,-1155,-27,70
717.839999999,1352,2344,14132,-1339,-137,65
717.849999999,1396,2324,14160,-1160,-131,78
717.859999999,1464,2324,14396,-974,67,39
717.869999999,1408,2404,14356,-1173,132,46
717.879999999,1296,2480,13704,-2031,-53,121
717.889999999,1556,2032,14168,-1984,-252,110
717.899999999,1676,2148,14656,-293,333,-83
717.909999999,1300,2496,13996,-672,-274,37
717.919999999,1588,2180,14284,-1539,-493,111
717.929999999,1536,2048,14464,-596,344,-18
717.939999999,1232,2204,13784,-1487,-384,101
717.949999999,1492,2016,13888,-1618,-419,147
717.959999999,1616,2092,14356,-693,222,27
717.969999999,1432,2384,14780,-312,372,-45
717.979999999,1412,2356,14592,-465,215,3
717.989999999,1364,2216,14408,-684,99,42
717.999999999,1388,2256,14368,-965,114,51
718.009999999,1344,2172,14376,-1075,72,95
718.019999999,1524,2160,14184,-1197,-22,72
718.029999999,1484,2040,14244,-1273,-20,76
718.039999999,1452,2000,14104,-1229,-19,58
718.049999999,1472,1908,14100,-1113,7,83
718.059999999,1444,1860,13936,-786,30,49
718.069999999,1532,1912,14076,-416,81,27
718.079999999,1428,1928,14464,-199,152,17
718.089999999,1508,1828,14420,-70,207,8
718.099999999,1488,1880,14360,-60,201,2
718.109999999,1512,1964,14236,-95,223,19
718.119999999,1572,1820,14168,-92,144,24
718.129999999,1564,1948,14140,-66,166,47
718.139999999,1572,1968,14092,37,165,22
718.149999999,1524,1912,14140,137,227,61
718.159999999,1520,1960,14116,227,227,38
718.169999999,1444,1960,14112,396,336,11
718.179999999,1616,2008,14116,604,398,0
718.189999999,1536,2092,14112,759,439,-21
718.199999999,1568,1920,14028,959,480,-2
718.209999999,1348,2108,14224,1194,566,-45
718.219999999,1356,2112,14296,1312,602,-93
718.229999999,1532,2084,14424,1252,523,-66
718.239999999,1372,2136,14376,1555,804,-98
718.249999999,1384,2252,14072,835,380,-1
718.259999999,1428,2100,14232,905,475,-20
718.269999999,1540,2268,14032,1379,575,-120
718.279999999,1288,2220,14128,1052,246,-29
718.289999999,1460,2180,14236,1317,463,-96
718.299999999,1468,2336,14096,1563,448,-67
718.309999999,1376,2364,14276,1486,423,-89
718.319999999,1420,2360,14136,1457,409,-54
718.329999999,1436,2384,14256,1477,358,-72
718.339999999,1476,2432,14060,1676,422,-95
718.349999999,1512,2600,14296,1830,544,-106
718.359999999,1500,2648,14232,1915,628,-106
718.369999999,1308,2584,14228,2014,669,-137
718.379999999,1452,2732,14216,1932,701,-96
718.389999999,1428,2660,14404,1754,695,-113
718.399999999,1476,2704,14308,1762,668,-86
718.409999999,1324,2804,14256,1761,661,-109
718.419999999,1144,2792,14092,1606,588,-86
718.429999999,1392,2872,14236,1413,528,-76
718.439999999,1280,2904,14208,1369,551,-47
718.449999999,1344,2872,14208,1430,598,-94
718.459999999,1236,2928,14212,1383,599,-90
718.469999999,1172,2988,14204,1305,511,-63
718.479999999,1268,3024,14108,1142,447,-68
718.489999999,1288,3076,14136,1036,510,-54
718.499999999,1260,3060,14076,1138,542,-41
718.509999999,1260,3104,14164,1214,503,-45
718.519999999,1192,3120,14176,1282,563,-67
718.529999999,1276,3244,14076,1292,557,-69
718.539999999,1280,3152,14148,1314,566,-44
718.549999999,1316,3196,14080,1348,573,-55
718.559999999,1236,3156,13964,1339,584,-75
718.569999999,1228,3276,14008,1349,578,-99
718.579999999,1132,3404,14032,1301,549,-55
718.589999999,1280,3368,14136,1202,496,-35
718.599999999,1184,3360,14104,1110,516,-61
718.609999999,1164,3396,14040,1107,528,-75
718.619999999,1124,3408,13984,1103,494,-111
718.629999999,1212,3460,14060,1051,527,-80
718.639999999,1156,3420,13908,1121,525,-52
718.649999999,1204,3480,13960,1082,575,-79
718.659999999,1244,3480,14124,1073,507,-94
718.669999999,1268,3556,14104,1070,493,-87
718.679999999,1192,3692,14032,981,497,-105
718.689999999,1208,3612,14060,976,484,-87
718.699999999,1144,3612,14104,944,479,-102
718.709999999,1192,3760,14052,991,466,-61
718.719999999,1096,3644,13960,991,495,-58
718.729999999,1044,3664,13988,1040,531,-94
718.739999999,1072,3664,14004,1008,538,-106
718.749999999,1012,3860,13948,934,514,-75
718.759999999,1012,3868,13916,863,514,-64
718.769999999,1080,3792,14088,831,496,-95
718.779999999,1160,3836,14020,786,422,-57
718.789999999,1020,3884,13964,748,407,-44
718.799999999,1140,3828,13972,735,429,-32
718.809999999,1044,4000,13872,718,450,-55
718.819999999,1068,3928,14004,699,472,-91
718.829999999,1100,4012,13860,717,461,-84
718.839999999,948,3884,13936,611,425,-60
718.849999999,1084,3920,13968,464,367,-63
718.859999999,992,3844,13716,352,310,-24
718.869999999,1108,3960,13924,388,332,-46
718.879999999,1056,4004,14104,686,515,-74
718.889999999,940,4152,14048,756,550,-102
718.899999999,980,4080,14044,645,505,-63
718.909999999,992,4124,14068,426,383,-70
718.919999999,920,4104,13640,260,341,-46
718.929999999,1036,4016,13928,328,314,-7
718.939999999,936,4004,14120,404,229,-23
718.949999999,892,4072,13808,-222,230,82
718.959999999,1180,3952,13836,-375,130,54
718.969999999,1176,4108,14380,997,671,-167
718.979999999,908,4340,14068,697,343,-54
718.989999999,1080,4192,13808,-43,43,49
718.999999999,1140,4156,13968,178,314,21
719.009999999,868,4040,13540,-541,-23,124
719.019999999,1104,3880,13456,-471,-57,143
719.029999999,1208,3972,13584,119,165,39
719.039999999,1296,4036,14100,348,114,18
719.049999999,932,4132,14100,537,-11,5
719.059999999,972,4104,14024,450,2,40
719.069999999,948,4188,13900,312,126,51
719.079999999,964,4248,14040,310,148,16
719.089999999,1128,4272,14040,240,227,2
719.099999999,1100,4184,14044,214,363,-15
719.109999999,1020,4208,13896,231,339,-46
719.119999999,920,4224,13864,228,295,-37
719.129999999,944,4156,13536,284,275,-39
719.139999999,1032,4184,13776,395,306,-2
719.149999999,972,4208,14024,428,264,-28
719.159999999,1100,4236,14008,413,289,-30
719.169999999,988,4224,13956,266,245,-31
719.179999999,976,4228,13920,188,282,-47
719.189999999,952,4116,14012,130,274,0
719.199999999,1012,4288,13884,5,320,-11
719.209999999,1048,4268,13984,-81,266,19
719.219999999,1012,4264,13828,-113,238,28
719.229999999,1028,4272,14004,-149,268,-5
719.239999999,980,4268,13888,-136,252,-10
719.249999999,1048,4296,13684,-168,273,-17
719.259999999,936,4240,13880,-164,294,7
719.269999999,972,4212,13912,-150,311,10
719.279999999,960,4280,13900,-118,347,18
719.289999999,1020,4216,13888,-99,319,-34
719.299999999,952,4428,13900,-159,306,-21
719.309999999,1064,4308,13956,-318,155,-12
719.319999999,1020,4488,14292,-67,598,-61
719.329999999,876,4408,13500,-733,166,58
719.339999999,1132,4112,13668,-837,261,61
719.349999999,964,4208,14088,-396,361,7
719.359999999,884,4336,13996,-519,245,-23
719.369999999,952,4192,13944,-814,129,69
719.379999999,1004,4292,13880,-1088,65,104
719.389999999,1104,4288,14016,-1324,-51,129
719.399999999,1040,4156,13992,-1219,-116,147
719.409999999,1044,4088,13924,-1328,-115,158
719.419999999,1028,4184,14060,-1509,-90,144
719.429999999,980,4132,13984,-1489,-92,161
719.439999999,1132,4064,14036,-1502,-112,175
719.449999999,1108,4060,14052,-1561,-78,179
719.459999999,1040,3944,14012,-1580,-30,162
719.469999999,1044,3972,13984,-1654,-61,187
719.479999999,1016,3884,14020,-1641,-89,159
719.489999999,1056,3932,14076,-1508,-3,156
719.499999999,976,3880,13972,-1491,8,116
719.509999999,1136,3720,13956,-1599,-13,110
719.519999999,1068,3812,13964,-1634,-33,134
719.529999999,1052,3804,14008,-1642,-13,130
719.539999999,1064,3628,13944,-1677,-71,149
719.549999999,952,3648,13896,-1681,-99,140
719.559999999,1116,3600,13960,-1691,-94,160
719.569999999,1172,3604,13932,-1700,-83,153
719.579999999,1104,3488,13996,-1642,-31,149
719.589999999,1096,3564,14080,-1571,-111,145
719.599999999,1092,3556,14152,-1478,-29,100
719.609999999,1192,3536,14152,-1496,-32,134
719.619999999,1116,3492,14216,-1568,-66,123
719.629999999,1092,3500,14072,-1546,-16,131
719.639999999,1224,3400,14124,-1531,-50,153
719.649999999,1100,3356,14092,-1533,-33,124
719.659999999,1224,3404,14032,-1594,-54,140
719.669999999,1120,3244,14184,-1597,-118,108
719.679999999,1140,3176,14016,-1554,-131,151
719.689999999,1164,3188,13912,-1508,-109,127
719.699999999,1172,3188,14104,-1406,-37,120
719.709999999,1152,3156,14188,-1466,-72,89
719.719999999,1300,3100,13956,-1513,-78,103
719.729999999,1204,3096,14004,-1513,-107,113
719.739999999,1232,3068,13980,-1505,-84,85
719.749999999,1272,3088,14100,-1504,-111,51
719.759999999,1184,2932,14200,-1463,-93,76
719.769999999,1324,3088,14140,-1384,-70,81
719.779999999,1156,2980,14152,-1414,-36,45
719.789999999,1192,2972,14168,-1389,-50,75
719.799999999,1300,2920,14188,-1463,-15,65
719.809999999,1328,2852,14124,-1408,-24,79
719.819999999,1156,2896,14004,-1283,-96,73
719.829999999,1300,2860,14060,-1293,-35,61
719.839999999,1272,2804,14084,-1309,-73,86
719.849999999,1300,2704,14176,-1315,-48,81
719.859999999,1284,2744,14184,-1318,-19,85
719.869999999,1336,2780,14200,-1279,-44,66
719.879999999,1224,2676,14156,-1298,-15,39
719.889999999,1372,2676,14172,-1280,-29,52
719.899999999,1352,2660,14200,-1265,-8,89
719.909999999,1272,2612,14180,-1233,-8,42
719.919999999,1280,2580,14220,-1238,8,60
719.929999999,1396,2540,14036,-1242,9,75
719.939999999,1448,2460,14204,-1263,-34,69
719.949999999,1280,2540,14180,-1238,-8,62
719.959999999,1312,2488,14244,-1208,-16,45
719.969999999,1372,2536,14288,-1163,33,23
719.979999999,1292,2412,14296,-1180,46,20
719.989999999,1388,2428,14224,-1197,84,-12
719.999999999,1260,2440,14260,-1148,79,13
720.009999999,1332,2364,14232,-1220,55,12
720.019999999,1372,2300,14192,-1243,-5,47
720.029999999,1372,2288,13956,-1250,16,14
720.039999999,1424,2312,14076,-1301,-116,66
720.049999999,1456,2160,14156,-1107,116,7
720.059999999,1448,2268,14340,-795,181,-2
720.069999999,1380,2228,14356,-729,138,8
720.079999999,1356,2236,14220,-849,90,9
720.089999999,1364,2228,14304,-986,-14,36
720.099999999,1436,2196,14080,-1013,-48,88
720.109999999,1540,2152,14332,-733,40,30
720.119999999,1436,2196,14480,-740,242,6
720.129999999,1236,2336,14156,-1370,198,66
720.139999999,1440,2096,13664,-2061,-215,116
720.149999999,1676,1904,14760,-994,285,4
720.159999999,1392,2220,14432,8,83,-66
720.169999999,1324,2096,13756,-1300,-588,119
720.179999999,1604,1832,14636,-651,107,36
720.189999999,1344,2092,14096,-518,145,29
720.199999999,1244,2072,13824,-1467,-464,183
720.209999999,1656,1780,14148,-778,34,97
720.219999999,1600,2036,14492,-8,421,-16
720.229999999,1364,2100,14604,123,357,-43
720.239999999,1416,2136,14356,-28,190,20
720.249999999,1432,2092,14308,-187,145,46
720.259999999,1340,2092,14276,-200,172,73
720.269999999,1472,2044,14316,-265,158,82
720.279999999,1520,1992,14212,-277,81,54
720.289999999,1564,1988,14168,-182,160,61
720.299999999,1408,1976,13900,-58,278,54
720.309999999,1380,1884,14016,95,223,42
720.319999999,1528,1804,13944,426,241,22
720.329999999,1488,1900,14292,868,346,-31
720.339999999,1484,2012,14348,1017,370,-44
720.349999999,1532,2016,14384,1029,411,-59
720.359999999,1496,2080,14392,953,443,-47
720.369999999,1452,2092,14188,834,433,-5
720.379999999,1532,2164,14256,774,429,-35
720.389999999,1500,2064,14176,816,384,-40
720.399999999,1464,2228,14072,795,395,-4
720.409999999,1404,2244,14072,851,354,-13
720.419999999,1424,2160,14116,945,331,-7
720.429999999,1432,2316,14156,1157,352,-15
720.439999999,1492,2252,14060,1446,441,-25
720.449999999,1388,2340,14152,1784,497,-30
720.459999999,1324,2408,14280,2120,607,-71
720.469999999,1356,2628,14272,2205,638,-100
720.479999999,1428,2440,14520,2249,737,-105
720.489999999,1344,2600,14392,2336,978,-131
720.499999999,1352,2644,14124,1661,635,-53
720.509999999,1404,2664,14244,1690,714,-105
720.519999999,1252,2556,14040,1870,786,-139
720.529999999,1328,2776,14056,1632,421,-89
720.539999999,1348,2772,14188,1738,586,-127
720.549999999,1400,2808,14320,1834,678,-116
720.559999999,1276,2800,14292,1643,588,-71
720.569999999,1392,2792,14328,1446,508,-75
720.579999999,1316,2892,14176,1378,446,-71
720.589999999,1396,3008,14260,1500,477,-103
720.599999999,1232,2952,14228,1570,525,-138
720.609999999,1292,3020,14384,1622,605,-114
720.619999999,1292,3044,14228,1573,592,-130
720.629999999,1280,3072,14024,1533,596,-89
720.639999999,1220,3124,14020,1449,611,-81
720.649999999,1288,3136,14208,1551,529,-95
720.659999999,1180,3136,14076,1467,594,-105
720.669999999,1296,3240,14124,1294,497,-74
720.679999999,1280,3256,13960,1267,517,-43
720.689999999,1188,3320,14132,1327,593,-90
720.699999999,1112,3288,14060,1437,577,-84
720.709999999,1128,3276,14060,1356,601,-59
720.719999999,1180,3392,14160,1257,516,-72
720.729999999,1200,3376,14088,1136,525,-42
720.739999999,1104,3496,14140,1082,527,-65
720.749999999,1132,3580,14128,1042,501,-59
720.759999999,1152,3500,14176,1096,489,-60
720.769999999,1160,3464,14040,1083,549,-67
720.779999999,1000,3588,14032,1073,604,-74
720.789999999,972,3644,14184,1071,512,-95
720.799999999,1124,3664,14080,1054,541,-104
720.809999999,972,3672,14084,1010,538,-87
720.819999999,1040,3776,14068,986,508,-79
720.829999999,1060,3692,13924,883,461,-72
720.839999999,1092,3688,14068,884,475,-46
720.849999999,1140,3784,14068,807,478,-73
720.859999999,1148,3680,14004,851,492,-76
720.869999999,1140,3684,13996,818,504,-83
720.879999999,1084,3804,14128,833,498,-86
720.889999999,1108,3876,13844,767,428,-65
720.899999999,976,3860,14044,727,450,-70
720.909999999,1128,3924,14052,727,418,-120
720.919999999,1136,3892,13960,661,411,-49
720.929999999,984,3896,13920,665,405,-46
720.939999999,1068,3864,13900,670,351,-55
720.949999999,1112,3912,13868,613,414,-40
720.959999999,1008,3952,14052,650,402,-56
720.969999999,992,4008,13896,591,409,-69
720.979999999,996,3980,13964,551,396,-33
720.989999999,916,4012,13908,530,417,-61
720.999999999,908,4000,13884,538,411,-43
721.009999999,1036,3996,13908,447,413,-61
721.019999999,1012,4140,13900,470,392,-48
721.029999999,876,4068,14036,457,380,-44
721.039999999,1084,4088,13940,434,414,-26
721.049999999,988,4004,14016,424,396,-32
721.059999999,1012,4104,13956,408,398,-51
721.069999999,904,4068,13916,387,363,-25
721.079999999,968,4148,13916,383,389,-63
721.089999999,972,4172,14024,348,347,-37
721.099999999,852,4080,13880,321,390,-53
721.109999999,900,4036,13896,355,355,-48
721.119999999,960,4204,13988,317,327,-27
721.129999999,968,4156,14032,348,385,-42
721.139999999,996,4216,13964,328,366,-53
721.149999999,1024,4240,13972,154,303,-11
721.159999999,824,4040,13836,104,277,3
721.169999999,996,4108,13852,3,237,16
721.179999999,1092,4208,14040,175,358,-37
721.189999999,1032,4304,14168,384,501,-71
721.199999999,904,4244,14140,347,444,-73
721.209999999,972,4308,13900,189,386,-56
721.219999999,824,4312,13760,-30,302,-11
721.229999999,836,4188,13864,-21,269,-20
721.239999999,876,4236,13960,26,221,-10
721.249999999,828,4252,13972,-243,166,89
721.259999999,896,4128,13384,-983,-37,154
721.269999999,1244,4172,14168,-154,379,-15
721.279999999,948,4496,14376,637,593,-145
721.289999999,936,4320,13908,-247,-8,44
721.299999999,972,4248,13824,-367,43,63
721.309999999,976,4264,13668,-449,113,83
721.319999999,836,4096,13528,-839,-65,142
721.329999999,932,4016,13716,-466,-40,119
721.339999999,1020,4116,13768,-120,83,38
721.349999999,948,4152,14172,78,-14,18
721.359999999,888,4216,13988,-35,-82,82
721.369999999,852,4168,13968,-137,0,75
721.379999999,880,4336,13952,-182,-7,86
721.389999999,932,4280,14032,-228,36,64
721.399999999,952,4200,13880,-241,190,43
721.409999999,940,4308,13804,-211,231,7
721.419999999,824,4252,13856,-232,219,16
721.429999999,928,4192,13676,-185,237,34
721.439999999,1036,4232,13888,-97,226,-7
721.449999999,968,4160,14004,-93,237,-4
721.459999999,976,4140,14028,-221,173,-4
721.469999999,976,4148,13888,-377,166,18
721.479999999,968,4152,14188,-515,150,10
721.489999999,1000,4116,13844,-640,188,31
721.499999999,928,4236,13972,-846,188,43
721.509999999,992,4152,13896,-967,97,54
721.519999999,884,4140,13848,-1073,49,72
721.529999999,1092,4124,13868,-1069,37,119
721.539999999,984,3964,13900,-1078,3,116
721.549999999,1000,3960,14028,-986,58,94
721.559999999,1064,4156,13852,-970,76,115
721.569999999,992,4168,14008,-950,121,91
721.579999999,1048,4000,13992,-1014,155,66
721.589999999,1040,4052,13880,-1028,187,71
721.599999999,996,4020,13972,-1142,113,66
721.609999999,960,3980,13964,-1374,-20,83
721.619999999,984,3908,14292,-1033,335,39
721.629999999,928,4048,13716,-1590,46,153
721.639999999,976,3832,13716,-2173,-185,220
721.649999999,928,3820,14024,-1461,10,137
721.659999999,1092,3836,14004,-1268,-54,127
721.669999999,1004,3748,13868,-1477,-93,146
721.679999999,1020,3716,13900,-1531,-74,150
721.689999999,1112,3724,14004,-1576,-98,156
721.699999999,1012,3632,14172,-1530,-70,158
721.709999999,1056,3608,14036,-1542,-100,153
721.719999999,1152,3588,14072,-1538,-30,136
721.729999999,1148,3464,14028,-1697,-105,126
721.739999999,1020,3500,14028,-1807,-148,171
721.749999999,1120,3368,14124,-1804,-139,133
721.759999999,1132,3280,14072,-1651,-154,145
721.769999999,1116,3376,14036,-1500,-105,133
721.779999999,1152,3296,14072,-1657,-150,153
721.789999999,1028,3276,14020,-1738,-183,119
721.799999999,1204,3200,14156,-1559,-167,133
721.809999999,1164,3216,14052,-1449,-102,98
721.819999999,1052,3108,14156,-1434,-127,128
721.829999999,1168,3096,14004,-1570,-89,133
721.839999999,1144,3124,14124,-1594,-40,96
721.849999999,1228,3000,14240,-1561,-65,111
721.859999999,1116,3064,14164,-1539,-55,72
721.869999999,1256,3048,14144,-1468,-49,80
721.879999999,1232,2952,14176,-1443,-30,66
721.889999999,1180,2924,14140,-1469,-49,76
721.899999999,1224,2908,14200,-1472,-80,82
721.909999999,1248,2880,14284,-1316,-60,66
721.919999999,1232,2904,14188,-1336,-14,74
721.929999999,1232,2856,14208,-1341,-7,56
721.939999999,1256,2768,14188,-1292,7,57
721.949999999,1392,2804,14192,-1292,-37,49
721.959999999,1232,2708,14236,-1227,31,71
721.969999999,1244,2780,14216,-1217,8,34
721.979999999,1356,2704,14276,-1160,-7,35
721.989999999,1460,2704,14036,-1161,26,35
721.999999999,1268,2696,14116,-1282,-35,49
722.009999999,1304,2644,14220,-1226,-32,35
722.019999999,1216,2536,14088,-1177,-45,44
722.029999999,1296,2512,14124,-1126,-18,23
722.039999999,1324,2632,14268,-1130,5,64
722.049999999,1344,2476,14144,-1165,70,13
722.059999999,1344,2560,14040,-1161,-5,51
722.069999999,1284,2468,14276,-1146,-29,79
722.079999999,1280,2448,14296,-1085,16,12
722.089999999,1232,2424,14212,-1068,41,43
722.099999999,1332,2412,14280,-1098,64,25
722.109999999,1268,2416,14316,-1141,15,43
722.119999999,1256,2368,14216,-1144,68,33
722.129999999,1356,2352,14196,-1122,-20,40
722.139999999,1476,2240,14208,-1079,13,29
722.149999999,1420,2272,14292,-961,63,40
722.159999999,1356,2316,14508,-916,80,54
722.169999999,1416,2236,14280,-971,73,40
722.179999999,1380,2176,14240,-953,80,35
722.189999999,1372,2272,14300,-888,59,59
722.199999999,1372,2224,14124,-909,83,33
722.209999999,1348,2220,14180,-829,49,44
722.219999999,1340,2128,14268,-731,85,12
722.229999999,1436,2212,14384,-709,90,36
722.239999999,1404,2108,14268,-745,83,29
722.249999999,1232,2160,14212,-939,-60,45
722.259999999,1464,2056,14188,-810,19,33
722.269999999,1336,2016,14452,-348,174,12
722.279999999,1468,2248,14284,-156,249,-25
722.289999999,1408,2172,14396,-196,190,-17
722.299999999,1360,2160,14276,-287,120,2
722.309999999,1324,2108,14144,-331,64,42
722.319999999,1464,2124,14068,-133,65,18
722.329999999,1520,2072,14444,158,309,14
722.339999999,1400,2196,14252,-149,326,75
722.349999999,1416,2212,13716,-983,73,125
722.359999999,1496,1936,14496,-234,329,33
722.369999999,1476,2164,14368,954,317,-103
722.379999999,1244,2136,13808,-89,-131,38
722.389999999,1628,1964,14472,489,387,-62
722.399999999,1224,2200,14000,450,438,-24
722.409999999,1296,2028,13616,-528,-322,149
722.419999999,1544,2036,13984,210,227,62
722.429999999,1476,2152,14516,818,604,-39
722.439999999,1460,2252,14692,1171,589,-59
722.449999999,1264,2392,14520,955,401,-48
722.459999999,1384,2320,14332,685,405,-5
722.469999999,1356,2236,14292,698,404,24
722.479999999,1408,2432,14240,601,270,25
722.489999999,1448,2268,14248,493,213,21
722.499999999,1368,2288,14132,378,240,-8
722.509999999,1280,2252,13876,376,302,21
722.519999999,1396,2192,13968,585,328,-24
722.529999999,1420,2304,13988,1029,411,-20
722.539999999,1400,2272,14128,1420,420,-67
722.549999999,1280,2304,14268,1683,533,-105
722.559999999,1332,2336,14328,1765,572,-96
722.569999999,1452,2392,14372,1672,593,-99
722.579999999,1324,2620,14216,1558,652,-107
722.589999999,1308,2576,14276,1442,629,-107
722.599999999,1264,2576,14180,1339,575,-101
722.609999999,1344,2652,14148,1141,516,-74
722.619999999,1328,2724,14212,1129,485,-73
722.629999999,1268,2708,14168,1101,506,-48
722.639999999,1324,2784,14012,1148,520,-95
722.649999999,1272,2816,14188,1265,549,-59
722.659999999,1148,2760,14256,1430,592,-70
722.669999999,1196,2896,14112,1626,630,-95
722.679999999,1252,2964,14264,1615,621,-117
722.689999999,1256,2928,14428,1611,646,-106
722.699999999,1164,3068,14168,1585,807,-115
722.709999999,1036,2944,13872,890,485,-22
722.719999999,1256,2884,14004,995,545,-87
722.729999999,1212,2944,14036,1224,554,-68
722.739999999,1152,2984,14168,1138,357,-65
722.749999999,1236,3100,14232,1456,515,-100
722.759999999,1280,3044,14120,1381,425,-82
722.769999999,1220,3220,14268,1253,446,-45
722.779999999,1124,3144,14140,1193,343,-21
722.789999999,1200,3308,14300,1080,364,-60
722.799999999,1164,3288,14116,1059,388,-57
722.809999999,1316,3340,14092,1063,425,-54
722.819999999,1184,3288,14160,1124,474,-83
722.829999999,1104,3304,14084,1083,431,-52
722.839999999,1200,3264,13972,891,461,-57
722.849999999,1192,3376,14164,985,427,-55
722.859999999,1112,3404,14084,1064,451,-40
722.869999999,1084,3260,14216,971,448,-29
722.879999999,1200,3512,13980,850,349,-3
722.889999999,1124,3576,13988,901,492,-58
722.899999999,1116,3516,14076,1034,515,-65
722.909999999,1160,3552,14172,1109,511,-61
722.919999999,1112,3496,13892,985,468,-88
722.929999999,1108,3484,14068,971,492,-55
722.939999999,1120,3592,14076,868,486,-45
722.949999999,1072,3580,14080,741,486,-55
722.959999999,1100,3712,13940,824,476,-14
722.969999999,1204,3700,13968,788,461,-35
722.979999999,1108,3672,14008,792,428,-55
722.989999999,1072,3676,13900,756,420,-45
722.999999999,1028,3800,14196,765,457,-58
723.009999999,1036,3712,14164,778,454,-73
723.019999999,1032,3772,13944,824,432,-63
723.029999999,1072,3816,14016,756,446,-47
723.039999999,1104,3764,13868,702,426,-59
723.049999999,1020,3788,13960,694,406,-26
723.059999999,956,3832,13976,679,419,-83
723.069999999,1020,3756,14028,666,427,-66
723.079999999,1036,3800,14136,638,417,-73
723.089999999,1004,3884,13960,636,440,-58
723.099999999,1004,3880,13888,650,395,-63
723.109999999,976,3928,14044,629,393,-55
723.119999999,988,3988,13932,615,407,-69
723.129999999,1008,3896,13872,540,389,-57
723.139999999,940,3920,13900,575,389,-44
723.149999999,952,3904,13940,570,396,-39
723.159999999,944,3912,14052,554,404,-55
723.169999999,956,4124,13936,534,397,-45
723.179999999,952,3984,14040,523,390,-74
723.189999999,1004,4060,14016,449,377,-35
723.199999999,1032,4056,13792,377,413,-79
723.209999999,1072,4064,13780,314,378,-41
723.219999999,964,3980,13860,294,370,-23
723.229999999,1012,4188,13852,287,366,-37
723.239999999,1040,4108,14000,280,357,-49
723.249999999,888,4104,13896,276,354,-35
723.259999999,968,4092,14012,294,363,-40
723.269999999,920,4148,13872,186,331,-45
723.279999999,880,4152,13784,78,267,-28
723.289999999,956,4256,13896,-57,246,-12
723.299999999,1024,4148,13824,-23,291,-2
723.309999999,1024,4120,13980,215,404,-53
723.319999999,788,4240,14104,55,337,-44
723.329999999,932,4192,13828,-145,290,-31
723.339999999,1024,4116,13780,-192,282,-40
723.349999999,956,4268,14004,-102,210,-11
723.359999999,780,4232,13976,-223,120,73
723.369999999,700,4144,13404,-1108,-57,172
723.379999999,1132,4064,13972,-491,259,34
723.389999999,1008,4320,14440,550,586,-139
723.399999999,692,4292,14168,-69,85,-22
723.409999999,952,4208,13824,-485,-65,96
723.419999999,1008,4244,13944,-414,187,57
723.429999999,820,4076,13468,-1052,-94,165
723.439999999,1032,3932,13528,-815,-157,144
723.449999999,1044,4124,13680,-327,69,58
723.459999999,1024,4072,14164,-98,73,16
723.469999999,912,4188,14016,-111,-120,43
723.479999999,904,4216,13920,-316,-51,86
723.489999999,784,4100,13868,-322,-6,105
723.499999999,964,4192,14076,-386,-68,111
723.509999999,1040,4320,13992,-475,33,89
723.519999999,888,4268,14092,-436,123,56
723.529999999,964,4164,14024,-541,189,38
723.539999999,964,4108,13844,-579,201,52
723.549999999,984,3980,13944,-506,139,69
723.559999999,1028,4104,13876,-503,110,54
723.569999999,1020,4052,14104,-594,62,82
723.579999999,1000,4072,14240,-717,113,47
723.589999999,980,4032,13952,-943,49,98
723.599999999,1052,3916,13928,-1092,3,116
723.609999999,1008,3968,13932,-1131,29,102
723.619999999,1064,3916,14000,-1333,66,112
723.629999999,1048,3904,14072,-1420,4,117
723.639999999,1096,3884,13924,-1422,54,121
723.649999999,1072,3848,13868,-1428,-40,164
723.659999999,1076,3812,13828,-1325,-28,140
723.669999999,1032,3800,14040,-1165,-17,138
723.679999999,1016,3764,14196,-1086,50,90
723.689999999,1048,3808,13908,-1233,-86,110
723.699999999,1112,3676,14264,-1086,177,79
723.709999999,976,3720,14036,-1384,88,152
723.719999999,996,3612,13644,-2069,-237,221
723.729999999,1124,3476,13888,-1492,-52,116
723.739999999,1160,3528,14080,-870,1,26
723.749999999,1096,3672,14140,-1033,-28,80
723.759999999,1120,3656,13956,-1196,-30,94
723.769999999,1180,3560,13860,-1323,-113,147
723.779999999,1092,3424,14188,-1258,-82,110
723.789999999,1100,3540,14096,-1256,-69,131
723.799999999,1196,3432,14124,-1402,-53,97
723.809999999,1084,3460,14296,-1378,-33,80
723.819999999,1180,3480,14120,-1502,34,67
723.829999999,1112,3408,14200,-1625,-3,115
723.839999999,1144,3336,14212,-1756,-121,146
723.849999999,1140,3204,14168,-1835,-121,133
723.859999999,1208,3180,14168,-1735,-132,139
723.869999999,1148,3112,14224,-1572,-153,141
723.879999999,1128,3180,14256,-1538,-130,79
723.889999999,1196,3204,14196,-1606,-106,75
723.899999999,1128,2992,14004,-1643,-143,133
723.909999999,1176,2992,14064,-1580,-116,88
723.919999999,1212,2996,14244,-1555,-165,101
723.929999999,1240,2948,14148,-1509,-177,116
723.939999999,1160,3004,14160,-1601,-107,105
723.949999999,1260,2956,14084,-1486,-90,99
723.959999999,1228,2852,13968,-1419,-27,56
723.969999999,1256,2936,14140,-1487,-51,96
723.979999999,1260,2920,14148,-1500,-70,68
723.989999999,1160,2864,14140,-1366,-13,49
723.999999999,1196,2848,14180,-1325,-21,43
724.009999999,1344,2764,14204,-1321,6,53
724.019999999,1204,2628,14196,-1351,-53,102
724.029999999,1356,2728,14164,-1375,-38,78
724.039999999,1332,2740,14376,-1445,-50,91
724.049999999,1260,2632,14276,-1471,-81,67
724.059999999,1340,2556,14224,-1549,-105,93
724.069999999,1320,2552,14148,-1523,-109,80
724.079999999,1308,2572,14112,-1434,-92,89
724.089999999,1304,2560,14196,-1370,-10,46
724.099999999,1352,2448,14196,-1282,12,42
724.109999999,1280,2476,14204,-1386,-46,71
724.119999999,1268,2448,14332,-1404,-20,20
724.129999999,1336,2440,14176,-1347,-65,20
724.139999999,1416,2492,14224,-1311,-97,66
724.149999999,1232,2324,14248,-1264,-59,68
724.159999999,1412,2388,14328,-1243,11,18
724.169999999,1328,2336,14284,-1191,-24,35
724.179999999,1352,2332,14120,-1298,-3,43
724.189999999,1336,2288,14304,-1245,-26,31
724.199999999,1404,2236,14216,-1177,-10,31
724.209999999,1392,2196,14400,-1164,14,50
724.219999999,1372,2204,14168,-1090,-14,70
724.229999999,1356,2088,14124,-1072,11,5
724.239999999,1448,2128,14348,-1031,-13,58
724.249999999,1436,2092,14276,-1035,21,55
724.259999999,1420,2112,14320,-981,36,26
724.269999999,1448,2160,14140,-1000,9,48
724.279999999,1340,2060,14292,-985,56,20
724.289999999,1412,2036,14272,-849,71,43
724.299999999,1456,2168,14316,-802,34,26
724.309999999,1460,2100,14272,-741,106,1
724.319999999,1392,2056,14304,-721,98,35
724.329999999,1488,1964,14232,-715,84,51
724.339999999,1348,1984,14032,-745,20,68
724.349999999,1396,1924,14040,-664,-12,44
724.359999999,1424,1936,14224,-366,137,10
724.369999999,1460,1988,14304,21,282,-1
724.379999999,1472,2016,14360,124,271,-25
724.389999999,1520,2044,14192,149,231,-3
724.399999999,1432,1944,14068,152,189,-2
724.409999999,1408,1892,13992,235,151,30
724.419999999,1488,1956,14260,614,325,-33
724.429999999,1412,2024,14332,792,492,-32
724.439999999,1236,2148,14032,361,477,49
724.449999999,1404,2064,13504,-370,151,74
724.459999999,1680,1820,14612,997,642,-58
724.469999999,1412,2048,14404,2001,580,-147
724.479999999,1304,2236,13968,1056,-22,-40
724.489999999,1564,2084,14436,1535,516,-67
724.499999999,1340,2188,14380,1808,851,-109
724.509999999,1204,2232,13700,500,-2,113
724.519999999,1492,2008,13964,987,417,56
724.529999999,1484,2168,14236,1822,753,-70
724.539999999,1380,2440,14540,2132,742,-124
724.549999999,1328,2404,14416,2096,636,-121
724.559999999,1324,2452,14324,1938,557,-41
724.569999999,1320,2552,14192,1924,712,-41
724.579999999,1344,2512,14392,1967,604,-41
724.589999999,1388,2632,14276,1758,548,-58
724.599999999,1380,2568,14184,1514,585,-57
724.609999999,1232,2672,14248,1396,607,-61
724.619999999,1260,2692,14060,1328,687,-50
724.629999999,1380,2664,14124,1405,699,-86
724.639999999,1312,2728,14228,1522,578,-109
724.649999999,1408,2640,14272,1483,513,-106
724.659999999,1316,2784,14360,1388,500,-112
724.669999999,1356,2780,14436,1286,465,-55
724.679999999,1296,2808,14124,1164,414,-46
724.689999999,1344,2808,14144,1120,409,-40
724.699999999,1256,2836,14208,1152,372,-44
724.709999999,1288,2880,14052,1195,401,-24
724.719999999,1244,3004,14132,1214,453,-45
724.729999999,1308,2960,14048,1117,475,-51
724.739999999,1192,3084,14140,1151,538,-39
724.749999999,1364,3096,14080,1240,530,-34
724.759999999,1140,3140,14228,1430,596,-60
724.769999999,1216,3184,14108,1567,634,-121
724.779999999,1300,3088,14348,1643,644,-98
724.789999999,1164,3240,14284,1565,563,-126
724.799999999,1128,3360,14408,1647,890,-116
724.809999999,1052,3408,13900,1019,601,-43
724.819999999,1188,3268,14000,676,550,-39
724.829999999,1240,3344,14104,1015,620,-62
724.839999999,1072,3428,14056,909,356,-80
724.849999999,1196,3276,14196,1158,515,-88
724.859999999,1184,3436,14232,1159,548,-106
724.869999999,1060,3448,14156,981,425,-75
724.879999999,1108,3384,14092,969,429,-60
724.889999999,1052,3460,14176,794,363,-71
724.899999999,1148,3520,14064,751,356,-75
724.909999999,1180,3504,14060,890,397,-75
724.919999999,1032,3576,13980,975,415,-81
724.929999999,1000,3516,14124,950,440,-117
724.939999999,1056,3528,14024,890,495,-88
724.949999999,1152,3520,13836,805,460,-90
724.959999999,1052,3672,14076,807,515,-73
724.969999999,1196,3640,14000,861,456,-47
724.979999999,1112,3648,13912,825,420,-28
724.989999999,988,3576,13900,644,391,-33
724.999999999,1160,3616,13960,795,445,-59
725.009999999,1060,3660,13960,878,450,-82
725.019999999,1092,3816,14148,865,494,-88
725.029999999,1092,3784,14024,804,429,-81
725.039999999,1012,3772,14128,734,417,-53
725.049999999,1040,3744,14076,653,433,-40
