320.1825, 4179
320.185, 4167
320.1875, 4187
320.19, 4176
320.1925, 4117
320.195, 4159
320.1975, 4176
320.2, 4157
320.2025, 4169
320.205, 4164
320.2075, 4152
320.21, 4093
320.2125, 4161
320.215, 4159
320.2175, 4140
320.22, 4125
320.2225, 4153
320.225, 4140
320.2275, 4065
320.23, 4158
320.2325, 4130
320.235, 4135
320.2375, 4145
320.24, 4149
320.2425, 4165
320.245, 4088
320.2475, 4185
320.25, 4162
320.2525, 4160
320.255, 4154
320.2575, 4155
320.26, 4157
320.2625, 4080
320.265, 4172
320.2675, 4151
320.27, 4173
320.2725, 4179
320.275, 4165
320.2775, 4191
320.28, 4100
320.2825, 4192
320.285, 4177
320.2875, 4152
320.29, 4177
320.2925, 4161
320.295, 4152
320.2975, 4096
320.3, 4186
320.3025, 4179
320.305, 4183
320.3075, 4178
320.31, 4165
320.3125, 4178
320.315, 4082
320.3175, 4166
320.32, 4175
320.3225, 4181
320.325, 4179
320.3275, 4188
320.33, 4168
320.3325, 4084
320.335, 4170
320.3375, 4183
320.34, 4170
320.3425, 4161
320.345, 4163
320.3475, 4148
320.35, 4090
320.3525, 4155
320.355, 4170
320.3575, 4184
320.36, 4181
320.3625, 4178
320.365, 4184
320.3675, 4139
320.37, 4197
320.3725, 4193
320.375, 4200
320.3775, 4181
320.38, 4122
320.3825, 4106
320.385, 4036
320.3875, 4113
320.39, 4099
320.3925, 4065
320.395, 4093
320.3975, 4136
320.4, 4139
320.4025, 4078
320.405, 4143
320.4075, 4152
320.41, 4153
320.4125, 4164
320.415, 4186
320.4175, 4184
320.42, 4118
320.4225, 4196
320.425, 4201
320.4275, 4191
320.43, 4174
320.4325, 4170
320.435, 4165
320.4375, 4147
320.44, 4182
320.4425, 4192
320.445, 4198
320.4475, 4170
320.45, 4189
320.4525, 4179
320.455, 4093
320.4575, 4190
320.46, 4180
320.4625, 4191
320.465, 4193
320.4675, 4182
320.47, 4169
320.4725, 4112
320.475, 4183
320.4775, 4192
320.48, 4178
320.4825, 4216
320.485, 4267
320.4875, 4343
320.49, 4324
320.4925, 4442
320.495, 4472
320.4975, 4456
320.5, 4365
320.5025, 4185
320.505, 3976
320.5075, 3651
320.51, 3417
320.5125, 3162
320.515, 2744
320.5175, 2251
320.52, 1957
320.5225, 1769
320.525, 1755
320.5275, 2163
320.53, 2780
320.5325, 3722
320.535, 4616
320.5375, 4993
320.54, 5122
320.5425, 5084
320.545, 4971
320.5475, 4798
320.55, 4696
320.5525, 4625
320.555, 4588
320.5575, 4520
320.56, 4380
320.5625, 4493
320.565, 4502
320.5675, 4506
320.57, 4519
320.5725, 4525
320.575, 4495
320.5775, 4422
320.58, 4474
320.5825, 4476
320.585, 4444
320.5875, 4430
320.59, 4411
320.5925, 4396
320.595, 4361
320.5975, 4398
320.6, 4381
320.6025, 4391
320.605, 4384
320.6075, 4374
320.61, 4362
320.6125, 4262
320.615, 4347
320.6175, 4334
320.62, 4335
320.6225, 4327
320.625, 4321
320.6275, 4316
320.63, 4229
320.6325, 4312
320.635, 4296
320.6375, 4290
320.64, 4274
320.6425, 4279
320.645, 4272
320.6475, 4197
320.65, 4276
320.6525, 4252
320.655, 4242
320.6575, 4242
320.66, 4249
320.6625, 4241
320.665, 4163
320.6675, 4242
320.67, 4230
320.6725, 4231
320.675, 4233
320.6775, 4231
320.68, 4212
320.6825, 4141
320.685, 4202
320.6875, 4173
320.69, 4170
320.6925, 4189
320.695, 4181
320.6975, 4192
320.7, 4107
320.7025, 4193
320.705, 4201
320.7075, 4190
320.71, 4186
320.7125, 4192
320.715, 4199
320.7175, 4126
320.72, 4180
320.7225, 4178
320.725, 4188
320.7275, 4160
320.73, 4162
320.7325, 4148
320.735, 4089
320.7375, 4173
320.74, 4150
320.7425, 4143
320.745, 4156
320.7475, 4159
320.75, 4165
320.7525, 4088
320.755, 4129
320.7575, 4122
320.76, 4129
320.7625, 4137
320.765, 4150
320.7675, 4170
320.77, 4127
320.7725, 4143
320.775, 4154
320.7775, 4134
320.78, 4156
320.7825, 4147
320.785, 4126
320.7875, 4082
320.79, 4155
320.7925, 4132
320.795, 4151
320.7975, 4152
320.8, 4140
320.8025, 4135
320.805, 4063
320.8075, 4142
320.81, 4133
320.8125, 4130
320.815, 4123
320.8175, 4134
320.82, 4134
320.8225, 4057
320.825, 4165
320.8275, 4178
320.83, 4170
320.8325, 4183
320.835, 4199
320.8375, 4186
320.84, 4134
320.8425, 4251
320.845, 4207
320.8475, 4206
320.85, 4236
320.8525, 4253
320.855, 4231
320.8575, 4166
320.86, 4246
320.8625, 4263
320.865, 4264
320.8675, 4259
320.87, 4261
320.8725, 4271
320.875, 4182
320.8775, 4270
320.88, 4275
320.8825, 4269
320.885, 4233
320.8875, 4255
320.89, 4273
320.8925, 4184
320.895, 4247
320.8975, 4223
320.9, 4237
320.9025, 4242
320.905, 4251
320.9075, 4223
320.91, 4126
320.9125, 4222
320.915, 4220
320.9175, 4203
320.92, 4212
320.9225, 4220
320.925, 4197
320.9275, 4101
320.93, 4194
320.9325, 4190
320.935, 4189
320.9375, 4179
320.94, 4206
320.9425, 4192
320.945, 4149
320.9475, 4149
320.95, 4175
320.9525, 4169
320.955, 4167
320.9575, 4176
320.96, 4188
320.9625, 4118
320.965, 4191
320.9675, 4210
320.97, 4191
320.9725, 4175
320.975, 4183
320.9775, 4190
320.98, 4108
320.9825, 4195
320.985, 4201
320.9875, 4178
320.99, 4178
320.9925, 4180
320.995, 4182
320.9975, 4094
321.0, 4193
321.0025, 4184
321.005, 4154
321.0075, 4148
321.01, 4169
321.0125, 4169
321.015, 4096
321.0175, 4180
321.02, 4199
321.0225, 4174
321.025, 4184
321.0275, 4181
321.03, 4186
321.0325, 4122
321.035, 4203
321.0375, 4186
321.04, 4195
321.0425, 4191
321.045, 4190
321.0475, 4182
321.05, 4098
321.0525, 4179
321.055, 4193
321.0575, 4170
321.06, 4166
321.0625, 4160
321.065, 4172
321.0675, 4086
321.07, 4167
321.0725, 4157
321.075, 4163
321.0775, 4168
321.08, 4190
321.0825, 4164
321.085, 4099
321.0875, 4175
321.09, 4188
321.0925, 4179
321.095, 4160
321.0975, 4184
321.1, 4186
321.1025, 4084
321.105, 4173
321.1075, 4149
321.11, 4156
321.1125, 4157
321.115, 4164
321.1175, 4186
321.12, 4138
321.1225, 4164
321.125, 4160
321.1275, 4132
321.13, 4117
321.1325, 4137
321.135, 4138
321.1375, 4075
321.14, 4162
321.1425, 4181
321.145, 4159
321.1475, 4148
321.15, 4177
321.1525, 4173
321.155, 4085
321.1575, 4180
321.16, 4161
321.1625, 4166
321.165, 4173
321.1675, 4150
321.17, 4153
321.1725, 4091
321.175, 4172
321.1775, 4170
321.18, 4172
321.1825, 4152
321.185, 4164
321.1875, 4171
321.19, 4101
321.1925, 4183
321.195, 4190
321.1975, 4170
321.2, 4148
321.2025, 4179
321.205, 4186
321.2075, 4101
321.21, 4183
321.2125, 4167
321.215, 4163
321.2175, 4157
321.22, 4168
321.2225, 4153
321.225, 4092
321.2275, 4161
321.23, 4144
321.2325, 4154
321.235, 4153
321.2375, 4168
321.24, 4142
321.2425, 4102
321.245, 4147
321.2475, 4150
321.25, 4145
321.2525, 4149
321.255, 4139
321.2575, 4162
321.26, 4085
321.2625, 4156
321.265, 4177
321.2675, 4156
321.27, 4138
321.2725, 4149
321.275, 4134
321.2775, 4085
321.28, 4165
321.2825, 4181
321.285, 4183
321.2875, 4163
321.29, 4159
321.2925, 4151
321.295, 4109
321.2975, 4158
321.3, 4144
321.3025, 4127
321.305, 4123
321.3075, 4125
321.31, 4104
321.3125, 4041
321.315, 4117
321.3175, 4125
321.32, 4116
321.3225, 4124
321.325, 4096
321.3275, 4097
321.33, 4053
321.3325, 4134
321.335, 4143
321.3375, 4156
321.34, 4129
321.3425, 4146
321.345, 4166
321.3475, 4119
321.35, 4165
321.3525, 4165
321.355, 4140
321.3575, 4142
321.36, 4171
321.3625, 4167
321.365, 4089
321.3675, 4182
321.37, 4160
321.3725, 4151
321.375, 4127
321.3775, 4174
321.38, 4168
321.3825, 4095
321.385, 4167
321.3875, 4163
321.39, 4158
321.3925, 4142
321.395, 4166
321.3975, 4167
321.4, 4094
321.4025, 4154
321.405, 4166
321.4075, 4182
321.41, 4161
321.4125, 4229
321.415, 4314
321.4175, 4299
321.42, 4420
321.4225, 4468
321.425, 4483
321.4275, 4483
321.43, 4351
321.4325, 4157
321.435, 3866
321.4375, 3652
321.44, 3322
321.4425, 2929
321.445, 2488
321.4475, 1965
321.45, 1669
321.4525, 1615
321.455, 1806
321.4575, 2356
321.46, 3256
321.4625, 4161
321.465, 4759
321.4675, 5005
321.47, 4926
321.4725, 4881
321.475, 4740
321.4775, 4626
321.48, 4565
321.4825, 4562
321.485, 4534
321.4875, 4440
321.49, 4553
321.4925, 4554
321.495, 4533
321.4975, 4540
321.5, 4560
321.5025, 4541
321.505, 4459
321.5075, 4518
321.51, 4515
321.5125, 4494
321.515, 4484
321.5175, 4490
321.52, 4453
321.5225, 4380
321.525, 4431
321.5275, 4421
321.53, 4383
321.5325, 4393
321.535, 4399
321.5375, 4384
321.54, 4308
321.5425, 4383
321.545, 4378
321.5475, 4352
321.55, 4356
321.5525, 4338
321.555, 4325
321.5575, 4250
321.56, 4328
321.5625, 4302
321.565, 4306
321.5675, 4288
321.57, 4309
321.5725, 4290
321.575, 4199
321.5775, 4280
321.58, 4261
321.5825, 4270
321.585, 4250
321.5875, 4239
321.59, 4241
321.5925, 4181
321.595, 4260
321.5975, 4242
321.6, 4254
321.6025, 4212
321.605, 4238
321.6075, 4233
321.61, 4165
321.6125, 4232
321.615, 4226
321.6175, 4223
321.62, 4194
321.6225, 4232
321.625, 4227
321.6275, 4165
321.63, 4241
321.6325, 4215
321.635, 4219
321.6375, 4206
321.64, 4208
321.6425, 4214
321.645, 4142
321.6475, 4211
321.65, 4196
321.6525, 4197
321.655, 4211
321.6575, 4203
321.66, 4197
321.6625, 4137
321.665, 4243
321.6675, 4223
321.67, 4220
321.6725, 4217
321.675, 4236
321.6775, 4235
321.68, 4166
321.6825, 4238
321.685, 4225
321.6875, 4219
321.69, 4226
321.6925, 4223
321.695, 4234
321.6975, 4140
321.7, 4226
321.7025, 4216
321.705, 4220
321.7075, 4221
321.71, 4207
321.7125, 4207
321.715, 4157
321.7175, 4230
321.72, 4212
321.7225, 4190
321.725, 4166
321.7275, 4198
321.73, 4166
321.7325, 4104
321.735, 4179
321.7375, 4155
321.74, 4144
321.7425, 4142
321.745, 4120
321.7475, 4106
321.75, 4008
321.7525, 4154
321.755, 4142
321.7575, 4115
321.76, 4125
321.7625, 4136
321.765, 4150
321.7675, 4068
321.77, 4148
321.7725, 4130
321.775, 4134
321.7775, 4128
321.78, 4139
321.7825, 4149
321.785, 4047
321.7875, 4181
321.79, 4181
321.7925, 4190
321.795, 4207
321.7975, 4200
321.8, 4197
321.8025, 4081
321.805, 4204
321.8075, 4225
321.81, 4222
321.8125, 4219
321.815, 4223
321.8175, 4215
321.82, 4149
321.8225, 4234
321.825, 4202
321.8275, 4185
321.83, 4185
321.8325, 4212
321.835, 4189
321.8375, 4109
321.84, 4199
321.8425, 4171
321.845, 4190
321.8475, 4191
321.85, 4167
321.8525, 4181
321.855, 4049
321.8575, 4168
321.86, 4191
321.8625, 4178
321.865, 4158
321.8675, 4165
321.87, 4161
321.8725, 4138
321.875, 4178
321.8775, 4177
321.88, 4164
321.8825, 4151
321.885, 4156
321.8875, 4167
321.89, 4101
321.8925, 4176
321.895, 4165
321.8975, 4179
321.9, 4172
321.9025, 4196
321.905, 4192
321.9075, 4114
321.91, 4165
321.9125, 4175
321.915, 4178
321.9175, 4161
321.92, 4173
321.9225, 4160
321.925, 4059
321.9275, 4150
321.93, 4139
321.9325, 4136
321.935, 4146
321.9375, 4142
321.94, 4176
321.9425, 4093
321.945, 4166
321.9475, 4176
321.95, 4174
321.9525, 4164
321.955, 4168
321.9575, 4164
321.96, 4099
321.9625, 4200
321.965, 4187
321.9675, 4158
321.97, 4146
321.9725, 4156
321.975, 4159
321.9775, 4093
321.98, 4176
321.9825, 4187
321.985, 4192
321.9875, 4169
321.99, 4177
321.9925, 4173
321.995, 4136
321.9975, 4178
322.0, 4168
322.0025, 4167
322.005, 4140
322.0075, 4167
322.01, 4164
322.0125, 4118
322.015, 4160
322.0175, 4165
322.02, 4162
322.0225, 4160
322.025, 4158
322.0275, 4159
322.03, 4079
322.0325, 4137
322.035, 4146
322.0375, 4157
322.04, 4163
322.0425, 4178
322.045, 4184
322.0475, 4122
322.05, 4178
322.0525, 4175
322.055, 4151
322.0575, 4137
322.06, 4148
322.0625, 4145
322.065, 4071
322.0675, 4180
322.07, 4161
322.0725, 4159
322.075, 4165
322.0775, 4177
322.08, 4176
322.0825, 4156
322.085, 4187
322.0875, 4184
322.09, 4202
322.0925, 4180
322.095, 4169
322.0975, 4157
322.1, 4087
322.1025, 4172
322.105, 4175
322.1075, 4169
322.11, 4174
322.1125, 4201
322.115, 4192
322.1175, 4103
322.12, 4188
322.1225, 4169
322.125, 4182
322.1275, 4171
322.13, 4174
322.1325, 4183
322.135, 4108
322.1375, 4184
322.14, 4186
322.1425, 4186
322.145, 4177
322.1475, 4184
322.15, 4166
322.1525, 4116
322.155, 4185
322.1575, 4184
322.16, 4183
322.1625, 4195
322.165, 4198
322.1675, 4165
322.17, 4097
322.1725, 4186
322.175, 4192
322.1775, 4180
322.18, 4167
322.1825, 4186
322.185, 4195
322.1875, 4092
322.19, 4140
322.1925, 4147
322.195, 4176
322.1975, 4182
322.2, 4163
322.2025, 4163
322.205, 4092
322.2075, 4172
322.21, 4170
322.2125, 4155
322.215, 4172
322.2175, 4180
322.22, 4155
322.2225, 4136
322.225, 4184
322.2275, 4162
322.23, 4153
322.2325, 4168
322.235, 4177
322.2375, 4172
322.24, 4100
322.2425, 4183
322.245, 4192
322.2475, 4166
322.25, 4161
322.2525, 4187
322.255, 4173
322.2575, 4094
322.26, 4181
322.2625, 4176
322.265, 4182
322.2675, 4169
322.27, 4165
322.2725, 4164
322.275, 4121
322.2775, 4174
322.28, 4189
322.2825, 4159
322.285, 4157
322.2875, 4189
322.29, 4169
322.2925, 4079
322.295, 4167
322.2975, 4150
322.3, 4159
322.3025, 4172
322.305, 4184
322.3075, 4165
322.31, 4076
322.3125, 4158
322.315, 4143
322.3175, 4118
322.32, 4136
322.3225, 4153
322.325, 4148
322.3275, 4122
322.33, 4175
322.3325, 4175
322.335, 4150
322.3375, 4152
322.34, 4172
322.3425, 4161
322.345, 4039
322.3475, 4163
322.35, 4160
322.3525, 4160
322.355, 4159
322.3575, 4186
322.36, 4171
322.3625, 4095
322.365, 4169
322.3675, 4171
322.37, 4159
322.3725, 4110
322.375, 4167
322.3775, 4159
322.38, 4074
322.3825, 4177
322.385, 4173
322.3875, 4177
322.39, 4176
322.3925, 4179
322.395, 4146
322.3975, 4039
322.4, 4121
322.4025, 4091
322.405, 4073
322.4075, 4076
322.41, 4112
322.4125, 4115
322.415, 4014
322.4175, 4138
322.42, 4166
322.4225, 4134
322.425, 4133
322.4275, 4148
322.43, 4157
322.4325, 4075
322.435, 4172
322.4375, 4182
322.44, 4175
322.4425, 4149
322.445, 4179
322.4475, 4194
322.45, 4152
322.4525, 4183
322.455, 4168
322.4575, 4182
322.46, 4191
322.4625, 4189
322.465, 4206
322.4675, 4098
322.47, 4179
322.4725, 4174
322.475, 4183
322.4775, 4190
322.48, 4194
322.4825, 4191
322.485, 4131
322.4875, 4201
322.49, 4207
322.4925, 4209
322.495, 4237
322.4975, 4319
322.5, 4372
322.5025, 4338
322.505, 4454
322.5075, 4472
322.51, 4498
322.5125, 4399
322.515, 4210
322.5175, 3984
322.52, 3625
322.5225, 3397
322.525, 3045
322.5275, 2654
322.53, 2152
322.5325, 1878
322.535, 1749
322.5375, 1818
322.54, 2264
322.5425, 3042
322.545, 3956
322.5475, 4581
322.55, 4918
322.5525, 4981
322.555, 4852
322.5575, 4791
322.56, 4642
322.5625, 4565
322.565, 4554
322.5675, 4524
322.57, 4491
322.5725, 4408
322.575, 4481
322.5775, 4484
322.58, 4503
322.5825, 4484
322.585, 4495
322.5875, 4460
322.59, 4368
322.5925, 4446
322.595, 4442
322.5975, 4401
322.6, 4377
322.6025, 4386
322.605, 4373
322.6075, 4280
322.61, 4358
322.6125, 4352
322.615, 4342
322.6175, 4335
322.62, 4369
322.6225, 4350
322.625, 4289
322.6275, 4316
322.63, 4314
322.6325, 4304
322.635, 4294
322.6375, 4289
322.64, 4292
322.6425, 4198
322.645, 4281
322.6475, 4279
322.65, 4270
322.6525, 4254
322.655, 4280
322.6575, 4275
322.66, 4200
322.6625, 4284
322.665, 4266
322.6675, 4220
322.67, 4238
322.6725, 4241
322.675, 4233
322.6775, 4153
322.68, 4238
322.6825, 4222
322.685, 4203
322.6875, 4200
322.69, 4211
322.6925, 4182
322.695, 4116
322.6975, 4210
322.7, 4221
322.7025, 4231
322.705, 4219
322.7075, 4206
322.71, 4203
322.7125, 4129
322.715, 4213
322.7175, 4198
322.72, 4187
322.7225, 4199
322.725, 4204
322.7275, 4194
322.73, 4137
322.7325, 4207
322.735, 4194
322.7375, 4203
322.74, 4171
322.7425, 4186
322.745, 4185
322.7475, 4096
322.75, 4202
322.7525, 4208
322.755, 4193
322.7575, 4190
322.76, 4223
322.7625, 4204
322.765, 4133
322.7675, 4205
322.77, 4208
322.7725, 4194
322.775, 4172
322.7775, 4185
322.78, 4169
322.7825, 4087
322.785, 4152
322.7875, 4132
322.79, 4139
322.7925, 4145
322.795, 4161
322.7975, 4177
322.8, 4148
322.8025, 4153
322.805, 4169
322.8075, 4170
322.81, 4148
322.8125, 4182
322.815, 4160
322.8175, 4094
322.82, 4197
322.8225, 4172
322.825, 4147
322.8275, 4147
322.83, 4148
322.8325, 4146
322.835, 4045
322.8375, 4153
322.84, 4136
322.8425, 4149
322.845, 4144
322.8475, 4147
322.85, 4155
322.8525, 4103
322.855, 4176
322.8575, 4186
322.86, 4168
322.8625, 4159
322.865, 4189
322.8675, 4187
322.87, 4114
322.8725, 4216
322.875, 4207
322.8775, 4197
322.88, 4180
322.8825, 4200
322.885, 4207
322.8875, 4144
322.89, 4238
322.8925, 4253
322.895, 4256
322.8975, 4236
322.9, 4228
322.9025, 4221
322.905, 4137
322.9075, 4224
322.91, 4236
322.9125, 4226
322.915, 4211
322.9175, 4225
322.92, 4214
322.9225, 4129
322.925, 4203
322.9275, 4183
322.93, 4176
322.9325, 4186
322.935, 4203
322.9375, 4190
322.94, 4124
322.9425, 4187
322.945, 4205
322.9475, 4191
322.95, 4174
322.9525, 4218
322.955, 4205
322.9575, 4124
322.96, 4209
322.9625, 4189
322.965, 4194
322.9675, 4173
322.97, 4199
322.9725, 4215
322.975, 4166
322.9775, 4204
322.98, 4208
322.9825, 4194
322.985, 4189
322.9875, 4197
322.99, 4205
322.9925, 4124
322.995, 4195
322.9975, 4207
323.0, 4187
323.0025, 4198
323.005, 4200
323.0075, 4202
323.01, 4107
323.0125, 4206
323.015, 4198
323.0175, 4204
323.02, 4217
323.0225, 4202
323.025, 4195
323.0275, 4181
323.03, 4215
323.0325, 4199
323.035, 4197
323.0375, 4199
323.04, 4218
323.0425, 4211
323.045, 4136
323.0475, 4209
323.05, 4214
323.0525, 4195
323.055, 4216
323.0575, 4236
323.06, 4225
323.0625, 4144
323.065, 4188
323.0675, 4200
323.07, 4178
323.0725, 4173
323.075, 4184
323.0775, 4175
323.08, 4116
323.0825, 4192
323.085, 4175
323.0875, 4172
323.09, 4186
323.0925, 4186
323.095, 4203
323.0975, 4113
323.1, 4204
323.1025, 4178
323.105, 4178
323.1075, 4170
323.11, 4190
323.1125, 4200
323.115, 4120
323.1175, 4205
323.12, 4161
323.1225, 4150
323.125, 4190
323.1275, 4187
323.13, 4214
323.1325, 4134
323.135, 4187
323.1375, 4182
323.14, 4178
323.1425, 4181
323.145, 4196
323.1475, 4171
323.15, 4099
323.1525, 4183
323.155, 4195
323.1575, 4171
323.16, 4140
323.1625, 4175
323.165, 4162
323.1675, 4108
323.17, 4175
323.1725, 4173
323.175, 4169
323.1775, 4178
323.18, 4181
323.1825, 4168
323.185, 4097
323.1875, 4168
323.19, 4148
323.1925, 4162
323.195, 4169
323.1975, 4195
323.2, 4209
323.2025, 4150
323.205, 4202
323.2075, 4194
323.21, 4165
323.2125, 4157
323.215, 4158
323.2175, 4181
323.22, 4126
323.2225, 4178
323.225, 4172
323.2275, 4161
323.23, 4173
323.2325, 4212
323.235, 4198
323.2375, 4132
323.24, 4205
323.2425, 4201
323.245, 4196
323.2475, 4204
323.25, 4200
323.2525, 4190
323.255, 4151
323.2575, 4184
323.26, 4190
323.2625, 4192
323.265, 4194
323.2675, 4201
323.27, 4182
323.2725, 4116
323.275, 4197
323.2775, 4197
323.28, 4188
323.2825, 4186
323.285, 4196
323.2875, 4171
323.29, 4095
323.2925, 4153
323.295, 4165
323.2975, 4157
323.3, 4151
323.3025, 4163
323.305, 4146
323.3075, 4041
323.31, 4169
323.3125, 4155
323.315, 4153
323.3175, 4163
323.32, 4158
323.3225, 4191
323.325, 4108
323.3275, 4183
323.33, 4170
323.3325, 4156
323.335, 4142
323.3375, 4127
323.34, 4106
323.3425, 4031
323.345, 4103
323.3475, 4090
323.35, 4086
323.3525, 4070
323.355, 4131
323.3575, 4131
323.36, 4036
323.3625, 4153
323.365, 4143
323.3675, 4133
323.37, 4158
323.3725, 4183
323.375, 4178
323.3775, 4120
323.38, 4162
323.3825, 4163
323.385, 4166
323.3875, 4187
323.39, 4176
323.3925, 4160
323.395, 4113
323.3975, 4199
323.4, 4183
323.4025, 4210
323.405, 4180
323.4075, 4195
323.41, 4180
323.4125, 4106
323.415, 4181
323.4175, 4185
323.42, 4189
323.4225, 4152
323.425, 4169
323.4275, 4155
323.43, 4125
323.4325, 4164
323.435, 4137
323.4375, 4141
323.44, 4172
323.4425, 4282
323.445, 4357
323.4475, 4323
323.45, 4414
323.4525, 4438
323.455, 4418
323.4575, 4290
323.46, 4115
323.4625, 3876
323.465, 3518
323.4675, 3336
323.47, 2987
323.4725, 2568
323.475, 2065
323.4775, 1816
323.48, 1703
323.4825, 1830
323.485, 2321
323.4875, 3139
323.49, 4094
323.4925, 4758
323.495, 5036
323.4975, 5051
323.5, 4880
323.5025, 4811
323.505, 4676
323.5075, 4582
323.51, 4586
323.5125, 4561
323.515, 4507
323.5175, 4481
323.52, 4506
323.5225, 4517
323.525, 4500
323.5275, 4487
323.53, 4524
323.5325, 4504
323.535, 4416
323.5375, 4464
323.54, 4445
323.5425, 4433
323.545, 4423
323.5475, 4422
323.55, 4420
323.5525, 4362
323.555, 4392
323.5575, 4376
323.56, 4349
323.5625, 4342
323.565, 4338
323.5675, 4330
323.57, 4250
323.5725, 4314
323.575, 4325
323.5775, 4310
323.58, 4311
323.5825, 4321
323.585, 4305
323.5875, 4218
323.59, 4296
323.5925, 4299
323.595, 4286
323.5975, 4261
323.6, 4288
323.6025, 4276
323.605, 4181
323.6075, 4270
323.61, 4261
323.6125, 4272
323.615, 4247
323.6175, 4248
323.62, 4218
323.6225, 4141
323.625, 4218
323.6275, 4203
323.63, 4208
323.6325, 4216
323.635, 4186
323.6375, 4218
323.64, 4139
323.6425, 4216
323.645, 4221
323.6475, 4222
323.65, 4221
323.6525, 4234
323.655, 4225
323.6575, 4151
323.66, 4218
323.6625, 4220
323.665, 4216
323.6675, 4186
323.67, 4193
323.6725, 4190
323.675, 4101
323.6775, 4196
323.68, 4209
323.6825, 4208
323.685, 4192
323.6875, 4197
323.69, 4202
323.6925, 4115
323.695, 4210
323.6975, 4202
323.7, 4211
323.7025, 4200
323.705, 4207
323.7075, 4204
323.71, 4127
323.7125, 4207
323.715, 4220
323.7175, 4206
323.72, 4196
323.7225, 4207
323.725, 4208
323.7275, 4156
323.73, 4189
323.7325, 4198
323.735, 4202
323.7375, 4188
323.74, 4205
323.7425, 4190
323.745, 4073
323.7475, 4208
323.75, 4194
323.7525, 4196
323.755, 4199
323.7575, 4202
323.76, 4205
323.7625, 4103
323.765, 4168
323.7675, 4156
323.77, 4148
323.7725, 4148
323.775, 4162
323.7775, 4137
323.78, 4127
323.7825, 4186
323.785, 4175
323.7875, 4177
323.79, 4192
323.7925, 4185
323.795, 4177
323.7975, 4113
323.8, 4193
323.8025, 4190
323.805, 4198
323.8075, 4208
323.81, 4207
323.8125, 4182
323.815, 4132
323.8175, 4217
323.82, 4233
323.8225, 4230
323.825, 4235
323.8275, 4227
323.83, 4218
323.8325, 4141
323.835, 4203
323.8375, 4202
323.84, 4206
323.8425, 4209
323.845, 4223
323.8475, 4243
323.85, 4162
323.8525, 4219
323.855, 4227
323.8575, 4199
323.86, 4193
323.8625, 4199
323.865, 4194
323.8675, 4133
323.87, 4224
323.8725, 4212
323.875, 4210
323.8775, 4190
323.88, 4193
323.8825, 4195
323.885, 4121
323.8875, 4199
323.89, 4194
323.8925, 4188
323.895, 4180
323.8975, 4171
323.9, 4186
323.9025, 4117
323.905, 4214
323.9075, 4210
323.91, 4210
323.9125, 4184
323.915, 4185
323.9175, 4189
323.92, 4122
323.9225, 4201
323.925, 4188
323.9275, 4200
323.93, 4186
323.9325, 4204
323.935, 4205
323.9375, 4108
323.94, 4195
323.9425, 4198
323.945, 4186
323.9475, 4195
323.95, 4183
323.9525, 4194
323.955, 4135
323.9575, 4191
323.96, 4217
323.9625, 4201
323.965, 4194
323.9675, 4192
323.97, 4168
323.9725, 4104
323.975, 4192
323.9775, 4208
323.98, 4182
323.9825, 4186
323.985, 4197
323.9875, 4183
323.99, 4097
323.9925, 4177
323.995, 4152
323.9975, 4166
324.0, 4155
324.0025, 4174
324.005, 4172
324.0075, 4132
324.01, 4173
324.0125, 4171
324.015, 4183
324.0175, 4180
324.02, 4161
324.0225, 4166
324.025, 4089
324.0275, 4180
324.03, 4152
324.0325, 4164
324.035, 4153
324.0375, 4167
324.04, 4142
324.0425, 4062
324.045, 4135
324.0475, 4135
324.05, 4141
324.0525, 4138
324.055, 4164
324.0575, 4160
324.06, 4080
324.0625, 4155
324.065, 4135
324.0675, 4162
324.07, 4152
324.0725, 4153
324.075, 4112
324.0775, 4066
324.08, 4144
324.0825, 4138
324.085, 4112
324.0875, 4144
324.09, 4158
324.0925, 4155
324.095, 4085
324.0975, 4158
324.1, 4160
324.1025, 4168
324.105, 4135
324.1075, 4173
324.11, 4165
324.1125, 4085
324.115, 4138
324.1175, 4150
324.12, 4117
324.1225, 4105
324.125, 4165
324.1275, 4155
324.13, 4108
324.1325, 4143
324.135, 4145
324.1375, 4139
324.14, 4130
324.1425, 4149
324.145, 4157
324.1475, 4067
324.15, 4166
324.1525, 4143
324.155, 4143
324.1575, 4135
324.16, 4146
324.1625, 4129
324.165, 4069
324.1675, 4162
324.17, 4129
324.1725, 4119
324.175, 4140
324.1775, 4129
324.18, 4136
324.1825, 4087
324.185, 4151
324.1875, 4148
324.19, 4138
324.1925, 4133
324.195, 4158
324.1975, 4142
324.2, 4064
324.2025, 4137
324.205, 4144
324.2075, 4115
324.21, 4124
324.2125, 4133
324.215, 4111
324.2175, 4036
324.22, 4119
324.2225, 4141
324.225, 4148
324.2275, 4161
324.23, 4153
324.2325, 4129
324.235, 4043
324.2375, 4138
324.24, 4120
324.2425, 4119
324.245, 4126
324.2475, 4115
324.25, 4127
324.2525, 4061
324.255, 4125
324.2575, 4133
324.26, 4128
324.2625, 4142
324.265, 4141
324.2675, 4140
324.27, 4054
324.2725, 4160
324.275, 4151
324.2775, 4155
324.28, 4168
324.2825, 4181
324.285, 4146
324.2875, 4080
324.29, 4189
324.2925, 4167
324.295, 4159
324.2975, 4163
324.3, 4163
324.3025, 4172
324.305, 4061
324.3075, 4150
324.31, 4151
324.3125, 4171
324.315, 4139
324.3175, 4111
324.32, 4114
324.3225, 4027
324.325, 4126
324.3275, 4111
324.33, 4138
324.3325, 4136
324.335, 4148
324.3375, 4154
324.34, 4099
324.3425, 4190
324.345, 4187
324.3475, 4197
324.35, 4181
324.3525, 4196
324.355, 4199
324.3575, 4163
324.36, 4175
324.3625, 4163
324.365, 4180
324.3675, 4177
324.37, 4178
324.3725, 4182
324.375, 4102
324.3775, 4162
324.38, 4160
324.3825, 4173
324.385, 4172
324.3875, 4172
324.39, 4156
324.3925, 4075
324.395, 4159
324.3975, 4168
324.4, 4149
324.4025, 4170
324.405, 4209
324.4075, 4241
324.41, 4316
324.4125, 4413
324.415, 4440
324.4175, 4473
324.42, 4479
324.4225, 4524
324.425, 4376
324.4275, 4107
324.43, 3975
324.4325, 3670
324.435, 3367
324.4375, 2971
324.44, 2512
324.4425, 1975
324.445, 1666
324.4475, 1684
324.45, 1821
324.4525, 2377
324.455, 3251
324.4575, 4126
324.46, 4650
324.4625, 4820
324.465, 4922
324.4675, 4804
324.47, 4671
324.4725, 4573
324.475, 4562
324.4775, 4544
324.48, 4418
324.4825, 4507
324.485, 4512
324.4875, 4511
324.49, 4524
324.4925, 4531
324.495, 4519
324.4975, 4427
324.5, 4502
324.5025, 4478
324.505, 4465
324.5075, 4444
324.51, 4465
324.5125, 4450
324.515, 4391
324.5175, 4462
324.52, 4429
324.5225, 4450
324.525, 4418
324.5275, 4430
324.53, 4400
324.5325, 4345
324.535, 4395
324.5375, 4390
324.54, 4361
324.5425, 4351
324.545, 4366
324.5475, 4371
324.55, 4297
324.5525, 4382
324.555, 4359
324.5575, 4311
324.56, 4294
324.5625, 4293
324.565, 4275
324.5675, 4192
324.57, 4280
324.5725, 4296
324.575, 4286
324.5775, 4269
324.58, 4263
324.5825, 4260
324.585, 4235
324.5875, 4249
324.59, 4251
324.5925, 4228
324.595, 4212
324.5975, 4212
324.6, 4227
324.6025, 4135
324.605, 4220
324.6075, 4217
324.61, 4210
324.6125, 4206
324.615, 4208
324.6175, 4207
324.62, 4152
324.6225, 4222
324.625, 4202
324.6275, 4222
324.63, 4207
324.6325, 4220
324.635, 4201
324.6375, 4131
324.64, 4189
324.6425, 4188
324.645, 4200
324.6475, 4213
324.65, 4211
324.6525, 4213
324.655, 4151
324.6575, 4216
324.66, 4206
324.6625, 4203
324.665, 4217
324.6675, 4208
324.67, 4225
324.6725, 4158
324.675, 4231
324.6775, 4217
324.68, 4204
324.6825, 4203
324.685, 4204
324.6875, 4201
324.69, 4120
324.6925, 4224
324.695, 4195
324.6975, 4207
324.7, 4213
324.7025, 4210
324.705, 4196
324.7075, 4160
324.71, 4227
324.7125, 4218
324.715, 4216
324.7175, 4197
324.72, 4205
324.7225, 4198
324.725, 4094
324.7275, 4181
324.73, 4155
324.7325, 4145
324.735, 4109
324.7375, 4156
324.74, 4131
324.7425, 4051
324.745, 4126
324.7475, 4124
324.75, 4141
324.7525, 4156
324.755, 4157
324.7575, 4141
324.76, 4068
324.7625, 4153
324.765, 4129
324.7675, 4125
324.77, 4141
324.7725, 4163
324.775, 4152
324.7775, 4091
324.78, 4162
324.7825, 4161
324.785, 4129
324.7875, 4123
324.79, 4159
324.7925, 4168
324.795, 4094
324.7975, 4183
324.8, 4186
324.8025, 4171
324.805, 4167
324.8075, 4183
324.81, 4215
324.8125, 4149
324.815, 4214
324.8175, 4196
324.82, 4195
324.8225, 4194
324.825, 4213
324.8275, 4212
324.83, 4170
324.8325, 4205
324.835, 4205
324.8375, 4192
324.84, 4159
324.8425, 4164
324.845, 4165
324.8475, 4102
324.85, 4194
324.8525, 4175
324.855, 4172
324.8575, 4164
324.86, 4174
324.8625, 4162
324.865, 4096
324.8675, 4187
324.87, 4182
324.8725, 4163
324.875, 4152
324.8775, 4165
324.88, 4174
324.8825, 4105
324.885, 4166
324.8875, 4169
324.89, 4154
324.8925, 4142
324.895, 4151
324.8975, 4159
324.9, 4067
324.9025, 4162
324.905, 4153
324.9075, 4145
324.91, 4181
324.9125, 4185
324.915, 4176
324.9175, 4109
324.92, 4181
324.9225, 4199
324.925, 4168
324.9275, 4175
324.93, 4201
324.9325, 4173
324.935, 4086
324.9375, 4167
324.94, 4178
324.9425, 4171
324.945, 4169
324.9475, 4168
324.95, 4159
324.9525, 4081
324.955, 4148
324.9575, 4145
324.96, 4159
324.9625, 4152
324.965, 4170
324.9675, 4163
324.97, 4087
324.9725, 4164
324.975, 4167
324.9775, 4149
324.98, 4155
324.9825, 4175
324.985, 4171
324.9875, 4095
324.99, 4175
324.9925, 4184
324.995, 4166
324.9975, 4191
325.0, 4181
325.0025, 4171
325.005, 4136
325.0075, 4166
325.01, 4161
325.0125, 4164
325.015, 4130
325.0175, 4156
325.02, 4142
325.0225, 4080
325.025, 4164
325.0275, 4152
325.03, 4179
325.0325, 4172
325.035, 4159
325.0375, 4183
325.04, 4097
325.0425, 4168
325.045, 4171
325.0475, 4156
325.05, 4174
325.0525, 4166
325.055, 4167
325.0575, 4117
325.06, 4176
325.0625, 4147
325.065, 4163
325.0675, 4156
325.07, 4183
325.0725, 4160
325.075, 4078
325.0775, 4163
325.08, 4169
325.0825, 4174
325.085, 4159
325.0875, 4192
325.09, 4164
325.0925, 4109
325.095, 4183
325.0975, 4178
325.1, 4183
325.1025, 4166
325.105, 4195
325.1075, 4184
325.11, 4097
325.1125, 4188
325.115, 4167
325.1175, 4162
325.12, 4154
325.1225, 4152
325.125, 4170
325.1275, 4071
325.13, 4167
325.1325, 4168
325.135, 4178
325.1375, 4157
325.14, 4169
325.1425, 4154
325.145, 4105
325.1475, 4166
325.15, 4162
325.1525, 4173
325.155, 4184
325.1575, 4189
325.16, 4157
325.1625, 4069
325.165, 4170
325.1675, 4186
325.17, 4178
325.1725, 4176
325.175, 4153
325.1775, 4159
325.18, 4090
325.1825, 4154
325.185, 4169
325.1875, 4160
325.19, 4163
325.1925, 4166
325.195, 4168
325.1975, 4096
325.2, 4202
325.2025, 4189
325.205, 4178
325.2075, 4156
325.21, 4181
325.2125, 4178
325.215, 4072
325.2175, 4146
325.22, 4175
325.2225, 4174
325.225, 4174
325.2275, 4188
325.23, 4158
325.2325, 4111
325.235, 4156
325.2375, 4161
325.24, 4171
325.2425, 4158
325.245, 4165
325.2475, 4151
325.25, 4097
325.2525, 4169
325.255, 4165
325.2575, 4175
325.26, 4173
325.2625, 4163
325.265, 4184
325.2675, 4092
325.27, 4165
325.2725, 4170
325.275, 4159
325.2775, 4167
325.28, 4167
325.2825, 4139
325.285, 4062
325.2875, 4152
325.29, 4176
325.2925, 4155
325.295, 4175
325.2975, 4164
325.3, 4128
325.3025, 4031
325.305, 4149
325.3075, 4139
325.31, 4169
325.3125, 4168
325.315, 4206
325.3175, 4211
325.32, 4131
325.3225, 4214
325.325, 4198
325.3275, 4200
325.33, 4195
325.3325, 4198
325.335, 4203
325.3375, 4099
325.34, 4188
325.3425, 4179
325.345, 4180
325.3475, 4194
325.35, 4181
325.3525, 4187
325.355, 4127
325.3575, 4197
325.36, 4184
325.3625, 4188
325.365, 4172
325.3675, 4210
325.37, 4199
325.3725, 4066
325.375, 4214
325.3775, 4210
325.38, 4206
325.3825, 4196
325.385, 4227
325.3875, 4313
325.39, 4260
325.3925, 4456
325.395, 4481
325.3975, 4505
325.4, 4490
325.4025, 4364
325.405, 4175
325.4075, 3917
325.41, 3682
325.4125, 3359
325.415, 3000
325.4175, 2598
325.42, 2100
325.4225, 1824
325.425, 1623
325.4275, 1831
325.43, 2254
325.4325, 3057
325.435, 3958
325.4375, 4617
325.44, 4909
325.4425, 4972
325.445, 4928
325.4475, 4799
325.45, 4671
325.4525, 4572
325.455, 4576
325.4575, 4552
325.46, 4479
325.4625, 4509
325.465, 4504
325.4675, 4512
325.47, 4500
325.4725, 4514
325.475, 4498
325.4775, 4416
325.48, 4503
325.4825, 4456
325.485, 4449
325.4875, 4422
325.49, 4443
325.4925, 4433
325.495, 4333
325.4975, 4415
325.5, 4415
325.5025, 4387
325.505, 4386
325.5075, 4376
325.51, 4349
325.5125, 4281
325.515, 4353
325.5175, 4327
325.52, 4327
325.5225, 4326
325.525, 4336
325.5275, 4333
325.53, 4272
325.5325, 4347
325.535, 4302
325.5375, 4314
325.54, 4244
325.5425, 4281
325.545, 4262
325.5475, 4186
325.55, 4262
325.5525, 4262
325.555, 4250
325.5575, 4249
325.56, 4270
325.5625, 4235
325.565, 4159
325.5675, 4249
325.57, 4238
325.5725, 4215
325.575, 4212
325.5775, 4206
325.58, 4214
325.5825, 4134
325.585, 4239
325.5875, 4222
325.59, 4226
325.5925, 4216
325.595, 4222
325.5975, 4191
325.6, 4115
325.6025, 4209
325.605, 4201
325.6075, 4190
325.61, 4183
325.6125, 4218
325.615, 4192
325.6175, 4116
325.62, 4187
325.6225, 4187
325.625, 4206
325.6275, 4196
325.63, 4215
325.6325, 4200
325.635, 4161
325.6375, 4183
325.64, 4174
325.6425, 4189
325.645, 4176
325.6475, 4186
325.65, 4180
325.6525, 4092
325.655, 4229
325.6575, 4207
325.66, 4188
325.6625, 4202
325.665, 4179
325.6675, 4160
325.67, 4057
325.6725, 4189
325.675, 4183
325.6775, 4169
325.68, 4159
325.6825, 4184
325.685, 4181
325.6875, 4150
325.69, 4177
325.6925, 4182
325.695, 4167
325.6975, 4125
325.7, 4161
325.7025, 4156
325.705, 4157
325.7075, 4169
325.71, 4145
325.7125, 4148
325.715, 4101
325.7175, 4160
325.72, 4147
325.7225, 4045
325.725, 4181
325.7275, 4188
325.73, 4166
325.7325, 4165
325.735, 4183
325.7375, 4197
325.74, 4106
325.7425, 4174
325.745, 4180
325.7475, 4205
325.75, 4209
325.7525, 4210
325.755, 4170
325.7575, 4112
325.76, 4183
325.7625, 4194
325.765, 4212
325.7675, 4225
325.77, 4230
325.7725, 4220
325.775, 4136
325.7775, 4233
325.78, 4244
325.7825, 4214
325.785, 4213
325.7875, 4236
325.79, 4247
325.7925, 4170
325.795, 4257
325.7975, 4253
325.8, 4227
325.8025, 4209
325.805, 4207
325.8075, 4217
325.81, 4124
325.8125, 4213
325.815, 4190
325.8175, 4202
325.82, 4180
325.8225, 4187
325.825, 4184
325.8275, 4133
325.83, 4209
325.8325, 4185
325.835, 4175
325.8375, 4162
325.84, 4175
325.8425, 4174
325.845, 4109
325.8475, 4163
325.85, 4164
325.8525, 4185
325.855, 4178
325.8575, 4198
325.86, 4190
325.8625, 4093
325.865, 4172
325.8675, 4169
325.87, 4159
325.8725, 4171
325.875, 4192
325.8775, 4196
325.88, 4108
325.8825, 4190
325.885, 4172
325.8875, 4169
325.89, 4155
325.8925, 4211
325.895, 4195
325.8975, 4172
325.9, 4190
325.9025, 4180
325.905, 4157
325.9075, 4122
325.91, 4195
325.9125, 4183
325.915, 4063
325.9175, 4195
325.92, 4198
325.9225, 4188
325.925, 4189
325.9275, 4186
325.93, 4183
325.9325, 4138
325.935, 4181
325.9375, 4168
325.94, 4175
325.9425, 4184
325.945, 4195
325.9475, 4176
325.95, 4120
325.9525, 4206
325.955, 4214
325.9575, 4206
325.96, 4166
325.9625, 4207
325.965, 4195
325.9675, 4070
325.97, 4205
325.9725, 4222
325.975, 4189
325.9775, 4173
325.98, 4176
325.9825, 4188
325.985, 4123
325.9875, 4162
325.99, 4189
325.9925, 4176
325.995, 4167
325.9975, 4164
326.0, 4148
326.0025, 4084
326.005, 4157
326.0075, 4175
326.01, 4164
326.0125, 4149
326.015, 4161
326.0175, 4155
326.02, 4055
326.0225, 4148
326.025, 4161
326.0275, 4162
326.03, 4164
326.0325, 4171
326.035, 4177
326.0375, 4094
326.04, 4188
326.0425, 4143
326.045, 4160
326.0475, 4125
326.05, 4160
326.0525, 4171
326.055, 4082
326.0575, 4170
326.06, 4156
326.0625, 4155
326.065, 4168
326.0675, 4213
326.07, 4182
326.0725, 4129
326.075, 4179
326.0775, 4181
326.08, 4167
326.0825, 4177
326.085, 4160
326.0875, 4163
326.09, 4106
326.0925, 4184
326.095, 4178
326.0975, 4173
326.1, 4160
326.1025, 4171
326.105, 4174
326.1075, 4151
326.11, 4183
326.1125, 4174
326.115, 4157
326.1175, 4165
326.12, 4175
326.1225, 4175
326.125, 4096
326.1275, 4182
326.13, 4185
326.1325, 4181
326.135, 4160
326.1375, 4169
326.14, 4166
326.1425, 4049
326.145, 4145
326.1475, 4140
326.15, 4124
326.1525, 4134
326.155, 4145
326.1575, 4159
326.16, 4060
326.1625, 4153
326.165, 4125
326.1675, 4110
326.17, 4118
326.1725, 4126
326.175, 4127
326.1775, 4089
326.18, 4165
326.1825, 4197
326.185, 4183
326.1875, 4174
326.19, 4202
326.1925, 4198
326.195, 4114
326.1975, 4188
326.2, 4195
326.2025, 4195
326.205, 4197
326.2075, 4192
326.21, 4182
326.2125, 4076
326.215, 4194
326.2175, 4201
326.22, 4182
326.2225, 4174
326.225, 4187
326.2275, 4189
326.23, 4167
326.2325, 4191
326.235, 4197
326.2375, 4200
326.24, 4195
326.2425, 4215
326.245, 4180
326.2475, 4101
326.25, 4174
326.2525, 4195
326.255, 4263
326.2575, 4377
326.26, 4417
326.2625, 4434
326.265, 4406
326.2675, 4511
326.27, 4439
326.2725, 4269
326.275, 4029
326.2775, 3848
326.28, 3513
326.2825, 3122
326.285, 2823
326.2875, 2321
326.29, 1899
326.2925, 1663
326.295, 1710
326.2975, 1968
326.3, 2566
326.3025, 3577
326.305, 4440
326.3075, 4851
326.31, 4996
326.3125, 4980
326.315, 4845
326.3175, 4626
326.32, 4605
326.3225, 4567
326.325, 4526
326.3275, 4484
326.33, 4481
326.3325, 4476
326.335, 4435
326.3375, 4522
326.34, 4496
326.3425, 4511
326.345, 4469
326.3475, 4480
326.35, 4467
326.3525, 4374
326.355, 4450
326.3575, 4430
326.36, 4429
326.3625, 4427
326.365, 4427
326.3675, 4403
326.37, 4330
326.3725, 4383
326.375, 4374
326.3775, 4362
326.38, 4346
326.3825, 4361
326.385, 4336
326.3875, 4260
326.39, 4347
326.3925, 4336
326.395, 4318
326.3975, 4320
326.4, 4321
326.4025, 4324
326.405, 4280
326.4075, 4315
326.41, 4274
326.4125, 4278
326.415, 4260
326.4175, 4293
326.42, 4248
326.4225, 4186
326.425, 4275
326.4275, 4270
326.43, 4264
326.4325, 4225
326.435, 4225
326.4375, 4215
326.44, 4113
326.4425, 4211
326.445, 4203
326.4475, 4213
326.45, 4201
326.4525, 4211
326.455, 4223
326.4575, 4096
326.46, 4206
326.4625, 4201
326.465, 4193
326.4675, 4197
326.47, 4220
326.4725, 4210
326.475, 4124
326.4775, 4206
326.48, 4210
326.4825, 4202
326.485, 4205
326.4875, 4198
326.49, 4230
326.4925, 4138
326.495, 4220
326.4975, 4225
326.5, 4211
326.5025, 4198
326.505, 4214
326.5075, 4215
326.51, 4142
326.5125, 4228
326.515, 4212
326.5175, 4211
326.52, 4203
326.5225, 4198
326.525, 4209
326.5275, 4168
326.53, 4197
326.5325, 4192
326.535, 4199
326.5375, 4210
326.54, 4206
326.5425, 4187
326.545, 4081
326.5475, 4204
326.55, 4237
326.5525, 4229
326.555, 4181
326.5575, 4215
326.56, 4206
326.5625, 4118
326.565, 4184
326.5675, 4195
326.57, 4183
326.5725, 4179
326.575, 4187
326.5775, 4160
326.58, 4065
326.5825, 4148
326.585, 4150
326.5875, 4154
326.59, 4149
326.5925, 4171
326.595, 4175
326.5975, 4096
326.6, 4179
326.6025, 4165
326.605, 4159
326.6075, 4172
326.61, 4179
326.6125, 4163
326.615, 4074
326.6175, 4170
326.62, 4195
326.6225, 4195
326.625, 4184
326.6275, 4231
326.63, 4242
326.6325, 4189
326.635, 4213
326.6375, 4200
326.64, 4216
326.6425, 4187
326.645, 4219
326.6475, 4203
326.65, 4107
326.6525, 4237
326.655, 4197
326.6575, 4218
326.66, 4186
326.6625, 4223
326.665, 4233
326.6675, 4165
326.67, 4226
326.6725, 4227
326.675, 4210
326.6775, 4205
326.68, 4193
326.6825, 4186
326.685, 4078
326.6875, 4215
326.69, 4211
326.6925, 4225
326.695, 4107
326.6975, 4226
326.7, 4205
326.7025, 4150
326.705, 4183
326.7075, 4187
326.71, 4178
326.7125, 4190
326.715, 4182
326.7175, 4190
326.72, 4053
326.7225, 4199
326.725, 4196
326.7275, 4183
326.73, 4180
326.7325, 4182
326.735, 4173
326.7375, 4089
326.74, 4181
326.7425, 4186
326.745, 4185
326.7475, 4182
326.75, 4191
326.7525, 4164
326.755, 4123
326.7575, 4175
326.76, 4178
326.7625, 4156
326.765, 4158
326.7675, 4205
326.77, 4184
326.7725, 4113
326.775, 4200
326.7775, 4176
326.78, 4188
326.7825, 4197
326.785, 4178
326.7875, 4191
326.79, 4059
326.7925, 4201
326.795, 4166
326.7975, 4177
326.8, 4154
326.8025, 4172
326.805, 4178
326.8075, 4086
326.81, 4168
326.8125, 4180
326.815, 4159
326.8175, 4165
326.82, 4163
326.8225, 4130
326.825, 4080
326.8275, 4155
326.83, 4172
326.8325, 4174
326.835, 4162
326.8375, 4179
326.84, 4163
326.8425, 4080
326.845, 4168
326.8475, 4165
326.85, 4165
326.8525, 4169
326.855, 4167
326.8575, 4150
326.86, 4040
326.8625, 4157
326.865, 4167
326.8675, 4150
326.87, 4155
326.8725, 4154
326.875, 4159
326.8775, 4087
326.88, 4179
326.8825, 4173
326.885, 4202
326.8875, 4151
326.89, 4183
326.8925, 4196
326.895, 4152
326.8975, 4180
326.9, 4170
326.9025, 4155
326.905, 4056
326.9075, 4180
326.91, 4186
326.9125, 4090
326.915, 4171
326.9175, 4160
326.92, 4150
326.9225, 4161
326.925, 4158
326.9275, 4148
326.93, 4052
326.9325, 4160
326.935, 4153
326.9375, 4157
326.94, 4146
326.9425, 4183
326.945, 4157
326.9475, 4074
326.95, 4135
326.9525, 4132
326.955, 4140
326.9575, 4145
326.96, 4156
326.9625, 4155
326.965, 4085
326.9675, 4168
326.97, 4159
326.9725, 4138
326.975, 4120
326.9775, 4170
326.98, 4145
326.9825, 4108
326.985, 4126
326.9875, 4147
326.99, 4120
326.9925, 4136
326.995, 4155
326.9975, 4133
327.0, 4038
327.0025, 4158
327.005, 4139
327.0075, 4133
327.01, 4118
327.0125, 4136
327.015, 4136
327.0175, 4072
327.02, 4166
327.0225, 4178
327.025, 4161
327.0275, 4137
327.03, 4152
327.0325, 4163
327.035, 4070
327.0375, 4172
327.04, 4171
327.0425, 4175
327.045, 4145
327.0475, 4176
327.05, 4174
327.0525, 4073
327.055, 4158
327.0575, 4148
327.06, 4180
327.0625, 4177
327.065, 4196
327.0675, 4173
327.07, 4063
327.0725, 4170
327.075, 4156
327.0775, 4150
327.08, 4141
327.0825, 4172
327.085, 4159
327.0875, 4065
327.09, 4155
327.0925, 4165
327.095, 4166
327.0975, 4176
327.1, 4182
327.1025, 4165
327.105, 4055
327.1075, 4157
327.11, 4158
327.1125, 4161
327.115, 4152
327.1175, 4130
327.12, 4130
327.1225, 4050
327.125, 4124
327.1275, 4131
327.13, 4136
327.1325, 4099
327.135, 4151
327.1375, 4143
327.14, 4091
327.1425, 4173
327.145, 4174
327.1475, 4168
327.15, 4172
327.1525, 4178
327.155, 4172
327.1575, 4151
327.16, 4153
327.1625, 4154
327.165, 4139
327.1675, 4126
327.17, 4165
327.1725, 4187
327.175, 4162
327.1775, 4167
327.18, 4161
327.1825, 4191
327.185, 4166
327.1875, 4203
327.19, 4192
327.1925, 4120
327.195, 4196
327.1975, 4204
327.2, 4138
327.2025, 4155
327.205, 4187
327.2075, 4196
327.21, 4231
327.2125, 4317
327.215, 4396
327.2175, 4409
327.22, 4471
327.2225, 4497
327.225, 4452
327.2275, 4244
327.23, 4139
327.2325, 3919
327.235, 3599
327.2375, 3263
327.24, 2916
327.2425, 2464
327.245, 1922
327.2475, 1669
327.25, 1656
327.2525, 1828
327.255, 2362
327.2575, 3376
327.26, 4187
327.2625, 4592
327.265, 4890
327.2675, 4894
327.27, 4788
327.2725, 4658
327.275, 4551
327.2775, 4553
327.28, 4464
327.2825, 4542
327.285, 4520
327.2875, 4535
327.29, 4527
327.2925, 4537
327.295, 4537
327.2975, 4413
327.3, 4547
327.3025, 4510
327.305, 4498
327.3075, 4492
327.31, 4490
327.3125, 4458
327.315, 4364
327.3175, 4464
327.32, 4462
327.3225, 4448
327.325, 4427
327.3275, 4441
327.33, 4406
327.3325, 4358
327.335, 4373
327.3375, 4369
327.34, 4367
327.3425, 4356
327.345, 4385
327.3475, 4372
327.35, 4275
327.3525, 4365
327.355, 4359
327.3575, 4330
327.36, 4322
327.3625, 4322
327.365, 4320
327.3675, 4231
327.37, 4296
327.3725, 4290
327.375, 4277
327.3775, 4279
327.38, 4276
327.3825, 4272
327.385, 4234
327.3875, 4286
327.39, 4276
327.3925, 4254
327.395, 4257
327.3975, 4261
327.4, 4256
327.4025, 4128
327.405, 4267
327.4075, 4263
327.41, 4245
327.4125, 4236
327.415, 4243
327.4175, 4238
327.42, 4141
327.4225, 4269
327.425, 4280
327.4275, 4253
327.43, 4136
327.4325, 4262
327.435, 4263
327.4375, 4163
327.44, 4239
327.4425, 4246
327.445, 4208
327.4475, 4194
327.45, 4185
327.4525, 4209
327.455, 4136
327.4575, 4217
327.46, 4227
327.4625, 4210
327.465, 4193
327.4675, 4199
327.47, 4200
327.4725, 4104
327.475, 4185
327.4775, 4189
327.48, 4187
327.4825, 4149
327.485, 4217
327.4875, 4221
327.49, 4151
327.4925, 4226
327.495, 4212
327.4975, 4197
327.5, 4174
327.5025, 4203
327.505, 4178
327.5075, 4072
327.51, 4190
327.5125, 4189
327.515, 4196
327.5175, 4170
327.52, 4172
327.5225, 4166
327.525, 4084
327.5275, 4161
327.53, 4148
327.5325, 4136
327.535, 4135
327.5375, 4135
327.54, 4119
327.5425, 4051
327.545, 4157
327.5475, 4139
327.55, 4135
327.5525, 4139
327.555, 4137
327.5575, 4136
327.56, 4098
327.5625, 4122
327.565, 4126
327.5675, 4121
327.57, 4127
327.5725, 4136
327.575, 4113
327.5775, 4057
327.58, 4154
327.5825, 4152
327.585, 4152
327.5875, 4161
327.59, 4165
327.5925, 4172
327.595, 4078
327.5975, 4186
327.6, 4190
327.6025, 4180
327.605, 4190
327.6075, 4212
327.61, 4183
327.6125, 4091
327.615, 4187
327.6175, 4181
327.62, 4164
327.6225, 4180
327.625, 4193
327.6275, 4184
327.63, 4160
327.6325, 4163
327.635, 4163
327.6375, 4157
327.64, 4160
327.6425, 4170
327.645, 4142
327.6475, 4040
327.65, 4162
327.6525, 4225
327.655, 4197
327.6575, 4171
327.66, 4181
327.6625, 4185
327.665, 4059
327.6675, 4192
327.67, 4196
327.6725, 4190
327.675, 4185
327.6775, 4172
327.68, 4159
327.6825, 4110
327.685, 4169
327.6875, 4190
327.69, 4161
327.6925, 4164
327.695, 4170
327.6975, 4159
327.7, 4095
327.7025, 4163
327.705, 4156
327.7075, 4153
327.71, 4116
327.7125, 4185
327.715, 4166
327.7175, 4032
327.72, 4171
327.7225, 4157
327.725, 4143
327.7275, 4144
327.73, 4137
327.7325, 4146
327.735, 4123
327.7375, 4149
327.74, 4144
327.7425, 4159
327.745, 4159
327.7475, 4168
327.75, 4150
327.7525, 4086
327.755, 4155
327.7575, 4174
327.76, 4169
327.7625, 4170
327.765, 4165
327.7675, 4172
327.77, 4097
327.7725, 4178
327.775, 4189
327.7775, 4168
327.78, 4178
327.7825, 4200
327.785, 4194
327.7875, 4097
327.79, 4158
327.7925, 4160
327.795, 4155
327.7975, 4166
327.8, 4158
327.8025, 4169
327.805, 4106
327.8075, 4200
327.81, 4182
327.8125, 4187
327.815, 4206
327.8175, 4206
327.82, 4205
327.8225, 4109
327.825, 4170
327.8275, 4167
327.83, 4161
327.8325, 4152
327.835, 4177
327.8375, 4179
327.84, 4068
327.8425, 4204
327.845, 4206
327.8475, 4186
327.85, 4170
327.8525, 4190
327.855, 4177
327.8575, 4104
327.86, 4213
327.8625, 4211
327.865, 4193
327.8675, 4166
327.87, 4196
327.8725, 4211
327.875, 4107
327.8775, 4199
327.88, 4197
327.8825, 4193
327.885, 4167
327.8875, 4173
327.89, 4165
327.8925, 4037
327.895, 4165
327.8975, 4186
327.9, 4198
327.9025, 4157
327.905, 4195
327.9075, 4215
327.91, 4163
327.9125, 4208
327.915, 4202
327.9175, 4173
327.92, 4163
327.9225, 4180
327.925, 4190
327.9275, 4108
327.93, 4191
327.9325, 4177
327.935, 4193
327.9375, 4183
327.94, 4169
327.9425, 4176
327.945, 4089
327.9475, 4149
327.95, 4142
327.9525, 4155
327.955, 4160
327.9575, 4176
327.96, 4181
327.9625, 4056
327.965, 4177
327.9675, 4158
327.97, 4151
327.9725, 4164
327.975, 4178
327.9775, 4173
327.98, 4100
327.9825, 4200
327.985, 4173
327.9875, 4156
327.99, 4155
327.9925, 4154
327.995, 4140
327.9975, 4090
328.0, 4178
328.0025, 4177
328.005, 4169
328.0075, 4150
328.01, 4200
328.0125, 4197
328.015, 4066
328.0175, 4187
328.02, 4189
328.0225, 4155
328.025, 4169
328.0275, 4171
328.03, 4171
328.0325, 4104
328.035, 4176
328.0375, 4165
328.04, 4186
328.0425, 4164
328.045, 4170
328.0475, 4172
328.05, 4089
328.0525, 4177
328.055, 4191
328.0575, 4175
328.06, 4152
328.0625, 4140
328.065, 4133
328.0675, 4115
328.07, 4151
328.0725, 4152
328.075, 4160
328.0775, 4144
328.08, 4119
328.0825, 4129
328.085, 4020
328.0875, 4144
328.09, 4169
328.0925, 4165
328.095, 4162
328.0975, 4169
328.1, 4161
328.1025, 4074
328.105, 4172
328.1075, 4180
328.11, 4178
328.1125, 4153
328.115, 4145
328.1175, 4148
328.12, 4041
328.1225, 4191
328.125, 4173
328.1275, 4179
328.13, 4154
328.1325, 4175
328.135, 4164
328.1375, 4074
328.14, 4191
328.1425, 4195
328.145, 4189
328.1475, 4190
328.15, 4160
328.1525, 4159
328.155, 4082
328.1575, 4201
328.16, 4199
328.1625, 4223
328.165, 4251
328.1675, 4368
328.17, 4408
328.1725, 4350
328.175, 4460
328.1775, 4481
328.18, 4404
328.1825, 4228
328.185, 4007
328.1875, 3739
328.19, 3336
328.1925, 3165
328.195, 2765
328.1975, 2227
328.2, 1926
328.2025, 1744
328.205, 1807
328.2075, 2130
328.21, 2828
328.2125, 3770
328.215, 4620
328.2175, 4948
328.22, 5091
328.2225, 5075
328.225, 4797
328.2275, 4792
328.23, 4659
328.2325, 4585
328.235, 4552
328.2375, 4511
328.24, 4480
328.2425, 4412
328.245, 4508
328.2475, 4522
328.25, 4506
328.2525, 4493
328.255, 4503
328.2575, 4456
328.26, 4369
328.2625, 4436
328.265, 4445
328.2675, 4423
328.27, 4419
328.2725, 4385
328.275, 4399
328.2775, 4300
328.28, 4376
328.2825, 4376
328.285, 4360
328.2875, 4370
328.29, 4368
328.2925, 4352
328.295, 4273
328.2975, 4357
328.3, 4354
328.3025, 4321
328.305, 4310
328.3075, 4311
328.31, 4297
328.3125, 4188
328.315, 4278
328.3175, 4276
328.32, 4267
328.3225, 4260
328.325, 4279
328.3275, 4284
328.33, 4193
328.3325, 4284
328.335, 4266
328.3375, 4239
328.34, 4204
328.3425, 4245
328.345, 4244
328.3475, 4131
328.35, 4224
328.3525, 4217
328.355, 4223
328.3575, 4217
328.36, 4214
328.3625, 4217
328.365, 4134
328.3675, 4214
328.37, 4201
328.3725, 4187
328.375, 4184
328.3775, 4195
328.38, 4225
328.3825, 4182
328.385, 4206
328.3875, 4214
328.39, 4215
328.3925, 4203
328.395, 4219
328.3975, 4189
328.4, 4081
328.4025, 4196
328.405, 4185
328.4075, 4215
328.41, 4096
328.4125, 4229
328.415, 4213
328.4175, 4115
328.42, 4222
328.4225, 4198
328.425, 4218
328.4275, 4193
328.43, 4188
328.4325, 4202
328.435, 4098
328.4375, 4192
328.44, 4201
328.4425, 4226
328.445, 4204
328.4475, 4212
328.45, 4204
328.4525, 4108
328.455, 4176
328.4575, 4190
328.46, 4195
328.4625, 4162
328.465, 4184
328.4675, 4163
328.47, 4035
328.4725, 4154
328.475, 4177
328.4775, 4189
328.48, 4068
328.4825, 4196
328.485, 4179
328.4875, 4085
328.49, 4180
328.4925, 4174
328.495, 4166
328.4975, 4159
328.5, 4169
328.5025, 4175
328.505, 4134
328.5075, 4170
328.51, 4172
328.5125, 4177
328.515, 4186
328.5175, 4203
328.52, 4199
328.5225, 4093
328.525, 4198
328.5275, 4199
328.53, 4218
328.5325, 4196
328.535, 4189
328.5375, 4191
328.54, 4102
328.5425, 4238
328.545, 4263
328.5475, 4256
328.55, 4209
328.5525, 4248
328.555, 4235
328.5575, 4182
328.56, 4234
328.5625, 4218
328.565, 4228
328.5675, 4217
328.57, 4233
328.5725, 4225
328.575, 4131
328.5775, 4228
328.58, 4214
328.5825, 4218
328.585, 4206
328.5875, 4217
328.59, 4194
328.5925, 4105
328.595, 4196
328.5975, 4194
328.6, 4173
328.6025, 4151
328.605, 4177
328.6075, 4145
328.61, 4081
328.6125, 4185
328.615, 4188
328.6175, 4196
328.62, 4184
328.6225, 4203
328.625, 4201
328.6275, 4113
328.63, 4215
328.6325, 4219
328.635, 4194
328.6375, 4173
328.64, 4201
328.6425, 4162
328.645, 4068
328.6475, 4156
328.65, 4164
328.6525, 4172
328.655, 4121
328.6575, 4191
328.66, 4191
328.6625, 4049
328.665, 4170
328.6675, 4197
328.67, 4181
328.6725, 4184
328.675, 4186
328.6775, 4177
328.68, 4144
328.6825, 4163
328.685, 4158
328.6875, 4139
328.69, 4127
328.6925, 4157
328.695, 4182
328.6975, 4102
328.7, 4183
328.7025, 4172
328.705, 4187
328.7075, 4199
328.71, 4204
328.7125, 4188
328.715, 4167
328.7175, 4202
328.72, 4199
328.7225, 4186
328.725, 4176
328.7275, 4210
328.73, 4156
328.7325, 4131
328.735, 4180
328.7375, 4170
328.74, 4164
328.7425, 4175
328.745, 4170
328.7475, 4185
328.75, 4093
328.7525, 4175
328.755, 4151
328.7575, 4144
328.76, 4130
328.7625, 4140
328.765, 4142
328.7675, 4059
328.77, 4141
328.7725, 4127
328.775, 4124
328.7775, 4131
328.78, 4157
328.7825, 4150
328.785, 4128
328.7875, 4161
328.79, 4136
328.7925, 4144
328.795, 4141
328.7975, 4158
328.8, 4161
328.8025, 4042
328.805, 4180
328.8075, 4179
328.81, 4196
328.8125, 4195
328.815, 4190
328.8175, 4187
328.82, 4100
328.8225, 4191
328.825, 4181
328.8275, 4162
328.83, 4156
328.8325, 4168
328.835, 4150
328.8375, 4039
328.84, 4176
328.8425, 4174
328.845, 4133
328.8475, 4159
328.85, 4193
328.8525, 4194
328.855, 4134
328.8575, 4174
328.86, 4193
328.8625, 4183
328.865, 4165
328.8675, 4163
328.87, 4163
328.8725, 4049
328.875, 4203
328.8775, 4161
328.88, 4162
328.8825, 4170
328.885, 4171
328.8875, 4147
328.89, 4078
328.8925, 4161
328.895, 4159
328.8975, 4171
328.9, 4175
328.9025, 4164
328.905, 4156
328.9075, 4100
328.91, 4147
328.9125, 4136
328.915, 4142
328.9175, 4145
328.92, 4121
328.9225, 4087
328.925, 4006
328.9275, 4130
328.93, 4127
328.9325, 4120
328.935, 4108
328.9375, 4113
328.94, 4082
328.9425, 4019
328.945, 4119
328.9475, 4121
328.95, 4122
328.9525, 4132
328.955, 4158
328.9575, 4163
328.96, 4101
328.9625, 4182
328.965, 4182
328.9675, 4165
328.97, 4177
328.9725, 4191
328.975, 4192
328.9775, 4085
328.98, 4184
328.9825, 4160
328.985, 4148
328.9875, 4143
328.99, 4150
328.9925, 4143
328.995, 4066
328.9975, 4169
329.0, 4177
329.0025, 4160
329.005, 4182
329.0075, 4191
329.01, 4189
329.0125, 4099
329.015, 4194
329.0175, 4206
329.02, 4182
329.0225, 4185
329.025, 4199
329.0275, 4218
329.03, 4247
329.0325, 4368
329.035, 4420
329.0375, 4418
329.04, 4474
329.0425, 4501
329.045, 4436
329.0475, 4175
329.05, 4097
329.0525, 3826
329.055, 3467
329.0575, 3168
329.06, 2747
329.0625, 2202
329.065, 1754
329.0675, 1604
329.07, 1675
329.0725, 1996
329.075, 2739
329.0775, 3719
329.08, 4478
329.0825, 4775
329.085, 4991
329.0875, 4953
329.09, 4813
329.0925, 4646
329.095, 4575
329.0975, 4550
329.1, 4461
329.1025, 4502
329.105, 4479
329.1075, 4483
329.11, 4474
329.1125, 4500
329.115, 4503
329.1175, 4432
329.12, 4491
329.1225, 4486
329.125, 4473
329.1275, 4460
329.13, 4449
329.1325, 4412
329.135, 4342
329.1375, 4420
329.14, 4412
329.1425, 4410
329.145, 4390
329.1475, 4383
329.15, 4371
329.1525, 4266
329.155, 4365
329.1575, 4358
329.16, 4322
329.1625, 4326
329.165, 4341
329.1675, 4327
329.17, 4240
329.1725, 4319
329.175, 4317
329.1775, 4310
329.18, 4309
329.1825, 4300
329.185, 4296
329.1875, 4209
329.19, 4285
329.1925, 4271
329.195, 4270
329.1975, 4246
329.2, 4258
329.2025, 4260
329.205, 4158
329.2075, 4240
329.21, 4225
329.2125, 4219
329.215, 4208
329.2175, 4237
329.22, 4217
329.2225, 4143
329.225, 4238
329.2275, 4224
329.23, 4192
329.2325, 4202
329.235, 4209
329.2375, 4229
329.24, 4087
329.2425, 4224
329.245, 4242
329.2475, 4216
329.25, 4204
329.2525, 4200
329.255, 4195
329.2575, 4084
329.26, 4198
329.2625, 4213
329.265, 4201
329.2675, 4209
329.27, 4206
329.2725, 4195
329.275, 4107
329.2775, 4182
329.28, 4202
329.2825, 4175
329.285, 4180
329.2875, 4198
329.29, 4197
329.2925, 4117
329.295, 4209
329.2975, 4212
329.3, 4192
329.3025, 4185
329.305, 4211
329.3075, 4200
329.31, 4082
329.3125, 4223
329.315, 4226
329.3175, 4223
329.32, 4213
329.3225, 4224
329.325, 4230
329.3275, 4175
329.33, 4210
329.3325, 4213
329.335, 4198
329.3375, 4177
329.34, 4190
329.3425, 4181
329.345, 4118
329.3475, 4174
329.35, 4155
329.3525, 4152
329.355, 4145
329.3575, 4151
329.36, 4130
329.3625, 4054
329.365, 4169
329.3675, 4143
329.37, 4130
329.3725, 4139
329.375, 4152
329.3775, 4157
329.38, 4035
329.3825, 4178
329.385, 4181
329.3875, 4165
329.39, 4168
329.3925, 4164
329.395, 4174
329.3975, 4081
329.4, 4182
329.4025, 4190
329.405, 4184
329.4075, 4175
329.41, 4199
329.4125, 4201
329.415, 4077
329.4175, 4230
329.42, 4218
329.4225, 4209
329.425, 4086
329.4275, 4245
329.43, 4228
329.4325, 4136
329.435, 4218
329.4375, 4199
329.44, 4206
329.4425, 4203
329.445, 4200
329.4475, 4209
329.45, 4144
329.4525, 4202
329.455, 4197
329.4575, 4193
329.46, 4185
329.4625, 4184
329.465, 4177
329.4675, 4121
329.47, 4199
329.4725, 4179
329.475, 4168
329.4775, 4190
329.48, 4191
329.4825, 4191
329.485, 4115
329.4875, 4187
329.49, 4168
329.4925, 4189
329.495, 4181
329.4975, 4203
329.5, 4175
329.5025, 4133
329.505, 4159
329.5075, 4167
329.51, 4183
329.5125, 4168
329.515, 4165
329.5175, 4163
329.52, 4078
329.5225, 4161
329.525, 4183
329.5275, 4159
329.53, 4138
329.5325, 4149
329.535, 4152
329.5375, 4070
329.54, 4172
329.5425, 4154
329.545, 4163
329.5475, 4150
329.55, 4164
329.5525, 4161
329.555, 4077
329.5575, 4195
329.56, 4188
329.5625, 4179
329.565, 4180
329.5675, 4171
329.57, 4156
329.5725, 4089
329.575, 4181
329.5775, 4186
329.58, 4183
329.5825, 4166
329.585, 4182
329.5875, 4160
329.59, 4073
329.5925, 4171
329.595, 4170
329.5975, 4166
329.6, 4170
329.6025, 4172
329.605, 4144
329.6075, 4070
329.61, 4158
329.6125, 4167
329.615, 4159
329.6175, 4143
329.62, 4168
329.6225, 4170
329.625, 4132
329.6275, 4162
329.63, 4143
329.6325, 4153
329.635, 4143
329.6375, 4160
329.64, 4177
329.6425, 4083
329.645, 4189
329.6475, 4148
329.65, 4147
329.6525, 4152
329.655, 4155
329.6575, 4135
329.66, 4045
329.6625, 4151
329.665, 4151
329.6675, 4154
329.67, 4134
329.6725, 4162
329.675, 4153
329.6775, 4133
329.68, 4163
329.6825, 4147
329.685, 4148
329.6875, 4153
329.69, 4155
329.6925, 4127
329.695, 4061
329.6975, 4167
329.7, 4178
329.7025, 4169
329.705, 4162
329.7075, 4178
329.71, 4171
329.7125, 4085
329.715, 4153
329.7175, 4145
329.72, 4149
329.7225, 4139
329.725, 4164
329.7275, 4155
329.73, 4087
329.7325, 4172
329.735, 4138
329.7375, 4135
329.74, 4144
329.7425, 4180
329.745, 4172
329.7475, 4066
329.75, 4158
329.7525, 4146
329.755, 4138
329.7575, 4116
329.76, 4126
329.7625, 4147
329.765, 4060
329.7675, 4135
329.77, 4149
329.7725, 4147
329.775, 4147
329.7775, 4166
329.78, 4170
329.7825, 4081
329.785, 4151
329.7875, 4142
329.79, 4155
329.7925, 4149
329.795, 4155
329.7975, 4179
329.8, 4076
329.8025, 4179
329.805, 4179
329.8075, 4173
329.81, 4166
329.8125, 4176
329.815, 4165
329.8175, 4063
329.82, 4146
329.8225, 4146
329.825, 4140
329.8275, 4140
329.83, 4129
329.8325, 4109
329.835, 3992
329.8375, 4149
329.84, 4139
329.8425, 4124
329.845, 4107
329.8475, 4146
329.85, 4146
329.8525, 4129
329.855, 4185
329.8575, 4190
329.86, 4197
329.8625, 4172
329.865, 4189
329.8675, 4160
329.87, 4074
329.8725, 4165
329.875, 4163
329.8775, 4172
329.88, 4156
329.8825, 4197
329.885, 4179
329.8875, 4096
329.89, 4157
329.8925, 4152
329.895, 4167
329.8975, 4162
329.9, 4203
329.9025, 4200
329.905, 4098
329.9075, 4169
329.91, 4160
329.9125, 4168
329.915, 4184
329.9175, 4191
329.92, 4182
329.9225, 4146
329.925, 4328
329.9275, 4378
329.93, 4418
329.9325, 4444
329.935, 4493
329.9375, 4488
329.94, 4310
329.9425, 4240
329.945, 4021
329.9475, 3700
329.95, 3357
329.9525, 2982
329.955, 2572
329.9575, 1949
329.96, 1736
329.9625, 1659
329.965, 1785
329.9675, 2267
329.97, 3219
329.9725, 4076
329.975, 4469
329.9775, 4797
329.98, 4973
329.9825, 4868
329.985, 4692
329.9875, 4597
329.99, 4537
329.9925, 4478
329.995, 4537
329.9975, 4523
330.0, 4495
330.0025, 4526
330.005, 4550
330.0075, 4524
330.01, 4447
330.0125, 4534
330.015, 4513
330.0175, 4509
330.02, 4487
330.0225, 4485
330.025, 4492
330.0275, 4404
330.03, 4484
330.0325, 4467
330.035, 4452
330.0375, 4423
330.04, 4431
330.0425, 4406
330.045, 4299
330.0475, 4377
330.05, 4354
330.0525, 4331
330.055, 4345
330.0575, 4368
330.06, 4366
330.0625, 4279
330.065, 4354
330.0675, 4322
330.07, 4306
330.0725, 4278
330.075, 4297
330.0775, 4300
330.08, 4214
330.0825, 4273
330.085, 4282
330.0875, 4258
330.09, 4238
330.0925, 4268
330.095, 4258
330.0975, 4193
330.1, 4258
330.1025, 4227
330.105, 4242
330.1075, 4211
330.11, 4247
330.1125, 4231
330.115, 4111
330.1175, 4226
330.12, 4232
330.1225, 4245
330.125, 4205
330.1275, 4231
330.13, 4220
330.1325, 4131
330.135, 4219
330.1375, 4232
330.14, 4246
330.1425, 4239
330.145, 4244
330.1475, 4220
330.15, 4138
330.1525, 4190
330.155, 4181
330.1575, 4192
330.16, 4198
330.1625, 4219
330.165, 4194
330.1675, 4111
330.17, 4191
330.1725, 4195
330.175, 4210
330.1775, 4216
330.18, 4206
330.1825, 4205
330.185, 4133
330.1875, 4231
330.19, 4218
330.1925, 4218
330.195, 4198
330.1975, 4204
330.2, 4203
330.2025, 4123
330.205, 4211
330.2075, 4173
330.21, 4185
330.2125, 4185
330.215, 4193
330.2175, 4182
330.22, 4128
330.2225, 4216
330.225, 4175
330.2275, 4180
330.23, 4155
330.2325, 4165
330.235, 4156
330.2375, 4067
330.24, 4153
330.2425, 4149
330.245, 4153
330.2475, 4163
330.25, 4173
330.2525, 4179
330.255, 4098
330.2575, 4197
330.26, 4188
330.2625, 4161
330.265, 4149
330.2675, 4169
330.27, 4166
330.2725, 4091
330.275, 4179
330.2775, 4164
330.28, 4170
330.2825, 4185
330.285, 4202
330.2875, 4187
330.29, 4103
330.2925, 4186
330.295, 4165
330.2975, 4206
330.3, 4193
330.3025, 4203
330.305, 4221
330.3075, 4130
330.31, 4213
330.3125, 4202
330.315, 4196
330.3175, 4195
330.32, 4217
330.3225, 4215
330.325, 4180
330.3275, 4214
330.33, 4204
330.3325, 4213
330.335, 4210
330.3375, 4212
330.34, 4213
330.3425, 4084
330.345, 4224
330.3475, 4227
330.35, 4223
330.3525, 4188
330.355, 4243
330.3575, 4214
330.36, 4140
330.3625, 4225
330.365, 4212
330.3675, 4196
330.37, 4176
330.3725, 4176
330.375, 4180
330.3775, 4078
330.38, 4184
330.3825, 4196
330.385, 4188
330.3875, 4178
330.39, 4200
330.3925, 4188
330.395, 4115
330.3975, 4219
330.4, 4193
330.4025, 4218
330.405, 4183
330.4075, 4202
330.41, 4187
330.4125, 4056
330.415, 4192
330.4175, 4225
330.42, 4209
330.4225, 4190
330.425, 4188
330.4275, 4167
330.43, 4071
330.4325, 4182
330.435, 4177
330.4375, 4168
330.44, 4192
330.4425, 4210
330.445, 4199
330.4475, 4105
330.45, 4198
330.4525, 4180
330.455, 4174
330.4575, 4177
330.46, 4198
330.4625, 4198
330.465, 4112
330.4675, 4213
330.47, 4185
330.4725, 4197
330.475, 4189
330.4775, 4180
330.48, 4137
330.4825, 4042
330.485, 4179
330.4875, 4181
330.49, 4171
330.4925, 4183
330.495, 4173
330.4975, 4174
330.5, 4109
330.5025, 4193
330.505, 4200
330.5075, 4182
330.51, 4172
330.5125, 4189
330.515, 4192
330.5175, 4100
330.52, 4193
330.5225, 4167
330.525, 4171
330.5275, 4177
330.53, 4197
330.5325, 4198
330.535, 4095
330.5375, 4189
330.54, 4197
330.5425, 4192
330.545, 4177
330.5475, 4180
330.55, 4179
330.5525, 4108
330.555, 4162
330.5575, 4179
330.56, 4197
330.5625, 4206
330.565, 4188
330.5675, 4173
330.57, 4098
330.5725, 4156
330.575, 4157
330.5775, 4153
330.58, 4157
330.5825, 4149
330.585, 4151
330.5875, 4066
330.59, 4159
330.5925, 4163
330.595, 4173
330.5975, 4156
330.6, 4170
330.6025, 4164
330.605, 4052
330.6075, 4151
330.61, 4134
330.6125, 4141
330.615, 4144
330.6175, 4146
330.62, 4168
330.6225, 4062
330.625, 4138
330.6275, 4136
330.63, 4146
330.6325, 4139
330.635, 4145
330.6375, 4151
330.64, 4066
330.6425, 4139
330.645, 4128
330.6475, 4137
330.65, 4134
330.6525, 4161
330.655, 4175
330.6575, 4076
330.66, 4171
330.6625, 4176
330.665, 4157
330.6675, 4160
330.67, 4171
330.6725, 4161
330.675, 4068
330.6775, 4152
330.68, 4153
330.6825, 4152
330.685, 4153
330.6875, 4157
330.69, 4154
330.6925, 4032
330.695, 4165
330.6975, 4189
330.7, 4188
330.7025, 4178
330.705, 4187
330.7075, 4149
330.71, 4102
330.7125, 4170
330.715, 4190
330.7175, 4189
330.72, 4198
330.7225, 4205
330.725, 4190
330.7275, 4144
330.73, 4195
330.7325, 4180
330.735, 4183
330.7375, 4153
330.74, 4155
330.7425, 4120
330.745, 3997
330.7475, 4120
330.75, 4128
330.7525, 4117
330.755, 4116
330.7575, 4132
330.76, 4093
330.7625, 4002
330.765, 4118
330.7675, 4110
330.77, 4104
330.7725, 4120
330.775, 4167
330.7775, 4170
330.78, 4084
330.7825, 4187
330.785, 4173
330.7875, 4174
330.79, 4206
330.7925, 4179
330.795, 4169
330.7975, 4095
330.8, 4180
330.8025, 4176
330.805, 4169
330.8075, 4158
330.81, 4194
330.8125, 4170
330.815, 4085
330.8175, 4180
330.82, 4192
330.8225, 4193
330.825, 4173
330.8275, 4181
330.83, 4182
330.8325, 4110
330.835, 4175
330.8375, 4194
330.84, 4186
330.8425, 4191
330.845, 4199
330.8475, 4228
330.85, 4236
330.8525, 4391
330.855, 4418
330.8575, 4467
330.86, 4480
330.8625, 4480
330.865, 4344
330.8675, 4040
330.87, 3911
330.8725, 3642
330.875, 3334
330.8775, 3005
330.88, 2595
330.8825, 2072
330.885, 1780
330.8875, 1706
330.89, 1891
330.8925, 2330
330.895, 3149
330.8975, 4155
330.9, 4806
330.9025, 4984
330.905, 5065
330.9075, 5019
330.91, 4848
330.9125, 4708
330.915, 4633
330.9175, 4614
330.92, 4455
330.9225, 4530
330.925, 4478
330.9275, 4491
330.93, 4500
330.9325, 4493
330.935, 4506
330.9375, 4408
330.94, 4470
330.9425, 4462
330.945, 4449
330.9475, 4447
330.95, 4458
330.9525, 4428
330.955, 4347
330.9575, 4451
330.96, 4427
330.9625, 4407
330.965, 4386
330.9675, 4375
330.97, 4365
330.9725, 4265
330.975, 4362
330.9775, 4359
330.98, 4344
330.9825, 4335
330.985, 4327
330.9875, 4307
330.99, 4226
330.9925, 4306
330.995, 4315
330.9975, 4302
331.0, 4262
331.0025, 4282
331.005, 4262
331.0075, 4161
331.01, 4271
331.0125, 4238
331.015, 4232
331.0175, 4249
331.02, 4243
331.0225, 4235
331.025, 4198
331.0275, 4227
331.03, 4219
331.0325, 4220
331.035, 4218
331.0375, 4225
331.04, 4217
331.0425, 4132
331.045, 4233
331.0475, 4217
331.05, 4200
331.0525, 4199
331.055, 4189
331.0575, 4174
331.06, 4103
331.0625, 4197
331.065, 4193
331.0675, 4205
331.07, 4207
331.0725, 4213
331.075, 4205
331.0775, 4125
331.08, 4206
331.0825, 4197
331.085, 4191
331.0875, 4188
331.09, 4196
331.0925, 4181
331.095, 4110
331.0975, 4211
331.1, 4200
331.1025, 4208
331.105, 4189
331.1075, 4178
331.11, 4178
331.1125, 4084
331.115, 4188
331.1175, 4183
331.12, 4179
331.1225, 4157
331.125, 4170
331.1275, 4181
331.13, 4087
331.1325, 4165
331.135, 4187
331.1375, 4192
331.14, 4189
331.1425, 4185
331.145, 4176
331.1475, 4102
331.15, 4185
331.1525, 4203
331.155, 4175
331.1575, 4147
331.16, 4185
331.1625, 4197
331.165, 4095
331.1675, 4167
331.17, 4162
331.1725, 4164
331.175, 4174
331.1775, 4190
331.18, 4175
331.1825, 4074
331.185, 4182
331.1875, 4176
331.19, 4191
331.1925, 4161
331.195, 4189
331.1975, 4189
331.2, 4172
331.2025, 4209
331.205, 4187
331.2075, 4191
331.21, 4196
331.2125, 4202
331.215, 4181
331.2175, 4112
331.22, 4210
331.2225, 4215
331.225, 4212
331.2275, 4215
331.23, 4216
331.2325, 4229
331.235, 4127
331.2375, 4236
331.24, 4231
331.2425, 4223
331.245, 4242
331.2475, 4247
331.25, 4212
331.2525, 4185
331.255, 4218
331.2575, 4193
331.26, 4204
331.2625, 4200
331.265, 4233
331.2675, 4197
331.27, 4108
331.2725, 4196
331.275, 4213
331.2775, 4209
331.28, 4177
331.2825, 4182
331.285, 4177
331.2875, 4115
331.29, 4185
331.2925, 4190
331.295, 4194
331.2975, 4201
331.3, 4200
331.3025, 4199
331.305, 4114
331.3075, 4212
331.31, 4216
331.3125, 4195
331.315, 4173
331.3175, 4196
331.32, 4188
331.3225, 4119
331.325, 4212
331.3275, 4192
331.33, 4194
331.3325, 4190
331.335, 4204
331.3375, 4197
331.34, 4120
331.3425, 4207
331.345, 4201
331.3475, 4196
331.35, 4189
331.3525, 4172
331.355, 4181
331.3575, 4088
331.36, 4186
331.3625, 4183
331.365, 4174
331.3675, 4187
331.37, 4159
331.3725, 4161
331.375, 4118
331.3775, 4173
331.38, 4173
331.3825, 4180
331.385, 4159
331.3875, 4165
331.39, 4162
331.3925, 4082
331.395, 4159
331.3975, 4179
331.4, 4176
331.4025, 4152
331.405, 4164
331.4075, 4161
331.41, 4039
331.4125, 4163
331.415, 4144
331.4175, 4146
331.42, 4164
331.4225, 4159
331.425, 4162
331.4275, 4118
331.43, 4160
331.4325, 4156
331.435, 4157
331.4375, 4146
331.44, 4173
331.4425, 4165
331.445, 4087
331.4475, 4148
331.45, 4146
331.4525, 4173
331.455, 4111
331.4575, 4205
331.46, 4179
331.4625, 4085
331.465, 4174
331.4675, 4171
331.47, 4162
331.4725, 4155
331.475, 4161
331.4775, 4160
331.48, 4081
331.4825, 4157
331.485, 4145
331.4875, 4138
331.49, 4158
331.4925, 4161
331.495, 4168
331.4975, 4101
331.5, 4184
331.5025, 4177
331.505, 4160
331.5075, 4170
331.51, 4148
331.5125, 4125
331.515, 4020
331.5175, 4169
331.52, 4163
331.5225, 4155
331.525, 4153
331.5275, 4184
331.53, 4157
331.5325, 4082
331.535, 4171
331.5375, 4174
331.54, 4161
331.5425, 4142
331.545, 4161
331.5475, 4166
331.55, 4129
331.5525, 4159
331.555, 4163
331.5575, 4159
331.56, 4165
331.5625, 4159
331.565, 4164
331.5675, 4094
331.57, 4169
331.5725, 4166
331.575, 4156
331.5775, 4166
331.58, 4176
331.5825, 4163
331.585, 4078
331.5875, 4165
331.59, 4162
331.5925, 4152
331.595, 4146
331.5975, 4160
331.6, 4153
331.6025, 4060
331.605, 4168
331.6075, 4171
331.61, 4193
331.6125, 4194
331.615, 4187
331.6175, 4164
331.62, 4085
331.6225, 4169
331.625, 4172
331.6275, 4178
331.63, 4156
331.6325, 4168
331.635, 4179
331.6375, 4038
331.64, 4170
331.6425, 4173
331.645, 4146
331.6475, 4142
331.65, 4150
331.6525, 4139
331.655, 4043
331.6575, 4140
331.66, 4145
331.6625, 4152
331.665, 4146
331.6675, 4173
331.67, 4167
331.6725, 4151
331.675, 4188
331.6775, 4185
331.68, 4181
331.6825, 4162
331.685, 4181
331.6875, 4198
331.69, 4118
331.6925, 4209
331.695, 4183
331.6975, 4195
331.7, 4197
331.7025, 4216
331.705, 4211
331.7075, 4115
331.71, 4198
331.7125, 4197
331.715, 4155
331.7175, 4173
331.72, 4204
331.7225, 4187
331.725, 4179
331.7275, 4226
331.73, 4222
331.7325, 4229
331.735, 4204
331.7375, 4212
331.74, 4176
331.7425, 4139
331.745, 4284
331.7475, 4374
331.75, 4414
331.7525, 4449
331.755, 4482
331.7575, 4508
331.76, 4341
331.7625, 4269
331.765, 4061
331.7675, 3786
331.77, 3429
331.7725, 3116
331.775, 2708
331.7775, 2073
331.78, 1764
331.7825, 1588
331.785, 1672
331.7875, 2013
331.79, 2823
331.7925, 3791
331.795, 4488
331.7975, 4898
331.8, 4993
331.8025, 4896
331.805, 4738
331.8075, 4617
331.81, 4566
331.8125, 4464
331.815, 4521
331.8175, 4497
331.82, 4503
331.8225, 4505
331.825, 4514
331.8275, 4542
331.83, 4437
331.8325, 4538
331.835, 4537
331.8375, 4505
331.84, 4508
331.8425, 4502
331.845, 4463
331.8475, 4431
331.85, 4454
331.8525, 4442
331.855, 4413
331.8575, 4419
331.86, 4450
331.8625, 4407
331.865, 4319
331.8675, 4419
331.87, 4392
331.8725, 4383
331.875, 4345
331.8775, 4370
331.88, 4361
331.8825, 4271
331.885, 4355
331.8875, 4328
331.89, 4328
331.8925, 4307
331.895, 4325
331.8975, 4306
331.9, 4244
331.9025, 4291
331.905, 4279
331.9075, 4269
331.91, 4264
331.9125, 4284
331.915, 4276
331.9175, 4176
331.92, 4236
331.9225, 4230
331.925, 4249
331.9275, 4248
331.93, 4261
331.9325, 4251
331.935, 4149
331.9375, 4219
331.94, 4223
331.9425, 4237
331.945, 4217
331.9475, 4258
331.95, 4238
331.9525, 4159
331.955, 4248
331.9575, 4249
331.96, 4237
331.9625, 4222
331.965, 4219
331.9675, 4212
331.97, 4134
331.9725, 4235
331.975, 4221
331.9775, 4218
331.98, 4238
331.9825, 4240
331.985, 4228
331.9875, 4139
331.99, 4246
331.9925, 4271
331.995, 4240
331.9975, 4216
332.0, 4222
332.0025, 4210
332.005, 4131
332.0075, 4224
332.01, 4224
332.0125, 4233
332.015, 4229
332.0175, 4252
332.02, 4233
332.0225, 4160
332.025, 4222
332.0275, 4214
332.03, 4210
332.0325, 4229
332.035, 4228
332.0375, 4212
332.04, 4091
332.0425, 4224
332.045, 4208
332.0475, 4204
332.05, 4203
332.0525, 4199
332.055, 4201
332.0575, 4094
332.06, 4190
332.0625, 4170
332.065, 4142
332.0675, 4105
332.07, 4154
332.0725, 4161
332.075, 4067
332.0775, 4160
332.08, 4130
332.0825, 4123
332.085, 4127
332.0875, 4128
332.09, 4129
332.0925, 4045
332.095, 4161
332.0975, 4171
332.1, 4162
332.1025, 4116
332.105, 4146
332.1075, 4131
332.11, 4051
332.1125, 4141
332.115, 4124
332.1175, 4123
332.12, 4139
332.1225, 4151
332.125, 4156
332.1275, 4041
332.13, 4178
332.1325, 4169
332.135, 4154
332.1375, 4152
332.14, 4164
332.1425, 4162
332.145, 4084
332.1475, 4178
332.15, 4169
332.1525, 4171
332.155, 4164
332.1575, 4195
332.16, 4173
332.1625, 4096
332.165, 4190
332.1675, 4177
332.17, 4173
332.1725, 4189
332.175, 4191
332.1775, 4182
332.18, 4088
332.1825, 4164
332.185, 4175
332.1875, 4160
332.19, 4152
332.1925, 4155
332.195, 4159
332.1975, 4116
332.2, 4177
332.2025, 4170
332.205, 4167
332.2075, 4167
332.21, 4141
332.2125, 4165
332.215, 4057
332.2175, 4176
332.22, 4156
332.2225, 4157
332.225, 4150
332.2275, 4159
332.23, 4143
332.2325, 4063
332.235, 4157
332.2375, 4158
332.24, 4149
332.2425, 4143
332.245, 4155
332.2475, 4159
332.25, 4154
332.2525, 4178
332.255, 4185
332.2575, 4180
332.26, 4174
332.2625, 4180
332.265, 4152
332.2675, 4080
332.27, 4162
332.2725, 4161
332.275, 4157
332.2775, 4161
332.28, 4175
332.2825, 4141
332.285, 4055
332.2875, 4141
332.29, 4144
332.2925, 4158
332.295, 4153
332.2975, 4172
332.3, 4171
332.3025, 4081
332.305, 4172
332.3075, 4161
332.31, 4156
332.3125, 4165
332.315, 4160
332.3175, 4182
332.32, 4095
332.3225, 4186
332.325, 4195
332.3275, 4185
332.33, 4168
332.3325, 4180
332.335, 4175
332.3375, 4092
332.34, 4184
332.3425, 4180
332.345, 4168
332.3475, 4154
332.35, 4157
332.3525, 4156
332.355, 4083
332.3575, 4174
332.36, 4172
332.3625, 4170
332.365, 4152
332.3675, 4155
332.37, 4160
332.3725, 4107
332.375, 4161
332.3775, 4139
332.38, 4134
332.3825, 4127
332.385, 4130
332.3875, 4124
332.39, 4047
332.3925, 4144
332.395, 4126
332.3975, 4128
332.4, 4134
332.4025, 4153
332.405, 4149
332.4075, 4060
332.41, 4162
332.4125, 4156
332.415, 4165
332.4175, 4148
332.42, 4163
332.4225, 4137
332.425, 4030
332.4275, 4152
332.43, 4174
332.4325, 4158
332.435, 4129
332.4375, 4172
332.44, 4166
332.4425, 4068
332.445, 4156
332.4475, 4165
332.45, 4140
332.4525, 4139
332.455, 4181
332.4575, 4175
332.46, 4049
332.4625, 4154
332.465, 4169
332.4675, 4161
332.47, 4146
332.4725, 4170
332.475, 4161
332.4775, 4051
332.48, 4158
332.4825, 4175
332.485, 4163
332.4875, 4177
332.49, 4186
332.4925, 4184
332.495, 4100
332.4975, 4195
332.5, 4191
332.5025, 4177
332.505, 4169
332.5075, 4142
332.51, 4133
332.5125, 4065
332.515, 4153
332.5175, 4161
332.52, 4154
332.5225, 4160
332.525, 4176
332.5275, 4175
332.53, 4068
332.5325, 4146
332.535, 4157
332.5375, 4173
332.54, 4163
332.5425, 4176
332.545, 4183
332.5475, 4110
332.55, 4196
332.5525, 4184
332.555, 4187
332.5575, 4152
332.56, 4183
332.5625, 4157
332.565, 4071
332.5675, 4144
332.57, 4149
332.5725, 4129
332.575, 4128
332.5775, 4120
332.58, 4125
332.5825, 4045
332.585, 4126
332.5875, 4129
332.59, 4128
332.5925, 4128
332.595, 4129
332.5975, 4142
332.6, 4129
332.6025, 4157
332.605, 4190
332.6075, 4177
332.61, 4168
332.6125, 4183
332.615, 4209
332.6175, 4139
332.62, 4233
332.6225, 4218
332.625, 4178
332.6275, 4173
332.63, 4186
332.6325, 4169
332.635, 4083
332.6375, 4182
332.64, 4171
332.6425, 4169
332.645, 4177
332.6475, 4182
332.65, 4169
332.6525, 4072
332.655, 4164
332.6575, 4175
332.66, 4180
332.6625, 4167
332.665, 4176
332.6675, 4167
332.67, 4104
332.6725, 4232
332.675, 4340
332.6775, 4382
332.68, 4421
332.6825, 4486
332.685, 4506
332.6875, 4395
332.69, 4344
332.6925, 4142
332.695, 3895
332.6975, 3578
332.7, 3290
332.7025, 2862
332.705, 2357
332.7075, 1975
332.71, 1737
332.7125, 1715
332.715, 1949
332.7175, 2521
332.72, 3445
332.7225, 4224
332.725, 4780
332.7275, 4998
332.73, 5006
332.7325, 4887
332.735, 4760
332.7375, 4636
332.74, 4497
332.7425, 4574
332.745, 4532
332.7475, 4502
332.75, 4501
332.7525, 4492
332.755, 4493
332.7575, 4388
332.76, 4501
332.7625, 4504
332.765, 4499
332.7675, 4484
332.77, 4459
332.7725, 4454
332.775, 4420
332.7775, 4493
332.78, 4451
332.7825, 4431
332.785, 4401
332.7875, 4427
332.79, 4388
332.7925, 4300
332.795, 4376
332.7975, 4364
332.8, 4363
332.8025, 4336
332.805, 4352
332.8075, 4327
332.81, 4230
332.8125, 4291
332.815, 4297
332.8175, 4300
332.82, 4282
332.8225, 4282
332.825, 4291
332.8275, 4206
332.83, 4294
332.8325, 4296
332.835, 4269
332.8375, 4256
332.84, 4286
332.8425, 4281
332.845, 4183
332.8475, 4268
332.85, 4258
332.8525, 4254
332.855, 4249
332.8575, 4227
332.86, 4218
332.8625, 4150
332.865, 4237
332.8675, 4237
332.87, 4243
332.8725, 4239
332.875, 4231
332.8775, 4217
332.88, 4132
332.8825, 4222
332.885, 4216
332.8875, 4217
332.89, 4208
332.8925, 4214
332.895, 4194
332.8975, 4102
332.9, 4210
332.9025, 4213
332.905, 4199
332.9075, 4183
332.91, 4216
332.9125, 4212
332.915, 4113
332.9175, 4207
332.92, 4188
332.9225, 4161
332.925, 4164
332.9275, 4171
332.93, 4182
332.9325, 4108
332.935, 4179
332.9375, 4183
332.94, 4180
332.9425, 4192
332.945, 4200
332.9475, 4207
332.95, 4144
332.9525, 4191
332.955, 4195
332.9575, 4206
332.96, 4194
332.9625, 4214
332.965, 4206
332.9675, 4126
332.97, 4214
332.9725, 4215
332.975, 4213
332.9775, 4213
332.98, 4232
332.9825, 4218
332.985, 4112
332.9875, 4232
332.99, 4226
332.9925, 4202
332.995, 4203
332.9975, 4199
333.0, 4202
333.0025, 4122
333.005, 4221
333.0075, 4188
333.01, 4195
333.0125, 4200
333.015, 4200
333.0175, 4161
333.02, 4065
333.0225, 4183
333.025, 4187
333.0275, 4170
333.03, 4198
333.0325, 4223
333.035, 4190
333.0375, 4097
333.04, 4183
333.0425, 4194
333.045, 4205
333.0475, 4199
333.05, 4211
333.0525, 4213
333.055, 4115
333.0575, 4227
333.06, 4212
333.0625, 4211
333.065, 4205
333.0675, 4213
333.07, 4215
333.0725, 4146
333.075, 4227
333.0775, 4227
333.08, 4224
333.0825, 4209
333.085, 4213
333.0875, 4213
333.09, 4116
333.0925, 4204
333.095, 4195
333.0975, 4210
333.1, 4189
333.1025, 4205
333.105, 4196
333.1075, 4123
333.11, 4212
333.1125, 4205
333.115, 4190
333.1175, 4203
333.12, 4208
333.1225, 4166
333.125, 4137
333.1275, 4167
333.13, 4177
333.1325, 4180
333.135, 4180
333.1375, 4177
333.14, 4161
333.1425, 4075
333.145, 4143
333.1475, 4174
333.15, 4188
333.1525, 4154
333.155, 4195
333.1575, 4187
333.16, 4090
333.1625, 4173
333.165, 4167
333.1675, 4158
333.17, 4152
333.1725, 4187
333.175, 4161
333.1775, 4124
333.18, 4173
333.1825, 4165
333.185, 4160
333.1875, 4155
333.19, 4181
333.1925, 4172
333.195, 4065
333.1975, 4150
333.2, 4158
333.2025, 4159
333.205, 4166
333.2075, 4162
333.21, 4171
333.2125, 4075
333.215, 4168
333.2175, 4162
333.22, 4164
333.2225, 4169
333.225, 4176
333.2275, 4174
333.23, 4081
333.2325, 4172
333.235, 4170
333.2375, 4177
333.24, 4174
333.2425, 4160
333.245, 4169
333.2475, 4072
333.25, 4163
333.2525, 4150
333.255, 4176
333.2575, 4124
333.26, 4154
333.2625, 4143
333.265, 4059
333.2675, 4142
333.27, 4154
333.2725, 4160
333.275, 4144
333.2775, 4158
333.28, 4142
333.2825, 4049
333.285, 4162
333.2875, 4178
333.29, 4183
333.2925, 4198
333.295, 4198
333.2975, 4174
333.3, 4133
333.3025, 4187
333.305, 4174
333.3075, 4167
333.31, 4178
333.3125, 4176
333.315, 4154
333.3175, 4076
333.32, 4177
333.3225, 4188
333.325, 4185
333.3275, 4153
333.33, 4182
333.3325, 4197
333.335, 4064
333.3375, 4181
333.34, 4186
333.3425, 4191
333.345, 4171
333.3475, 4188
333.35, 4191
333.3525, 4092
333.355, 4168
333.3575, 4170
333.36, 4168
333.3625, 4189
333.365, 4166
333.3675, 4183
333.37, 4088
333.3725, 4172
333.375, 4165
333.3775, 4176
333.38, 4159
333.3825, 4178
333.385, 4149
333.3875, 4068
333.39, 4159
333.3925, 4172
333.395, 4169
333.3975, 4169
333.4, 4169
333.4025, 4158
333.405, 4073
333.4075, 4167
333.41, 4153
333.4125, 4179
333.415, 4175
333.4175, 4167
333.42, 4165
333.4225, 4080
333.425, 4165
333.4275, 4164
333.43, 4140
333.4325, 4132
333.435, 4180
333.4375, 4188
333.44, 4103
333.4425, 4178
333.445, 4184
333.4475, 4174
333.45, 4164
333.4525, 4199
333.455, 4169
333.4575, 4053
333.46, 4206
333.4625, 4203
333.465, 4174
333.4675, 4176
333.47, 4169
333.4725, 4153
333.475, 4076
333.4775, 4169
333.48, 4164
333.4825, 4162
333.485, 4132
333.4875, 4162
333.49, 4153
333.4925, 4036
333.495, 4118
333.4975, 4124
333.5, 4147
333.5025, 4135
333.505, 4156
333.5075, 4123
333.51, 4035
333.5125, 4141
333.515, 4129
333.5175, 4121
333.52, 4129
333.5225, 4150
333.525, 4160
333.5275, 4131
333.53, 4193
333.5325, 4180
333.535, 4181
333.5375, 4174
333.54, 4186
333.5425, 4153
333.545, 4055
333.5475, 4196
333.55, 4219
333.5525, 4186
333.555, 4164
333.5575, 4184
333.56, 4165
333.5625, 4074
333.565, 4163
333.5675, 4183
333.57, 4190
333.5725, 4176
333.575, 4194
333.5775, 4194
333.58, 4097
333.5825, 4176
333.585, 4183
333.5875, 4164
333.59, 4166
333.5925, 4194
333.595, 4213
333.5975, 4172
333.6, 4344
333.6025, 4390
333.605, 4422
333.6075, 4450
333.61, 4471
333.6125, 4447
333.615, 4210
333.6175, 4081
333.62, 3834
333.6225, 3519
333.625, 3221
333.6275, 2799
333.63, 2275
333.6325, 1819
333.635, 1656
333.6375, 1675
333.64, 1935
333.6425, 2539
333.645, 3528
333.6475, 4462
333.65, 4814
333.6525, 5050
333.655, 5026
333.6575, 4896
333.66, 4723
333.6625, 4631
333.665, 4570
333.6675, 4467
333.67, 4511
333.6725, 4518
333.675, 4481
333.6775, 4484
333.68, 4489
333.6825, 4490
333.685, 4412
333.6875, 4508
333.69, 4475
333.6925, 4464
333.695, 4455
333.6975, 4462
333.7, 4437
333.7025, 4384
333.705, 4426
333.7075, 4415
333.71, 4405
333.7125, 4391
333.715, 4384
333.7175, 4373
333.72, 4250
333.7225, 4371
333.725, 4340
333.7275, 4334
333.73, 4353
333.7325, 4362
333.735, 4343
333.7375, 4250
333.74, 4325
333.7425, 4309
333.745, 4306
333.7475, 4282
333.75, 4313
333.7525, 4270
333.755, 4194
333.7575, 4291
333.76, 4287
333.7625, 4261
333.765, 4268
333.7675, 4265
333.77, 4246
333.7725, 4147
333.775, 4229
333.7775, 4243
333.78, 4229
333.7825, 4229
333.785, 4232
333.7875, 4239
333.79, 4161
333.7925, 4265
333.795, 4252
333.7975, 4243
333.8, 4246
333.8025, 4242
333.805, 4224
333.8075, 4140
333.81, 4229
333.8125, 4240
333.815, 4224
333.8175, 4231
333.82, 4243
333.8225, 4241
333.825, 4173
333.8275, 4192
333.83, 4204
333.8325, 4223
333.835, 4225
333.8375, 4221
333.84, 4207
333.8425, 4120
333.845, 4219
333.8475, 4175
333.85, 4185
333.8525, 4202
333.855, 4203
333.8575, 4197
333.86, 4177
333.8625, 4190
333.865, 4194
333.8675, 4191
333.87, 4176
333.8725, 4228
333.875, 4217
333.8775, 4173
333.88, 4221
333.8825, 4214
333.885, 4221
333.8875, 4221
333.89, 4247
333.8925, 4224
333.895, 4135
333.8975, 4239
333.9, 4226
333.9025, 4215
333.905, 4194
333.9075, 4228
333.91, 4225
333.9125, 4122
333.915, 4204
333.9175, 4212
333.92, 4173
333.9225, 4181
333.925, 4162
333.9275, 4157
333.93, 4070
333.9325, 4164
333.935, 4144
333.9375, 4146
333.94, 4145
333.9425, 4146
333.945, 4154
333.9475, 4062
333.95, 4180
333.9525, 4160
333.955, 4155
333.9575, 4168
333.96, 4170
333.9625, 4176
333.965, 4089
333.9675, 4171
333.97, 4197
333.9725, 4182
333.975, 4162
333.9775, 4176
333.98, 4184
333.9825, 4069
333.985, 4175
333.9875, 4183
333.99, 4171
333.9925, 4171
333.995, 4167
333.9975, 4167
334.0, 4102
334.0025, 4206
334.005, 4196
334.0075, 4183
334.01, 4181
334.0125, 4182
334.015, 4169
334.0175, 4088
334.02, 4178
334.0225, 4196
334.025, 4147
334.0275, 4146
334.03, 4165
334.0325, 4164
334.035, 4062
334.0375, 4159
334.04, 4136
334.0425, 4148
334.045, 4114
334.0475, 4122
334.05, 4148
334.0525, 4063
334.055, 4168
334.0575, 4168
334.06, 4165
334.0625, 4151
334.065, 4140
334.0675, 4168
334.07, 4081
334.0725, 4149
334.075, 4181
334.0775, 4169
334.08, 4161
334.0825, 4158
334.085, 4142
334.0875, 4060
334.09, 4150
334.0925, 4155
334.095, 4143
334.0975, 4157
334.1, 4148
334.1025, 4154
334.105, 4088
334.1075, 4143
334.11, 4153
334.1125, 4170
334.115, 4168
334.1175, 4166
334.12, 4151
334.1225, 4064
334.125, 4167
334.1275, 4160
334.13, 4153
334.1325, 4164
334.135, 4176
334.1375, 4156
334.14, 4088
334.1425, 4182
334.145, 4165
334.1475, 4157
334.15, 4162
334.1525, 4179
334.155, 4183
334.1575, 4085
334.16, 4176
334.1625, 4170
334.165, 4150
334.1675, 4168
334.17, 4161
334.1725, 4173
334.175, 4101
334.1775, 4177
334.18, 4180
334.1825, 4156
334.185, 4146
334.1875, 4189
334.19, 4170
334.1925, 4081
334.195, 4157
334.1975, 4162
334.2, 4161
334.2025, 4170
334.205, 4184
334.2075, 4158
334.21, 4094
334.2125, 4178
334.215, 4175
334.2175, 4165
334.22, 4160
334.2225, 4160
334.225, 4158
334.2275, 4124
334.23, 4178
334.2325, 4160
334.235, 4162
334.2375, 4143
334.24, 4163
334.2425, 4156
334.245, 4053
334.2475, 4145
334.25, 4140
334.2525, 4159
334.255, 4176
334.2575, 4190
334.26, 4189
334.2625, 4076
334.265, 4163
334.2675, 4164
334.27, 4159
334.2725, 4157
334.275, 4174
334.2775, 4189
334.28, 4134
334.2825, 4183
334.285, 4167
334.2875, 4159
334.29, 4174
334.2925, 4174
334.295, 4175
334.2975, 4121
334.3, 4200
334.3025, 4179
334.305, 4174
334.3075, 4173
334.31, 4189
334.3125, 4173
334.315, 4096
334.3175, 4184
334.32, 4149
334.3225, 4153
334.325, 4163
334.3275, 4144
334.33, 4137
334.3325, 4066
334.335, 4171
334.3375, 4151
334.34, 4166
334.3425, 4160
334.345, 4187
334.3475, 4177
334.35, 4094
334.3525, 4177
334.355, 4176
334.3575, 4177
334.36, 4141
334.3625, 4162
334.365, 4136
334.3675, 4031
334.37, 4167
334.3725, 4179
334.375, 4195
334.3775, 4173
334.38, 4185
334.3825, 4193
334.385, 4115
334.3875, 4196
334.39, 4193
334.3925, 4195
334.395, 4184
334.3975, 4187
334.4, 4181
334.4025, 4109
334.405, 4195
334.4075, 4168
334.41, 4175
334.4125, 4167
334.415, 4186
334.4175, 4187
334.42, 4092
334.4225, 4177
334.425, 4167
334.4275, 4179
334.43, 4163
334.4325, 4162
334.435, 4126
334.4375, 4031
334.44, 4163
334.4425, 4131
334.445, 4102
334.4475, 4115
334.45, 4141
334.4525, 4141
334.455, 4091
334.4575, 4146
334.46, 4142
334.4625, 4165
334.465, 4156
334.4675, 4181
334.47, 4170
334.4725, 4089
334.475, 4180
334.4775, 4172
334.48, 4166
334.4825, 4157
334.485, 4163
334.4875, 4173
334.49, 4096
334.4925, 4174
334.495, 4174
334.4975, 4170
334.5, 4152
334.5025, 4157
334.505, 4154
334.5075, 4082
334.51, 4172
334.5125, 4160
334.515, 4174
334.5175, 4164
334.52, 4163
334.5225, 4166
334.525, 4086
334.5275, 4167
334.53, 4148
334.5325, 4143
334.535, 4120
334.5375, 4142
334.54, 4196
334.5425, 4194
334.545, 4382
334.5475, 4416
334.55, 4450
334.5525, 4470
334.555, 4481
334.5575, 4359
334.56, 4083
334.5625, 3951
334.565, 3634
334.5675, 3281
334.57, 2871
334.5725, 2426
334.575, 1910
334.5775, 1596
334.58, 1645
334.5825, 1800
334.585, 2444
334.5875, 3330
334.59, 4229
334.5925, 4725
334.595, 4859
334.5975, 4935
334.6, 4809
334.6025, 4656
334.605, 4554
334.6075, 4541
334.61, 4517
334.6125, 4417
334.615, 4519
334.6175, 4519
334.62, 4516
334.6225, 4520
334.625, 4532
334.6275, 4536
334.63, 4507
334.6325, 4509
334.635, 4499
334.6375, 4471
334.64, 4483
334.6425, 4475
334.645, 4444
334.6475, 4363
334.65, 4442
334.6525, 4434
334.655, 4438
334.6575, 4411
334.66, 4426
334.6625, 4407
334.665, 4306
334.6675, 4384
334.67, 4366
334.6725, 4363
334.675, 4373
334.6775, 4355
334.68, 4360
334.6825, 4278
334.685, 4358
334.6875, 4338
334.69, 4321
334.6925, 4332
334.695, 4318
334.6975, 4317
334.7, 4232
334.7025, 4311
334.705, 4288
334.7075, 4307
334.71, 4289
334.7125, 4299
334.715, 4271
334.7175, 4208
334.72, 4265
334.7225, 4273
334.725, 4267
334.7275, 4247
334.73, 4281
334.7325, 4240
334.735, 4141
334.7375, 4222
334.74, 4227
334.7425, 4221
334.745, 4214
334.7475, 4242
334.75, 4217
334.7525, 4198
334.755, 4230
334.7575, 4204
334.76, 4221
334.7625, 4190
334.765, 4201
334.7675, 4212
334.77, 4136
334.7725, 4228
334.775, 4239
334.7775, 4225
334.78, 4218
334.7825, 4236
334.785, 4219
334.7875, 4159
334.79, 4250
334.7925, 4232
334.795, 4214
334.7975, 4230
334.8, 4222
334.8025, 4219
334.805, 4191
334.8075, 4243
334.81, 4235
334.8125, 4234
334.815, 4238
334.8175, 4243
334.82, 4241
334.8225, 4142
334.825, 4244
334.8275, 4239
334.83, 4246
334.8325, 4236
334.835, 4257
334.8375, 4230
334.84, 4152
334.8425, 4240
334.845, 4227
334.8475, 4226
334.85, 4211
334.8525, 4212
334.855, 4194
334.8575, 4082
334.86, 4173
334.8625, 4186
334.865, 4180
334.8675, 4169
334.87, 4153
334.8725, 4128
334.875, 4032
334.8775, 4111
334.88, 4137
334.8825, 4141
334.885, 4117
334.8875, 4125
334.89, 4130
334.8925, 4056
334.895, 4139
334.8975, 4138
334.9, 4124
334.9025, 4127
334.905, 4144
334.9075, 4168
334.91, 4050
334.9125, 4140
334.915, 4148
334.9175, 4154
334.92, 4159
334.9225, 4162
334.925, 4159
334.9275, 4080
334.93, 4204
334.9325, 4182
334.935, 4180
334.9375, 4177
334.94, 4168
334.9425, 4154
334.945, 4053
334.9475, 4175
334.95, 4188
334.9525, 4168
334.955, 4174
334.9575, 4168
334.96, 4146
334.9625, 4093
334.965, 4169
334.9675, 4170
334.97, 4165
334.9725, 4191
334.975, 4184
334.9775, 4180
334.98, 4125
334.9825, 4170
334.985, 4173
334.9875, 4188
334.99, 4175
334.9925, 4162
334.995, 4187
334.9975, 4095
335.0, 4170
335.0025, 4164
335.005, 4181
335.0075, 4160
335.01, 4168
335.0125, 4180
335.015, 4078
335.0175, 4164
335.02, 4158
335.0225, 4152
335.025, 4155
335.0275, 4135
335.03, 4136
335.0325, 4068
335.035, 4136
335.0375, 4145
335.04, 4154
335.0425, 4155
335.045, 4186
335.0475, 4183
335.05, 4093
335.0525, 4188
335.055, 4164
335.0575, 4174
335.06, 4144
335.0625, 4156
335.065, 4146
335.0675, 4055
335.07, 4159
335.0725, 4153
335.075, 4152
335.0775, 4146
335.08, 4165
335.0825, 4157
335.085, 4078
335.0875, 4154
335.09, 4169
335.0925, 4175
335.095, 4158
335.0975, 4169
335.1, 4168
335.1025, 4113
335.105, 4181
335.1075, 4151
335.11, 4168
335.1125, 4180
335.115, 4183
335.1175, 4160
335.12, 4063
335.1225, 4171
335.125, 4149
335.1275, 4130
335.13, 4130
335.1325, 4165
335.135, 4173
335.1375, 4100
335.14, 4175
335.1425, 4171
335.145, 4171
335.1475, 4154
335.15, 4158
335.1525, 4147
335.155, 4058
335.1575, 4182
335.16, 4170
335.1625, 4134
335.165, 4142
335.1675, 4144
335.17, 4135
335.1725, 4059
335.175, 4158
335.1775, 4164
335.18, 4169
335.1825, 4143
335.185, 4153
335.1875, 4147
335.19, 4081
335.1925, 4161
335.195, 4175
335.1975, 4170
335.2, 4151
335.2025, 4163
335.205, 4165
335.2075, 4078
335.21, 4187
335.2125, 4167
335.215, 4173
335.2175, 4158
335.22, 4174
335.2225, 4172
335.225, 4083
335.2275, 4172
335.23, 4165
335.2325, 4148
335.235, 4156
335.2375, 4194
335.24, 4172
335.2425, 4093
335.245, 4186
335.2475, 4195
335.25, 4170
335.2525, 4139
335.255, 4155
335.2575, 4185
335.26, 4093
335.2625, 4207
335.265, 4204
335.2675, 4206
335.27, 4150
335.2725, 4214
335.275, 4196
335.2775, 4162
335.28, 4198
335.2825, 4179
335.285, 4157
335.2875, 4152
335.29, 4178
335.2925, 4176
335.295, 4088
335.2975, 4193
335.3, 4186
335.3025, 4187
335.305, 4140
335.3075, 4211
335.31, 4177
335.3125, 4105
335.315, 4202
335.3175, 4217
335.32, 4190
335.3225, 4191
335.325, 4198
335.3275, 4189
335.33, 4139
335.3325, 4173
335.335, 4198
335.3375, 4197
335.34, 4205
335.3425, 4208
335.345, 4185
335.3475, 4090
335.35, 4177
335.3525, 4185
335.355, 4153
335.3575, 4150
335.36, 4179
335.3625, 4188
335.365, 4090
335.3675, 4191
335.37, 4199
335.3725, 4199
335.375, 4196
335.3775, 4190
335.38, 4183
335.3825, 4096
335.385, 4194
335.3875, 4193
335.39, 4175
335.3925, 4174
335.395, 4180
335.3975, 4167
335.4, 4053
335.4025, 4140
335.405, 4150
335.4075, 4153
335.41, 4118
335.4125, 4184
335.415, 4155
335.4175, 4083
335.42, 4163
335.4225, 4174
335.425, 4160
335.4275, 4172
335.43, 4192
335.4325, 4176
335.435, 4075
335.4375, 4153
335.44, 4152
335.4425, 4164
335.445, 4163
335.4475, 4184
335.45, 4165
335.4525, 4112
335.455, 4141
335.4575, 4137
335.46, 4152
335.4625, 4142
335.465, 4165
335.4675, 4150
335.47, 4037
335.4725, 4119
335.475, 4114
335.4775, 4120
335.48, 4132
335.4825, 4178
335.485, 4158
335.4875, 4053
335.49, 4173
335.4925, 4185
335.495, 4183
335.4975, 4163
335.5, 4180
335.5025, 4191
335.505, 4089
335.5075, 4201
335.51, 4195
335.5125, 4165
335.515, 4176
335.5175, 4154
335.52, 4146
335.5225, 4055
335.525, 4165
335.5275, 4173
335.53, 4165
335.5325, 4183
335.535, 4174
335.5375, 4156
335.54, 4066
335.5425, 4165
335.545, 4171
335.5475, 4171
335.55, 4190
335.5525, 4217
335.555, 4230
335.5575, 4198
335.56, 4387
335.5625, 4428
335.565, 4474
335.5675, 4486
335.57, 4451
335.5725, 4321
335.575, 4074
335.5775, 3909
335.58, 3635
335.5825, 3318
335.585, 2960
335.5875, 2539
335.59, 2064
335.5925, 1765
335.595, 1718
335.5975, 1925
335.6, 2387
335.6025, 3247
335.605, 4200
335.6075, 4790
335.61, 4963
335.6125, 5083
335.615, 4998
335.6175, 4837
335.62, 4689
335.6225, 4625
335.625, 4583
335.6275, 4490
335.63, 4506
335.6325, 4531
335.635, 4525
335.6375, 4528
335.64, 4554
335.6425, 4508
335.645, 4404
335.6475, 4482
335.65, 4475
335.6525, 4424
335.655, 4414
335.6575, 4421
335.66, 4405
335.6625, 4324
335.665, 4420
335.6675, 4404
335.67, 4393
335.6725, 4396
335.675, 4383
335.6775, 4367
335.68, 4294
335.6825, 4391
335.685, 4367
335.6875, 4361
335.69, 4339
335.6925, 4340
335.695, 4332
335.6975, 4220
335.7, 4325
335.7025, 4317
335.705, 4300
335.7075, 4299
335.71, 4294
335.7125, 4298
335.715, 4189
335.7175, 4286
335.72, 4277
335.7225, 4274
335.725, 4254
335.7275, 4250
335.73, 4236
335.7325, 4147
335.735, 4252
335.7375, 4255
335.74, 4225
335.7425, 4244
335.745, 4220
335.7475, 4230
335.75, 4120
335.7525, 4209
335.755, 4231
335.7575, 4206
335.76, 4207
335.7625, 4205
335.765, 4205
335.7675, 4123
335.77, 4219
335.7725, 4207
335.775, 4211
335.7775, 4198
335.78, 4220
335.7825, 4188
335.785, 4143
335.7875, 4217
335.79, 4223
335.7925, 4231
335.795, 4185
335.7975, 4181
335.8, 4173
335.8025, 4120
335.805, 4158
335.8075, 4165
335.81, 4157
335.8125, 4167
335.815, 4177
335.8175, 4203
335.82, 4105
335.8225, 4179
335.825, 4175
335.8275, 4166
335.83, 4170
335.8325, 4178
335.835, 4167
335.8375, 4103
335.84, 4188
335.8425, 4184
335.845, 4201
335.8475, 4196
335.85, 4195
335.8525, 4184
335.855, 4077
335.8575, 4187
335.86, 4187
335.8625, 4193
335.865, 4182
335.8675, 4195
335.87, 4199
335.8725, 4093
335.875, 4208
335.8775, 4168
335.88, 4163
335.8825, 4186
335.885, 4165
335.8875, 4172
335.89, 4122
335.8925, 4202
335.895, 4192
335.8975, 4183
335.9, 4212
335.9025, 4179
335.905, 4169
335.9075, 4098
335.91, 4209
335.9125, 4214
335.915, 4215
335.9175, 4208
335.92, 4181
335.9225, 4196
335.925, 4122
335.9275, 4229
335.93, 4213
335.9325, 4220
335.935, 4199
335.9375, 4210
335.94, 4211
335.9425, 4119
335.945, 4216
335.9475, 4218
335.95, 4227
335.9525, 4212
335.955, 4224
335.9575, 4217
335.96, 4134
335.9625, 4216
335.965, 4218
335.9675, 4208
335.97, 4190
335.9725, 4219
335.975, 4199
335.9775, 4162
335.98, 4185
335.9825, 4181
335.985, 4182
335.9875, 4179
335.99, 4184
335.9925, 4187
335.995, 4109
335.9975, 4190
336.0, 4189
336.0025, 4173
336.005, 4156
336.0075, 4198
336.01, 4198
336.0125, 4106
336.015, 4179
336.0175, 4180
336.02, 4167
336.0225, 4162
336.025, 4175
336.0275, 4179
336.03, 4122
336.0325, 4157
336.035, 4143
336.0375, 4153
336.04, 4138
336.0425, 4171
336.045, 4173
336.0475, 4048
336.05, 4182
336.0525, 4187
336.055, 4189
336.0575, 4156
336.06, 4181
336.0625, 4178
336.065, 4087
336.0675, 4190
336.07, 4183
336.0725, 4180
336.075, 4163
336.0775, 4165
336.08, 4165
336.0825, 4069
336.085, 4183
336.0875, 4172
336.09, 4172
336.0925, 4165
336.095, 4161
336.0975, 4181
336.1, 4070
336.1025, 4168
336.105, 4170
336.1075, 4175
336.11, 4183
336.1125, 4185
336.115, 4183
336.1175, 4116
336.12, 4186
336.1225, 4166
336.125, 4158
336.1275, 4151
336.13, 4187
336.1325, 4175
336.135, 4091
336.1375, 4194
336.14, 4192
336.1425, 4188
336.145, 4155
336.1475, 4136
336.15, 4148
336.1525, 4062
336.155, 4163
336.1575, 4172
336.16, 4188
336.1625, 4184
336.165, 4187
336.1675, 4152
336.17, 4064
336.1725, 4180
336.175, 4164
336.1775, 4142
336.18, 4158
336.1825, 4181
336.185, 4168
336.1875, 4060
336.19, 4162
336.1925, 4154
336.195, 4156
336.1975, 4160
336.2, 4162
336.2025, 4163
336.205, 4121
336.2075, 4169
336.21, 4173
336.2125, 4151
336.215, 4156
336.2175, 4158
336.22, 4170
336.2225, 4047
336.225, 4202
336.2275, 4188
336.23, 4182
336.2325, 4150
336.235, 4188
336.2375, 4165
336.24, 4092
336.2425, 4178
336.245, 4194
336.2475, 4181
336.25, 4178
336.2525, 4182
336.255, 4187
336.2575, 4077
336.26, 4160
336.2625, 4159
336.265, 4158
336.2675, 4141
336.27, 4158
336.2725, 4141
336.275, 4054
336.2775, 4171
336.28, 4141
336.2825, 4141
336.285, 4116
336.2875, 4141
336.29, 4135
336.2925, 4043
336.295, 4143
336.2975, 4152
336.3, 4142
336.3025, 4160
336.305, 4175
336.3075, 4153
336.31, 4043
336.3125, 4171
336.315, 4160
336.3175, 4160
336.32, 4175
336.3225, 4192
336.325, 4161
336.3275, 4113
336.33, 4150
336.3325, 4145
336.335, 4155
336.3375, 4139
336.34, 4142
336.3425, 4122
336.345, 4022
336.3475, 4119
336.35, 4105
336.3525, 4110
336.355, 4104
336.3575, 4117
336.36, 4141
336.3625, 4023
336.365, 4126
336.3675, 4136
336.37, 4148
336.3725, 4138
336.375, 4158
336.3775, 4155
336.38, 4092
336.3825, 4208
336.385, 4209
336.3875, 4197
336.39, 4187
336.3925, 4178
336.395, 4153
336.3975, 4076
336.4, 4162
336.4025, 4173
336.405, 4186
336.4075, 4179
336.41, 4211
336.4125, 4182
336.415, 4078
336.4175, 4179
336.42, 4165
336.4225, 4182
336.425, 4154
336.4275, 4178
336.43, 4158
336.4325, 4088
336.435, 4173
336.4375, 4184
336.44, 4188
336.4425, 4176
336.445, 4190
336.4475, 4180
336.45, 4091
336.4525, 4246
336.455, 4328
336.4575, 4400
336.46, 4410
336.4625, 4458
336.465, 4481
336.4675, 4367
336.47, 4323
336.4725, 4145
336.475, 3904
336.4775, 3593
336.48, 3282
336.4825, 2866
336.485, 2319
336.4875, 1895
336.49, 1658
336.4925, 1645
336.495, 1812
336.4975, 2390
336.5, 3355
336.5025, 4210
336.505, 4789
336.5075, 5006
336.51, 4993
336.5125, 4898
336.515, 4738
336.5175, 4634
336.52, 4476
336.5225, 4552
336.525, 4523
336.5275, 4495
336.53, 4485
336.5325, 4492
336.535, 4475
336.5375, 4367
336.54, 4465
336.5425, 4464
336.545, 4463
336.5475, 4457
336.55, 4466
336.5525, 4467
336.555, 4409
336.5575, 4427
336.56, 4418
336.5625, 4406
336.565, 4378
336.5675, 4394
336.57, 4387
336.5725, 4272
336.575, 4383
336.5775, 4384
336.58, 4366
336.5825, 4347
336.585, 4372
336.5875, 4342
336.59, 4248
336.5925, 4341
336.595, 4314
336.5975, 4305
336.6, 4281
336.6025, 4282
336.605, 4305
336.6075, 4212
336.61, 4306
336.6125, 4291
336.615, 4272
336.6175, 4242
336.62, 4244
336.6225, 4247
336.625, 4180
336.6275, 4270
336.63, 4267
336.6325, 4247
336.635, 4251
336.6375, 4253
336.64, 4224
336.6425, 4106
336.645, 4197
336.6475, 4191
336.65, 4192
336.6525, 4199
336.655, 4215
336.6575, 4201
336.66, 4107
336.6625, 4200
336.665, 4191
336.6675, 4175
336.67, 4177
336.6725, 4188
336.675, 4173
336.6775, 4110
336.68, 4177
336.6825, 4182
336.685, 4182
336.6875, 4186
336.69, 4207
336.6925, 4229
336.695, 4127
336.6975, 4217
336.7, 4208
336.7025, 4197
336.705, 4164
336.7075, 4203
336.71, 4218
336.7125, 4122
336.715, 4212
336.7175, 4199
336.72, 4202
336.7225, 4207
336.725, 4189
336.7275, 4207
336.73, 4165
336.7325, 4194
336.735, 4205
336.7375, 4208
336.74, 4204
336.7425, 4225
336.745, 4214
336.7475, 4132
336.75, 4233
336.7525, 4248
336.755, 4231
336.7575, 4218
336.76, 4213
336.7625, 4186
336.765, 4081
336.7675, 4174
336.77, 4183
336.7725, 4177
336.775, 4174
336.7775, 4184
336.78, 4163
336.7825, 4117
336.785, 4153
336.7875, 4150
336.79, 4132
336.7925, 4137
336.795, 4151
336.7975, 4158
336.8, 4073
336.8025, 4144
336.805, 4168
336.8075, 4157
336.81, 4147
336.8125, 4164
336.815, 4188
336.8175, 4097
336.82, 4191
336.8225, 4190
336.825, 4187
336.8275, 4202
336.83, 4214
336.8325, 4226
336.835, 4121
336.8375, 4202
336.84, 4219
336.8425, 4230
336.845, 4197
336.8475, 4195
336.85, 4210
336.8525, 4148
336.855, 4219
336.8575, 4229
336.86, 4216
336.8625, 4226
336.865, 4223
336.8675, 4218
336.87, 4112
336.8725, 4230
336.875, 4226
336.8775, 4187
336.88, 4190
336.8825, 4206
336.885, 4198
336.8875, 4080
336.89, 4188
336.8925, 4187
336.895, 4189
336.8975, 4207
336.9, 4223
336.9025, 4204
336.905, 4167
336.9075, 4214
336.91, 4195
336.9125, 4180
336.915, 4159
336.9175, 4181
336.92, 4194
336.9225, 4059
336.925, 4178
336.9275, 4170
336.93, 4168
336.9325, 4170
336.935, 4144
336.9375, 4167
336.94, 4037
336.9425, 4149
336.945, 4183
336.9475, 4145
336.95, 4148
336.9525, 4147
336.955, 4130
336.9575, 4088
336.96, 4134
336.9625, 4117
336.965, 4110
336.9675, 4134
336.97, 4124
336.9725, 4141
336.975, 4053
336.9775, 4123
336.98, 4149
336.9825, 4123
336.985, 4132
336.9875, 4164
336.99, 4165
336.9925, 4075
336.995, 4179
336.9975, 4166
337.0, 4163
337.0025, 4162
337.005, 4166
337.0075, 4179
337.01, 4078
337.0125, 4183
337.015, 4198
337.0175, 4191
337.02, 4186
337.0225, 4192
337.025, 4176
337.0275, 4091
337.03, 4194
337.0325, 4184
337.035, 4175
337.0375, 4163
337.04, 4179
337.0425, 4166
337.045, 4064
337.0475, 4155
337.05, 4171
337.0525, 4176
337.055, 4172
337.0575, 4166
337.06, 4148
337.0625, 4055
337.065, 4160
337.0675, 4146
337.07, 4145
337.0725, 4148
337.075, 4172
337.0775, 4171
337.08, 4136
337.0825, 4166
337.085, 4167
337.0875, 4160
337.09, 4143
337.0925, 4163
337.095, 4159
337.0975, 4058
337.1, 4164
337.1025, 4174
337.105, 4158
337.1075, 4165
337.11, 4180
337.1125, 4169
337.115, 4076
337.1175, 4180
337.12, 4163
337.1225, 4166
337.125, 4165
337.1275, 4167
337.13, 4185
337.1325, 4156
337.135, 4182
337.1375, 4175
337.14, 4169
337.1425, 4150
337.145, 4165
337.1475, 4151
337.15, 4034
337.1525, 4107
337.155, 4144
337.1575, 4127
337.16, 4138
337.1625, 4161
337.165, 4126
337.1675, 4072
337.17, 4172
337.1725, 4173
337.175, 4168
337.1775, 4171
337.18, 4158
337.1825, 4160
337.185, 4072
337.1875, 4163
337.19, 4143
337.1925, 4132
337.195, 4157
337.1975, 4150
337.2, 4136
337.2025, 4042
337.205, 4141
337.2075, 4144
337.21, 4154
337.2125, 4138
337.215, 4142
337.2175, 4148
337.22, 4020
337.2225, 4139
337.225, 4122
337.2275, 4096
337.23, 4111
337.2325, 4126
337.235, 4141
337.2375, 4034
337.24, 4115
337.2425, 4127
337.245, 4131
337.2475, 4133
337.25, 4176
337.2525, 4169
337.255, 4135
337.2575, 4209
337.26, 4196
337.2625, 4180
337.265, 4158
337.2675, 4169
337.27, 4163
337.2725, 4087
337.275, 4184
337.2775, 4163
337.28, 4161
337.2825, 4162
337.285, 4198
337.2875, 4176
337.29, 4059
337.2925, 4185
337.295, 4173
337.2975, 4166
337.3, 4181
337.3025, 4179
337.305, 4183
337.3075, 4084
337.31, 4192
337.3125, 4174
337.315, 4196
337.3175, 4182
337.32, 4203
337.3225, 4199
337.325, 4090
337.3275, 4198
337.33, 4244
337.3325, 4351
337.335, 4402
337.3375, 4455
337.34, 4490
337.3425, 4388
337.345, 4494
337.3475, 4347
337.35, 4154
337.3525, 3882
337.355, 3610
337.3575, 3275
337.36, 2804
337.3625, 2376
337.365, 1917
337.3675, 1642
337.37, 1643
337.3725, 1871
337.375, 2561
337.3775, 3415
337.38, 4315
337.3825, 4759
337.385, 4971
337.3875, 4933
337.39, 4816
337.3925, 4641
337.395, 4492
337.3975, 4567
337.4, 4529
337.4025, 4484
337.405, 4509
337.4075, 4526
337.41, 4537
337.4125, 4449
337.415, 4532
337.4175, 4545
337.42, 4516
337.4225, 4518
337.425, 4533
337.4275, 4513
337.43, 4451
337.4325, 4479
337.435, 4496
337.4375, 4464
337.44, 4419
337.4425, 4450
337.445, 4416
337.4475, 4352
337.45, 4435
337.4525, 4406
337.455, 4393
337.4575, 4365
337.46, 4359
337.4625, 4356
337.465, 4247
337.4675, 4338
337.47, 4347
337.4725, 4330
337.475, 4323
337.4775, 4340
337.48, 4336
337.4825, 4258
337.485, 4332
337.4875, 4314
337.49, 4317
337.4925, 4275
337.495, 4283
337.4975, 4261
337.5, 4186
337.5025, 4293
337.505, 4269
337.5075, 4279
337.51, 4267
337.5125, 4257
337.515, 4239
337.5175, 4127
337.52, 4242
337.5225, 4228
337.525, 4243
337.5275, 4221
337.53, 4232
337.5325, 4244
337.535, 4157
337.5375, 4234
337.54, 4241
337.5425, 4246
337.545, 4222
337.5475, 4246
337.55, 4219
337.5525, 4100
337.555, 4197
337.5575, 4209
337.56, 4201
337.5625, 4186
337.565, 4205
337.5675, 4213
337.57, 4125
337.5725, 4227
337.575, 4228
337.5775, 4216
337.58, 4211
337.5825, 4209
337.585, 4194
337.5875, 4115
337.59, 4231
337.5925, 4223
337.595, 4222
337.5975, 4206
337.6, 4210
337.6025, 4200
337.605, 4152
337.6075, 4196
337.61, 4200
337.6125, 4188
337.615, 4176
337.6175, 4199
337.62, 4190
337.6225, 4096
337.625, 4183
337.6275, 4223
337.63, 4222
337.6325, 4215
337.635, 4207
337.6375, 4205
337.64, 4096
337.6425, 4200
337.645, 4185
337.6475, 4165
337.65, 4155
337.6525, 4174
337.655, 4172
337.6575, 4079
337.66, 4155
337.6625, 4164
337.665, 4161
337.6675, 4161
337.67, 4173
337.6725, 4162
337.675, 4089
337.6775, 4168
337.68, 4159
337.6825, 4157
337.685, 4147
337.6875, 4170
337.69, 4160
337.6925, 4082
337.695, 4184
337.6975, 4176
337.7, 4170
337.7025, 4164
337.705, 4201
337.7075, 4204
337.71, 4121
337.7125, 4216
337.715, 4210
337.7175, 4194
337.72, 4184
337.7225, 4207
337.725, 4217
337.7275, 4123
337.73, 4222
337.7325, 4226
337.735, 4199
337.7375, 4174
337.74, 4218
337.7425, 4198
337.745, 4126
337.7475, 4213
337.75, 4190
337.7525, 4172
337.755, 4171
337.7575, 4186
337.76, 4188
337.7625, 4092
337.765, 4228
337.7675, 4214
337.77, 4195
337.7725, 4183
337.775, 4181
337.7775, 4188
337.78, 4061
337.7825, 4165
337.785, 4177
337.7875, 4162
337.79, 4162
337.7925, 4187
337.795, 4183
337.7975, 4083
337.8, 4170
337.8025, 4177
337.805, 4159
337.8075, 4145
337.81, 4168
337.8125, 4143
337.815, 4045
337.8175, 4153
337.82, 4161
337.8225, 4181
337.825, 4175
337.8275, 4184
337.83, 4185
337.8325, 4136
337.835, 4169
337.8375, 4189
337.84, 4177
337.8425, 4175
337.845, 4187
337.8475, 4190
337.85, 4093
337.8525, 4184
337.855, 4171
337.8575, 4166
337.86, 4165
337.8625, 4180
337.865, 4172
337.8675, 4084
337.87, 4182
337.8725, 4188
337.875, 4188
337.8775, 4217
337.88, 4187
337.8825, 4192
337.885, 4075
337.8875, 4180
337.89, 4193
337.8925, 4174
337.895, 4208
337.8975, 4198
337.9, 4195
337.9025, 4102
337.905, 4215
337.9075, 4177
337.91, 4193
337.9125, 4174
337.915, 4171
337.9175, 4186
337.92, 4082
337.9225, 4183
337.925, 4177
337.9275, 4166
337.93, 4173
337.9325, 4199
337.935, 4184
337.9375, 4079
337.94, 4189
337.9425, 4174
337.945, 4190
337.9475, 4187
337.95, 4187
337.9525, 4171
337.955, 4135
337.9575, 4193
337.96, 4181
337.9625, 4162
337.965, 4164
337.9675, 4167
337.97, 4183
337.9725, 4042
337.975, 4160
337.9775, 4145
337.98, 4163
337.9825, 4164
337.985, 4193
337.9875, 4164
337.99, 4084
337.9925, 4145
337.995, 4123
337.9975, 4098
338.0, 4070
338.0025, 4114
338.005, 4111
338.0075, 4026
338.01, 4115
338.0125, 4135
338.015, 4131
338.0175, 4139
338.02, 4135
338.0225, 4150
338.025, 4093
338.0275, 4182
338.03, 4199
338.0325, 4196
338.035, 4201
338.0375, 4228
338.04, 4219
338.0425, 4098
338.045, 4224
338.0475, 4185
338.05, 4186
338.0525, 4177
338.055, 4183
338.0575, 4193
338.06, 4103
338.0625, 4198
338.065, 4188
338.0675, 4169
338.07, 4176
338.0725, 4189
338.075, 4190
338.0775, 4135
338.08, 4181
338.0825, 4175
338.085, 4171
338.0875, 4178
338.09, 4204
338.0925, 4187
338.095, 4074
338.0975, 4162
338.1, 4193
338.1025, 4203
338.105, 4228
338.1075, 4340
338.11, 4394
338.1125, 4317
338.115, 4478
338.1175, 4482
338.12, 4447
338.1225, 4304
338.125, 4092
338.1275, 3818
338.13, 3450
338.1325, 3211
338.135, 2826
338.1375, 2330
338.14, 1917
338.1425, 1722
338.145, 1708
338.1475, 1917
338.15, 2589
338.1525, 3527
338.155, 4449
338.1575, 4883
338.16, 5058
338.1625, 5063
338.165, 4850
338.1675, 4768
338.17, 4648
338.1725, 4590
338.175, 4545
338.1775, 4542
338.18, 4506
338.1825, 4406
338.185, 4502
338.1875, 4488
338.19, 4489
338.1925, 4470
338.195, 4476
338.1975, 4484
338.2, 4374
338.2025, 4471
338.205, 4454
338.2075, 4451
338.21, 4440
338.2125, 4448
338.215, 4406
338.2175, 4296
338.22, 4399
338.2225, 4374
338.225, 4375
338.2275, 4356
338.23, 4375
338.2325, 4367
338.235, 4248
338.2375, 4328
338.24, 4331
338.2425, 4325
338.245, 4302
338.2475, 4309
338.25, 4314
338.2525, 4261
338.255, 4305
338.2575, 4299
338.26, 4270
338.2625, 4249
338.265, 4272
338.2675, 4246
338.27, 4126
338.2725, 4239
338.275, 4238
338.2775, 4240
338.28, 4209
338.2825, 4242
338.285, 4229
338.2875, 4130
338.29, 4245
338.2925, 4252
338.295, 4234
338.2975, 4219
338.3, 4236
338.3025, 4254
338.305, 4144
338.3075, 4228
338.31, 4212
338.3125, 4191
338.315, 4186
338.3175, 4198
338.32, 4195
338.3225, 4132
338.325, 4213
338.3275, 4183
338.33, 4178
338.3325, 4173
338.335, 4184
338.3375, 4185
338.34, 4089
338.3425, 4195
338.345, 4188
338.3475, 4167
338.35, 4181
338.3525, 4204
338.355, 4186
338.3575, 4099
338.36, 4183
338.3625, 4203
338.365, 4213
338.3675, 4203
338.37, 4183
338.3725, 4170
338.375, 4072
338.3775, 4161
338.38, 4152
338.3825, 4171
338.385, 4166
338.3875, 4169
338.39, 4176
338.3925, 4068
338.395, 4191
338.3975, 4178
338.4, 4181
338.4025, 4177
338.405, 4181
338.4075, 4179
338.41, 4096
338.4125, 4192
338.415, 4184
338.4175, 4172
338.42, 4174
338.4225, 4173
338.425, 4156
338.4275, 4077
338.43, 4169
338.4325, 4184
338.435, 4179
338.4375, 4175
338.44, 4220
338.4425, 4200
338.445, 4094
338.4475, 4215
338.45, 4227
338.4525, 4234
338.455, 4206
338.4575, 4232
338.46, 4234
338.4625, 4160
338.465, 4238
338.4675, 4225
338.47, 4245
338.4725, 4236
338.475, 4272
338.4775, 4254
338.48, 4193
338.4825, 4240
338.485, 4243
338.4875, 4245
338.49, 4205
338.4925, 4245
338.495, 4261
338.4975, 4152
338.5, 4254
338.5025, 4257
338.505, 4258
338.5075, 4257
338.51, 4260
338.5125, 4253
338.515, 4146
338.5175, 4244
338.52, 4235
338.5225, 4225
338.525, 4211
338.5275, 4233
338.53, 4233
338.5325, 4113
338.535, 4227
338.5375, 4228
338.54, 4217
338.5425, 4203
338.545, 4224
338.5475, 4203
338.55, 4084
338.5525, 4193
338.555, 4216
338.5575, 4226
338.56, 4214
338.5625, 4218
338.565, 4223
338.5675, 4114
338.57, 4217
338.5725, 4205
338.575, 4212
338.5775, 4196
338.58, 4201
338.5825, 4190
338.585, 4096
338.5875, 4192
338.59, 4172
338.5925, 4169
338.595, 4181
338.5975, 4204
338.6, 4191
338.6025, 4143
338.605, 4181
338.6075, 4176
338.61, 4183
338.6125, 4193
338.615, 4177
338.6175, 4156
338.62, 4068
338.6225, 4173
338.625, 4176
338.6275, 4173
338.63, 4145
338.6325, 4159
338.635, 4166
338.6375, 4055
338.64, 4146
338.6425, 4137
338.645, 4132
338.6475, 4152
338.65, 4149
338.6525, 4156
338.655, 4130
338.6575, 4156
338.66, 4152
338.6625, 4159
338.665, 4154
338.6675, 4158
338.67, 4154
338.6725, 4047
338.675, 4143
338.6775, 4152
338.68, 4157
338.6825, 4157
338.685, 4171
338.6875, 4158
338.69, 4068
338.6925, 4155
338.695, 4153
338.6975, 4152
338.7, 4152
338.7025, 4168
338.705, 4165
338.7075, 4049
338.71, 4181
338.7125, 4170
338.715, 4155
338.7175, 4155
338.72, 4161
338.7225, 4144
338.725, 4042
338.7275, 4140
338.73, 4144
338.7325, 4133
338.735, 4128
338.7375, 4144
338.74, 4154
338.7425, 4053
338.745, 4165
338.7475, 4155
338.75, 4145
338.7525, 4135
338.755, 4145
338.7575, 4082
338.76, 3940
338.7625, 4047
338.765, 4044
338.7675, 4067
338.77, 4067
338.7725, 4097
338.775, 4106
338.7775, 4085
338.78, 4116
338.7825, 4124
338.785, 4120
338.7875, 4134
338.79, 4159
338.7925, 4181
338.795, 4115
338.7975, 4223
338.8, 4208
338.8025, 4203
338.805, 4187
338.8075, 4195
338.81, 4206
338.8125, 4101
338.815, 4215
338.8175, 4214
338.82, 4200
338.8225, 4194
338.825, 4200
338.8275, 4205
338.83, 4108
338.8325, 4193
338.835, 4201
338.8375, 4205
338.84, 4169
338.8425, 4171
338.845, 4181
338.8475, 4080
338.85, 4180
338.8525, 4203
338.855, 4206
338.8575, 4209
338.86, 4194
338.8625, 4198
338.865, 4116
338.8675, 4194
338.87, 4203
338.8725, 4254
338.875, 4359
338.8775, 4403
338.88, 4420
338.8825, 4371
338.885, 4484
338.8875, 4419
338.89, 4246
338.8925, 4014
338.895, 3772
338.8975, 3394
338.9, 2995
338.9025, 2649
338.905, 2091
338.9075, 1700
338.91, 1521
338.9125, 1638
338.915, 1978
338.9175, 2751
338.92, 3876
338.9225, 4650
338.925, 4987
338.9275, 5044
338.93, 4969
338.9325, 4835
338.935, 4606
338.9375, 4603
338.94, 4583
338.9425, 4500
338.945, 4473
338.9475, 4484
338.95, 4483
338.9525, 4446
338.955, 4493
338.9575, 4485
338.96, 4499
338.9625, 4489
338.965, 4492
338.9675, 4480
338.97, 4360
338.9725, 4450
338.975, 4409
338.9775, 4377
338.98, 4390
338.9825, 4413
338.985, 4385
338.9875, 4284
338.99, 4371
338.9925, 4364
338.995, 4356
338.9975, 4356
339.0, 4370
339.0025, 4338
339.005, 4266
339.0075, 4358
339.01, 4351
339.0125, 4314
339.015, 4299
339.0175, 4282
339.02, 4277
339.0225, 4180
339.025, 4260
339.0275, 4228
339.03, 4227
339.0325, 4233
339.035, 4253
339.0375, 4271
339.04, 4171
339.0425, 4265
339.045, 4255
339.0475, 4227
339.05, 4201
339.0525, 4186
339.055, 4181
339.0575, 4113
339.06, 4221
339.0625, 4210
339.065, 4218
339.0675, 4207
339.07, 4207
339.0725, 4189
339.075, 4105
339.0775, 4192
339.08, 4197
339.0825, 4189
339.085, 4184
339.0875, 4213
339.09, 4216
339.0925, 4110
339.095, 4209
339.0975, 4195
339.1, 4189
339.1025, 4196
339.105, 4216
339.1075, 4187
339.11, 4111
339.1125, 4223
339.115, 4224
339.1175, 4198
339.12, 4191
339.1225, 4164
339.125, 4180
339.1275, 4104
339.13, 4199
339.1325, 4204
339.135, 4215
339.1375, 4218
339.14, 4233
339.1425, 4227
339.145, 4132
339.1475, 4229
339.15, 4216
339.1525, 4207
339.155, 4210
339.1575, 4228
339.16, 4236
339.1625, 4120
339.165, 4230
339.1675, 4226
339.17, 4246
339.1725, 4220
339.175, 4239
339.1775, 4219
339.18, 4151
339.1825, 4200
339.185, 4213
339.1875, 4152
339.19, 4155
339.1925, 4197
339.195, 4183
339.1975, 4060
339.2, 4165
339.2025, 4167
339.205, 4175
339.2075, 4161
339.21, 4183
339.2125, 4147
339.215, 4087
339.2175, 4164
339.22, 4163
339.2225, 4161
339.225, 4154
339.2275, 4180
339.23, 4182
339.2325, 4066
339.235, 4163
339.2375, 4180
339.24, 4189
339.2425, 4190
339.245, 4190
339.2475, 4200
339.25, 4102
339.2525, 4190
339.255, 4201
339.2575, 4180
339.26, 4178
339.2625, 4185
339.265, 4167
339.2675, 4089
339.27, 4200
339.2725, 4185
339.275, 4174
339.2775, 4178
339.28, 4168
339.2825, 4162
339.285, 4048
339.2875, 4165
339.29, 4147
339.2925, 4154
339.295, 4140
339.2975, 4165
339.3, 4180
339.3025, 4051
339.305, 4182
339.3075, 4191
339.31, 4173
339.3125, 4139
339.315, 4163
339.3175, 4165
339.32, 4052
339.3225, 4150
339.325, 4161
339.3275, 4149
339.33, 4128
339.3325, 4149
339.335, 4145
339.3375, 4064
339.34, 4173
339.3425, 4160
339.345, 4166
339.3475, 4135
339.35, 4139
339.3525, 4154
339.355, 4065
339.3575, 4159
339.36, 4171
339.3625, 4141
339.365, 4137
339.3675, 4126
339.37, 4128
339.3725, 4025
339.375, 4147
339.3775, 4130
339.38, 4150
339.3825, 4132
339.385, 4137
339.3875, 4151
339.39, 4067
339.3925, 4151
339.395, 4136
339.3975, 4141
339.4, 4146
339.4025, 4149
339.405, 4145
339.4075, 4045
339.41, 4145
339.4125, 4168
339.415, 4170
339.4175, 4152
339.42, 4187
339.4225, 4165
339.425, 4095
339.4275, 4153
339.43, 4163
339.4325, 4159
339.435, 4145
339.4375, 4170
339.44, 4137
339.4425, 4051
339.445, 4157
339.4475, 4177
339.45, 4154
339.4525, 4135
339.455, 4164
339.4575, 4150
339.46, 4058
339.4625, 4160
339.465, 4154
339.4675, 4147
339.47, 4138
339.4725, 4163
339.475, 4160
339.4775, 4105
339.48, 4167
339.4825, 4151
339.485, 4156
339.4875, 4155
339.49, 4147
339.4925, 4148
339.495, 4054
339.4975, 4139
339.5, 4151
339.5025, 4141
339.505, 4141
339.5075, 4145
339.51, 4136
339.5125, 4046
339.515, 4158
339.5175, 4159
339.52, 4161
339.5225, 4141
339.525, 4188
339.5275, 4167
339.53, 4080
339.5325, 4188
339.535, 4179
339.5375, 4177
339.54, 4167
339.5425, 4174
339.545, 4183
339.5475, 4065
339.55, 4148
339.5525, 4121
339.555, 4112
339.5575, 4114
339.56, 4126
339.5625, 4156
339.565, 4051
339.5675, 4173
339.57, 4171
339.5725, 4158
339.575, 4166
339.5775, 4178
339.58, 4184
339.5825, 4082
339.585, 4156
339.5875, 4169
339.59, 4157
339.5925, 4143
339.595, 4173
339.5975, 4165
339.6, 4136
339.6025, 4186
339.605, 4175
339.6075, 4160
339.61, 4160
339.6125, 4189
339.615, 4166
339.6175, 4085
339.62, 4182
339.6225, 4164
339.625, 4155
339.6275, 4173
339.63, 4166
339.6325, 4169
339.635, 4081
339.6375, 4183
339.64, 4170
339.6425, 4181
339.645, 4176
339.6475, 4200
339.65, 4208
339.6525, 4169
339.655, 4195
339.6575, 4181
339.66, 4191
339.6625, 4183
339.665, 4187
339.6675, 4189
339.67, 4072
339.6725, 4142
339.675, 4158
339.6775, 4160
339.68, 4183
339.6825, 4188
339.685, 4162
339.6875, 4089
339.69, 4189
339.6925, 4178
339.695, 4165
339.6975, 4175
339.7, 4172
339.7025, 4187
339.705, 4106
339.7075, 4195
339.71, 4197
339.7125, 4188
339.715, 4196
339.7175, 4201
339.72, 4194
339.7225, 4088
339.725, 4191
339.7275, 4171
339.73, 4181
339.7325, 4174
339.735, 4168
339.7375, 4198
339.74, 4097
339.7425, 4207
339.745, 4173
339.7475, 4186
339.75, 4181
339.7525, 4189
339.755, 4196
339.7575, 4083
339.76, 4169
339.7625, 4175
339.765, 4176
339.7675, 4153
339.77, 4190
339.7725, 4172
339.775, 4111
339.7775, 4166
339.78, 4170
339.7825, 4161
339.785, 4169
339.7875, 4170
339.79, 4167
339.7925, 4075
339.795, 4172
339.7975, 4183
339.8, 4152
339.8025, 4154
339.805, 4174
339.8075, 4149
339.81, 4040
339.8125, 4148
339.815, 4150
339.8175, 4138
339.82, 4124
339.8225, 4151
339.825, 4151
339.8275, 4060
339.83, 4167
339.8325, 4152
339.835, 4166
339.8375, 4173
339.84, 4167
339.8425, 4151
339.845, 4060
339.8475, 4154
339.85, 4146
339.8525, 4160
339.855, 4141
339.8575, 4141
339.86, 4152
339.8625, 4067
339.865, 4151
339.8675, 4165
339.87, 4167
339.8725, 4148
339.875, 4158
339.8775, 4148
339.88, 4068
339.8825, 4161
339.885, 4143
339.8875, 4132
339.89, 4123
339.8925, 4146
339.895, 4137
339.8975, 4110
339.9, 4183
339.9025, 4162
339.905, 4163
339.9075, 4152
339.91, 4158
339.9125, 4150
339.915, 4066
339.9175, 4170
339.92, 4177
339.9225, 4150
339.925, 4160
339.9275, 4157
339.93, 4143
339.9325, 4053
339.935, 4155
339.9375, 4151
339.94, 4138
339.9425, 4092
339.945, 4117
339.9475, 4083
339.95, 4000
339.9525, 4133
339.955, 4128
339.9575, 4143
339.96, 4140
339.9625, 4175
339.965, 4198
339.9675, 4098
339.97, 4189
339.9725, 4200
339.975, 4182
339.9775, 4172
339.98, 4173
339.9825, 4154
339.985, 4066
339.9875, 4168
339.99, 4146
339.9925, 4158
339.995, 4140
339.9975, 4161
340.0, 4163
340.0025, 4066
340.005, 4190
340.0075, 4192
340.01, 4189
340.0125, 4197
340.015, 4190
340.0175, 4200
340.02, 4123
340.0225, 4216
340.025, 4201
340.0275, 4185
340.03, 4148
340.0325, 4251
340.035, 4321
340.0375, 4294
340.04, 4436
340.0425, 4451
340.045, 4458
340.0475, 4450
340.05, 4402
340.0525, 4200
340.055, 3907
340.0575, 3711
340.06, 3402
340.0625, 3034
340.065, 2626
340.0675, 2110
340.07, 1816
340.0725, 1645
340.075, 1845
340.0775, 2284
340.08, 3078
340.0825, 3973
340.085, 4616
340.0875, 4907
340.09, 4860
340.0925, 4924
340.095, 4747
340.0975, 4628
340.1, 4541
340.1025, 4523
340.105, 4529
340.1075, 4393
340.11, 4479
340.1125, 4483
340.115, 4482
340.1175, 4473
340.12, 4505
340.1225, 4488
340.125, 4443
340.1275, 4495
340.13, 4487
340.1325, 4466
340.135, 4451
340.1375, 4461
340.14, 4455
340.1425, 4328
340.145, 4441
340.1475, 4437
340.15, 4414
340.1525, 4393
340.155, 4374
340.1575, 4377
340.16, 4292
340.1625, 4392
340.165, 4368
340.1675, 4326
340.17, 4311
340.1725, 4332
340.175, 4330
340.1775, 4202
340.18, 4302
340.1825, 4294
340.185, 4281
340.1875, 4273
340.19, 4292
340.1925, 4274
340.195, 4189
340.1975, 4290
340.2, 4277
340.2025, 4268
340.205, 4256
340.2075, 4243
340.21, 4236
340.2125, 4133
340.215, 4236
340.2175, 4241
340.22, 4231
340.2225, 4206
340.225, 4220
340.2275, 4229
340.23, 4137
340.2325, 4247
340.235, 4220
340.2375, 4228
340.24, 4196
340.2425, 4216
340.245, 4194
340.2475, 4173
340.25, 4217
340.2525, 4225
340.255, 4225
340.2575, 4230
340.26, 4246
340.2625, 4219
340.265, 4140
340.2675, 4237
340.27, 4240
340.2725, 4245
340.275, 4227
340.2775, 4212
340.28, 4218
340.2825, 4104
340.285, 4194
340.2875, 4217
340.29, 4211
340.2925, 4197
340.295, 4206
340.2975, 4176
340.3, 4089
340.3025, 4196
340.305, 4192
340.3075, 4204
340.31, 4186
340.3125, 4176
340.315, 4187
340.3175, 4119
340.32, 4233
340.3225, 4218
340.325, 4225
340.3275, 4219
340.33, 4237
340.3325, 4237
340.335, 4128
340.3375, 4226
340.34, 4225
340.3425, 4227
340.345, 4212
340.3475, 4221
340.35, 4207
340.3525, 4115
340.355, 4210
340.3575, 4200
340.36, 4178
340.3625, 4186
340.365, 4185
340.3675, 4167
340.37, 4131
340.3725, 4177
340.375, 4166
340.3775, 4163
340.38, 4154
340.3825, 4169
340.385, 4147
340.3875, 4061
340.39, 4153
340.3925, 4146
340.395, 4123
340.3975, 4126
340.4, 4161
340.4025, 4127
340.405, 4055
340.4075, 4175
340.41, 4151
340.4125, 4140
340.415, 4106
340.4175, 4135
340.42, 4129
340.4225, 4070
340.425, 4132
340.4275, 4135
340.43, 4127
340.4325, 4123
340.435, 4141
340.4375, 4129
340.44, 4040
340.4425, 4125
340.445, 4144
340.4475, 4126
340.45, 4117
340.4525, 4145
340.455, 4141
340.4575, 4046
340.46, 4165
340.4625, 4170
340.465, 4180
340.4675, 4168
340.47, 4158
340.4725, 4167
340.475, 4059
340.4775, 4162
340.48, 4165
340.4825, 4138
340.485, 4152
340.4875, 4165
340.49, 4143
340.4925, 4050
340.495, 4173
340.4975, 4182
340.5, 4167
340.5025, 4141
340.505, 4140
340.5075, 4139
340.51, 4034
340.5125, 4125
340.515, 4133
340.5175, 4128
340.52, 4132
340.5225, 4144
340.525, 4129
340.5275, 4049
340.53, 4158
340.5325, 4152
340.535, 4150
340.5375, 4145
340.54, 4149
340.5425, 4150
340.545, 4095
340.5475, 4136
340.55, 4155
340.5525, 4137
340.555, 4144
340.5575, 4171
340.56, 4163
340.5625, 4062
340.565, 4170
340.5675, 4180
340.57, 4156
340.5725, 4163
340.575, 4163
340.5775, 4169
340.58, 4073
340.5825, 4185
340.585, 4189
340.5875, 4167
340.59, 4165
340.5925, 4179
340.595, 4169
340.5975, 4117
340.6, 4163
340.6025, 4152
340.605, 4149
340.6075, 4157
340.61, 4157
340.6125, 4157
340.615, 4059
340.6175, 4176
340.62, 4177
340.6225, 4178
340.625, 4195
340.6275, 4192
340.63, 4170
340.6325, 4098
340.635, 4191
340.6375, 4170
340.64, 4189
340.6425, 4164
340.645, 4170
340.6475, 4173
340.65, 4126
340.6525, 4187
340.655, 4187
340.6575, 4190
340.66, 4172
340.6625, 4189
340.665, 4201
340.6675, 4071
340.67, 4186
340.6725, 4184
340.675, 4186
340.6775, 4178
340.68, 4164
340.6825, 4195
340.685, 4089
340.6875, 4170
340.69, 4169
340.6925, 4147
340.695, 4153
340.6975, 4176
340.7, 4171
340.7025, 4079
340.705, 4174
340.7075, 4170
340.71, 4164
340.7125, 4167
340.715, 4159
340.7175, 4170
340.72, 4069
340.7225, 4186
340.725, 4164
340.7275, 4173
340.73, 4148
340.7325, 4213
340.735, 4182
340.7375, 4074
340.74, 4183
340.7425, 4175
340.745, 4167
340.7475, 4163
340.75, 4167
340.7525, 4159
340.755, 4069
340.7575, 4168
340.76, 4172
340.7625, 4159
340.765, 4171
340.7675, 4166
340.77, 4171
340.7725, 4127
340.775, 4171
340.7775, 4151
340.78, 4151
340.7825, 4146
340.785, 4156
340.7875, 4148
340.79, 4057
340.7925, 4161
340.795, 4151
340.7975, 4156
340.8, 4153
340.8025, 4157
340.805, 4174
340.8075, 4069
340.81, 4173
340.8125, 4191
340.815, 4192
340.8175, 4190
340.82, 4197
340.8225, 4168
340.825, 4128
340.8275, 4176
340.83, 4168
340.8325, 4164
340.835, 4181
340.8375, 4188
340.84, 4176
340.8425, 4078
340.845, 4173
340.8475, 4176
340.85, 4170
340.8525, 4134
340.855, 4136
340.8575, 4140
340.86, 4059
340.8625, 4159
340.865, 4171
340.8675, 4141
340.87, 4123
340.8725, 4155
340.875, 4145
340.8775, 4116
340.88, 4120
340.8825, 4073
340.885, 4071
340.8875, 4034
340.89, 4054
340.8925, 4086
340.895, 4003
340.8975, 4127
340.9, 4129
340.9025, 4135
340.905, 4142
340.9075, 4154
340.91, 4157
340.9125, 4063
340.915, 4171
340.9175, 4199
340.92, 4218
340.9225, 4225
340.925, 4216
340.9275, 4199
340.93, 4117
340.9325, 4219
340.935, 4200
340.9375, 4194
340.94, 4197
340.9425, 4191
340.945, 4206
340.9475, 4093
340.95, 4208
340.9525, 4201
340.955, 4225
340.9575, 4191
340.96, 4215
340.9625, 4208
340.965, 4111
340.9675, 4214
340.97, 4221
340.9725, 4190
340.975, 4189
340.9775, 4228
340.98, 4210
340.9825, 4097
340.985, 4223
340.9875, 4230
340.99, 4257
340.9925, 4334
340.995, 4415
340.9975, 4451
341.0, 4425
341.0025, 4519
341.005, 4510
341.0075, 4396
341.01, 4191
341.0125, 3969
341.015, 3666
341.0175, 3275
341.02, 3022
341.0225, 2564
341.025, 2036
341.0275, 1748
341.03, 1614
341.0325, 1760
341.035, 2157
341.0375, 3110
341.04, 4133
341.0425, 4785
341.045, 5027
341.0475, 5085
341.05, 4962
341.0525, 4712
341.055, 4672
341.0575, 4603
341.06, 4582
341.0625, 4539
341.065, 4529
341.0675, 4498
341.07, 4410
341.0725, 4516
341.075, 4506
341.0775, 4527
341.08, 4512
341.0825, 4488
341.085, 4470
341.0875, 4366
341.09, 4465
341.0925, 4480
341.095, 4463
341.0975, 4435
341.1, 4460
341.1025, 4441
341.105, 4324
341.1075, 4392
341.11, 4346
341.1125, 4339
341.115, 4314
341.1175, 4347
341.12, 4337
341.1225, 4298
341.125, 4353
341.1275, 4305
341.13, 4300
341.1325, 4288
341.135, 4290
341.1375, 4287
341.14, 4177
341.1425, 4269
341.145, 4269
341.1475, 4266
341.15, 4280
341.1525, 4305
341.155, 4282
341.1575, 4174
341.16, 4263
341.1625, 4252
341.165, 4231
341.1675, 4196
341.17, 4202
341.1725, 4215
341.175, 4097
341.1775, 4202
341.18, 4196
341.1825, 4190
341.185, 4201
341.1875, 4188
341.19, 4195
341.1925, 4118
341.195, 4217
341.1975, 4201
341.2, 4190
341.2025, 4192
341.205, 4215
341.2075, 4181
341.21, 4092
341.2125, 4190
341.215, 4188
341.2175, 4193
341.22, 4192
341.2225, 4197
341.225, 4206
341.2275, 4093
341.23, 4207
341.2325, 4215
341.235, 4196
341.2375, 4206
341.24, 4217
341.2425, 4216
341.245, 4183
341.2475, 4218
341.25, 4209
341.2525, 4219
341.255, 4209
341.2575, 4216
341.26, 4221
341.2625, 4125
341.265, 4216
341.2675, 4217
