440.165, 4201
440.1675, 4331
440.17, 4382
440.1725, 4400
440.175, 4467
440.1775, 4493
440.18, 4446
440.1825, 4241
440.185, 4061
440.1875, 3827
440.19, 3478
440.1925, 3195
440.195, 2774
440.1975, 2233
440.2, 1740
440.2025, 1548
440.205, 1609
440.2075, 1823
440.21, 2503
440.2125, 3467
440.215, 4384
440.2175, 4847
440.22, 5082
440.2225, 5014
440.225, 4853
440.2275, 4707
440.23, 4608
440.2325, 4584
440.235, 4517
440.2375, 4501
440.24, 4481
440.2425, 4467
440.245, 4484
440.2475, 4525
440.25, 4531
440.2525, 4511
440.255, 4514
440.2575, 4494
440.26, 4460
440.2625, 4475
440.265, 4459
440.2675, 4453
440.27, 4434
440.2725, 4446
440.275, 4427
440.2775, 4397
440.28, 4406
440.2825, 4392
440.285, 4393
440.2875, 4347
440.29, 4393
440.2925, 4390
440.295, 4346
440.2975, 4365
440.3, 4335
440.3025, 4329
440.305, 4274
440.3075, 4342
440.31, 4328
440.3125, 4298
440.315, 4299
440.3175, 4318
440.32, 4310
440.3225, 4232
440.325, 4266
440.3275, 4257
440.33, 4233
440.3325, 4245
440.335, 4256
440.3375, 4226
440.34, 4188
440.3425, 4238
440.345, 4224
440.3475, 4194
440.35, 4210
440.3525, 4224
440.355, 4208
440.3575, 4179
440.36, 4187
440.3625, 4188
440.365, 4186
440.3675, 4197
440.37, 4186
440.3725, 4184
440.375, 4028
440.3775, 4189
440.38, 4199
440.3825, 4168
440.385, 4180
440.3875, 4197
440.39, 4187
440.3925, 4167
440.395, 4199
440.3975, 4185
440.4, 4165
440.4025, 4191
440.405, 4192
440.4075, 4178
440.41, 4164
440.4125, 4187
440.415, 4207
440.4175, 4171
440.42, 4191
440.4225, 4195
440.425, 4208
440.4275, 4154
440.43, 4193
440.4325, 4183
440.435, 4202
440.4375, 4205
440.44, 4204
440.4425, 4204
440.445, 4164
440.4475, 4227
440.45, 4214
440.4525, 4183
440.455, 4203
440.4575, 4197
440.46, 4184
440.4625, 4136
440.465, 4171
440.4675, 4160
440.47, 4138
440.4725, 4139
440.475, 4160
440.4775, 4141
440.48, 4086
440.4825, 4111
440.485, 4107
440.4875, 4118
440.49, 4121
440.4925, 4112
440.495, 4094
440.4975, 4060
440.5, 4110
440.5025, 4113
440.505, 4103
440.5075, 4126
440.51, 4114
440.5125, 4124
440.515, 4106
440.5175, 4160
440.52, 4170
440.5225, 4149
440.525, 4165
440.5275, 4185
440.53, 4189
440.5325, 4163
440.535, 4225
440.5375, 4216
440.54, 4200
440.5425, 4236
440.545, 4245
440.5475, 4219
440.55, 4192
440.5525, 4250
440.555, 4264
440.5575, 4237
440.56, 4246
440.5625, 4235
440.565, 4225
440.5675, 4210
440.57, 4230
440.5725, 4240
440.575, 4226
440.5775, 4243
440.58, 4233
440.5825, 4209
440.585, 4093
440.5875, 4249
440.59, 4254
440.5925, 4217
440.595, 4219
440.5975, 4230
440.6, 4230
440.6025, 4183
440.605, 4207
440.6075, 4195
440.61, 4200
440.6125, 4180
440.615, 4213
440.6175, 4204
440.62, 4157
440.6225, 4192
440.625, 4195
440.6275, 4181
440.63, 4194
440.6325, 4192
440.635, 4195
440.6375, 4135
440.64, 4176
440.6425, 4170
440.645, 4156
440.6475, 4162
440.65, 4164
440.6525, 4167
440.655, 4012
440.6575, 4177
440.66, 4186
440.6625, 4145
440.665, 4157
440.6675, 4167
440.67, 4177
440.6725, 4132
440.675, 4168
440.6775, 4170
440.68, 4177
440.6825, 4188
440.685, 4184
440.6875, 4183
440.69, 4158
440.6925, 4190
440.695, 4191
440.6975, 4160
440.7, 4161
440.7025, 4184
440.705, 4167
440.7075, 4117
440.71, 4184
440.7125, 4176
440.715, 4150
440.7175, 4171
440.72, 4179
440.7225, 4180
440.725, 4158
440.7275, 4221
440.73, 4200
440.7325, 4149
440.735, 4154
440.7375, 4152
440.74, 4149
440.7425, 4104
440.745, 4167
440.7475, 4151
440.75, 4142
440.7525, 4180
440.755, 4183
440.7575, 4166
440.76, 4152
440.7625, 4148
440.765, 4172
440.7675, 4150
440.77, 4171
440.7725, 4184
440.775, 4174
440.7775, 4149
440.78, 4190
440.7825, 4187
440.785, 4197
440.7875, 4169
440.79, 4161
440.7925, 4183
440.795, 4129
440.7975, 4174
440.8, 4182
440.8025, 4182
440.805, 4187
440.8075, 4172
440.81, 4169
440.8125, 4116
440.815, 4164
440.8175, 4174
440.82, 4153
440.8225, 4163
440.825, 4177
440.8275, 4170
440.83, 4160
440.8325, 4192
440.835, 4180
440.8375, 4145
440.84, 4174
440.8425, 4183
440.845, 4176
440.8475, 4155
440.85, 4169
440.8525, 4149
440.855, 4145
440.8575, 4154
440.86, 4160
440.8625, 4136
440.865, 3986
440.8675, 4174
440.87, 4144
440.8725, 4127
440.875, 4137
440.8775, 4134
440.88, 4167
440.8825, 4103
440.885, 4149
440.8875, 4168
440.89, 4139
440.8925, 4155
440.895, 4145
440.8975, 4129
440.9, 4107
440.9025, 4178
440.905, 4145
440.9075, 4133
440.91, 4146
440.9125, 4156
440.915, 4152
440.9175, 4117
440.92, 4147
440.9225, 4158
440.925, 4135
440.9275, 4154
440.93, 4161
440.9325, 4148
440.935, 3997
440.9375, 4168
440.94, 4173
440.9425, 4154
440.945, 4154
440.9475, 4145
440.95, 4133
440.9525, 4101
440.955, 4147
440.9575, 4151
440.96, 4137
440.9625, 4143
440.965, 4155
440.9675, 4149
440.97, 4111
440.9725, 4170
440.975, 4141
440.9775, 4123
440.98, 4136
440.9825, 4140
440.985, 4142
440.9875, 4093
440.99, 4138
440.9925, 4137
440.995, 4119
440.9975, 4148
441.0, 4150
441.0025, 4140
441.005, 4102
441.0075, 4133
441.01, 4130
441.0125, 4132
441.015, 4150
441.0175, 4136
441.02, 4144
441.0225, 4077
441.025, 4144
441.0275, 4146
441.03, 4118
441.0325, 4115
441.035, 4137
441.0375, 4141
441.04, 4099
441.0425, 4139
441.045, 4138
441.0475, 4135
441.05, 4173
441.0525, 4184
441.055, 4170
441.0575, 4117
441.06, 4176
441.0625, 4140
441.065, 4153
441.0675, 4186
441.07, 4165
441.0725, 4164
441.075, 4155
441.0775, 4190
441.08, 4184
441.0825, 4161
441.085, 4177
441.0875, 4152
441.09, 4147
441.0925, 4095
441.095, 4164
441.0975, 4161
441.1, 4154
441.1025, 4165
441.105, 4181
441.1075, 4171
441.11, 4156
441.1125, 4180
441.115, 4159
441.1175, 4138
441.12, 4163
441.1225, 4175
441.125, 4161
441.1275, 4113
441.13, 4163
441.1325, 4140
441.135, 4141
441.1375, 4161
441.14, 4164
441.1425, 4150
441.145, 4108
441.1475, 4151
441.15, 4128
441.1525, 4131
441.155, 4122
441.1575, 4120
441.16, 4096
441.1625, 4046
441.165, 4093
441.1675, 4116
441.17, 4138
441.1725, 4150
441.175, 4146
441.1775, 4153
441.18, 4111
441.1825, 4162
441.185, 4195
441.1875, 4181
441.19, 4193
441.1925, 4202
441.195, 4200
441.1975, 4179
441.2, 4207
441.2025, 4180
441.205, 4182
441.2075, 4182
441.21, 4195
441.2125, 4186
441.215, 4146
441.2175, 4183
441.22, 4192
441.2225, 4145
441.225, 4164
441.2275, 4198
441.23, 4170
441.2325, 4033
441.235, 4205
441.2375, 4206
441.24, 4157
441.2425, 4169
441.245, 4195
441.2475, 4197
441.25, 4239
441.2525, 4338
441.255, 4382
441.2575, 4418
441.26, 4455
441.2625, 4472
441.265, 4426
441.2675, 4232
441.27, 4063
441.2725, 3805
441.275, 3462
441.2775, 3207
441.28, 2817
441.2825, 2291
441.285, 1844
441.2875, 1665
441.29, 1725
441.2925, 1971
441.295, 2632
441.2975, 3563
441.3, 4385
441.3025, 4686
441.305, 5039
441.3075, 5008
441.31, 4847
441.3125, 4715
441.315, 4617
441.3175, 4568
441.32, 4511
441.3225, 4506
441.325, 4502
441.3275, 4475
441.33, 4509
441.3325, 4527
441.335, 4513
441.3375, 4446
441.34, 4516
441.3425, 4499
441.345, 4470
441.3475, 4465
441.35, 4475
441.3525, 4453
441.355, 4388
441.3575, 4441
441.36, 4414
441.3625, 4415
441.365, 4427
441.3675, 4403
441.37, 4394
441.3725, 4370
441.375, 4372
441.3775, 4366
441.38, 4339
441.3825, 4348
441.385, 4348
441.3875, 4346
441.39, 4310
441.3925, 4327
441.395, 4304
441.3975, 4292
441.4, 4294
441.4025, 4270
441.405, 4268
441.4075, 4289
441.41, 4279
441.4125, 4272
441.415, 4229
441.4175, 4228
441.42, 4279
441.4225, 4265
441.425, 4208
441.4275, 4249
441.43, 4248
441.4325, 4250
441.435, 4252
441.4375, 4246
441.44, 4239
441.4425, 4199
441.445, 4256
441.4475, 4225
441.45, 4199
441.4525, 4214
441.455, 4225
441.4575, 4200
441.46, 4129
441.4625, 4217
441.465, 4187
441.4675, 4171
441.47, 4198
441.4725, 4187
441.475, 4203
441.4775, 4177
441.48, 4203
441.4825, 4201
441.485, 4176
441.4875, 4158
441.49, 4185
441.4925, 4170
441.495, 4136
441.4975, 4193
441.5, 4186
441.5025, 4157
441.505, 4197
441.5075, 4174
441.51, 4154
441.5125, 4125
441.515, 4175
441.5175, 4164
441.52, 4160
441.5225, 4180
441.525, 4175
441.5275, 4165
441.53, 4119
441.5325, 4160
441.535, 4160
441.5375, 4122
441.54, 4133
441.5425, 4134
441.545, 4126
441.5475, 4132
441.55, 4164
441.5525, 4162
441.555, 4122
441.5575, 4121
441.56, 4113
441.5625, 4114
441.565, 4088
441.5675, 4143
441.57, 4139
441.5725, 4145
441.575, 4149
441.5775, 4149
441.58, 4144
441.5825, 4074
441.585, 4108
441.5875, 4115
441.59, 4093
441.5925, 4113
441.595, 4119
441.5975, 4155
441.6, 4131
441.6025, 4169
441.605, 4189
441.6075, 4173
441.61, 4178
441.6125, 4176
441.615, 4188
441.6175, 4184
441.62, 4198
441.6225, 4193
441.625, 4180
441.6275, 4213
441.63, 4232
441.6325, 4241
441.635, 4207
441.6375, 4241
441.64, 4245
441.6425, 4228
441.645, 4238
441.6475, 4252
441.65, 4240
441.6525, 4201
441.655, 4250
441.6575, 4241
441.66, 4210
441.6625, 4234
441.665, 4231
441.6675, 4234
441.67, 4191
441.6725, 4232
441.675, 4222
441.6775, 4219
441.68, 4231
441.6825, 4225
441.685, 4205
441.6875, 4192
441.69, 4221
441.6925, 4216
441.695, 4203
441.6975, 4215
441.7, 4246
441.7025, 4247
441.705, 4153
441.7075, 4181
441.71, 4150
441.7125, 4119
441.715, 4172
441.7175, 4182
441.72, 4175
441.7225, 4163
441.725, 4184
441.7275, 4175
441.73, 4141
441.7325, 4147
441.735, 4152
441.7375, 4149
441.74, 3989
441.7425, 4174
441.745, 4188
441.7475, 4170
441.75, 4190
441.7525, 4206
441.755, 4192
441.7575, 4144
441.76, 4169
441.7625, 4171
441.765, 4178
441.7675, 4193
441.77, 4192
441.7725, 4177
441.775, 4161
441.7775, 4189
441.78, 4183
441.7825, 4166
441.785, 4166
441.7875, 4190
441.79, 4171
441.7925, 4139
441.795, 4189
441.7975, 4187
441.8, 4140
441.8025, 4161
441.805, 4179
441.8075, 4160
441.81, 4007
441.8125, 4192
441.815, 4220
441.8175, 4181
441.82, 4181
441.8225, 4202
441.825, 4175
441.8275, 4145
441.83, 4207
441.8325, 4188
441.835, 4178
441.8375, 4201
441.84, 4189
441.8425, 4197
441.845, 4139
441.8475, 4185
441.85, 4188
441.8525, 4161
441.855, 4175
441.8575, 4187
441.86, 4159
441.8625, 4015
441.865, 4176
441.8675, 4172
441.87, 4163
441.8725, 4162
441.875, 4180
441.8775, 4185
441.88, 4134
441.8825, 4188
441.885, 4180
441.8875, 4170
441.89, 4200
441.8925, 4176
441.895, 4176
441.8975, 4144
441.9, 4168
441.9025, 4165
441.905, 4141
441.9075, 4175
441.91, 4173
441.9125, 4156
441.915, 4127
441.9175, 4183
441.92, 4198
441.9225, 4175
441.925, 4181
441.9275, 4214
441.93, 4185
441.9325, 4149
441.935, 4206
441.9375, 4197
441.94, 4173
441.9425, 4178
441.945, 4165
441.9475, 4154
441.95, 4129
441.9525, 4174
441.955, 4153
441.9575, 4161
441.96, 4184
441.9625, 4169
441.965, 4154
441.9675, 4016
441.97, 4173
441.9725, 4174
441.975, 4168
441.9775, 4161
441.98, 4178
441.9825, 4192
441.985, 4154
441.9875, 4190
441.99, 4191
441.9925, 4179
441.995, 4203
441.9975, 4191
442.0, 4201
442.0025, 4159
442.005, 4201
442.0075, 4208
442.01, 4179
442.0125, 4190
442.015, 4195
442.0175, 4187
442.02, 4137
442.0225, 4182
442.025, 4189
442.0275, 4178
442.03, 4202
442.0325, 4218
442.035, 4179
442.0375, 4151
442.04, 4180
442.0425, 4183
442.045, 4143
442.0475, 4166
442.05, 4179
442.0525, 4187
442.055, 4146
442.0575, 4147
442.06, 4133
442.0625, 4141
442.065, 4134
442.0675, 4161
442.07, 4141
442.0725, 3999
442.075, 4177
442.0775, 4168
442.08, 4154
442.0825, 4170
442.085, 4174
442.0875, 4179
442.09, 4006
442.0925, 4166
442.095, 4158
442.0975, 4138
442.1, 4125
442.1025, 4139
442.105, 4116
442.1075, 4089
442.11, 4157
442.1125, 4138
442.115, 4139
442.1175, 4165
442.12, 4133
442.1225, 4156
442.125, 4136
442.1275, 4155
442.13, 4165
442.1325, 4158
442.135, 4161
442.1375, 4174
442.14, 4162
442.1425, 4130
442.145, 4195
442.1475, 4181
442.15, 4176
442.1525, 4184
442.155, 4165
442.1575, 4160
442.16, 4026
442.1625, 4183
442.165, 4153
442.1675, 4112
442.17, 4153
442.1725, 4158
442.175, 4164
442.1775, 4092
442.18, 4142
442.1825, 4140
442.185, 4124
442.1875, 4149
442.19, 4146
442.1925, 4157
442.195, 4140
442.1975, 4165
442.2, 4166
442.2025, 4165
442.205, 4186
442.2075, 4187
442.21, 4195
442.2125, 4136
442.215, 4205
442.2175, 4223
442.22, 4194
442.2225, 4212
442.225, 4224
442.2275, 4185
442.23, 4042
442.2325, 4201
442.235, 4188
442.2375, 4187
442.24, 4198
442.2425, 4187
442.245, 4187
442.2475, 4152
442.25, 4193
442.2525, 4185
442.255, 4180
442.2575, 4181
442.26, 4187
442.2625, 4197
442.265, 4165
442.2675, 4236
442.27, 4272
442.2725, 4340
442.275, 4399
442.2775, 4437
442.28, 4468
442.2825, 4443
442.285, 4435
442.2875, 4307
442.29, 4094
442.2925, 3850
442.295, 3533
442.2975, 3230
442.3, 2802
442.3025, 2318
442.305, 1858
442.3075, 1607
442.31, 1605
442.3125, 1832
442.315, 2425
442.3175, 3321
442.32, 4337
442.3225, 4865
442.325, 5043
442.3275, 5044
442.33, 4904
442.3325, 4723
442.335, 4556
442.3375, 4567
442.34, 4541
442.3425, 4499
442.345, 4474
442.3475, 4504
442.35, 4490
442.3525, 4476
442.355, 4499
442.3575, 4491
442.36, 4492
442.3625, 4501
442.365, 4498
442.3675, 4479
442.37, 4428
442.3725, 4464
442.375, 4441
442.3775, 4420
442.38, 4419
442.3825, 4421
442.385, 4412
442.3875, 4249
442.39, 4380
442.3925, 4375
442.395, 4367
442.3975, 4365
442.4, 4344
442.4025, 4349
442.405, 4330
442.4075, 4350
442.41, 4323
442.4125, 4299
442.415, 4315
442.4175, 4315
442.42, 4312
442.4225, 4243
442.425, 4302
442.4275, 4273
442.43, 4254
442.4325, 4263
442.435, 4291
442.4375, 4298
442.44, 4213
442.4425, 4250
442.445, 4238
442.4475, 4232
442.45, 4248
442.4525, 4248
442.455, 4231
442.4575, 4187
442.46, 4243
442.4625, 4236
442.465, 4211
442.4675, 4212
442.47, 4222
442.4725, 4197
442.475, 4158
442.4775, 4198
442.48, 4197
442.4825, 4182
442.485, 4215
442.4875, 4206
442.49, 4228
442.4925, 4167
442.495, 4210
442.4975, 4212
442.5, 4174
442.5025, 4205
442.505, 4193
442.5075, 4186
442.51, 4160
442.5125, 4209
442.515, 4223
442.5175, 4205
442.52, 4213
442.5225, 4220
442.525, 4215
442.5275, 4054
442.53, 4222
442.5325, 4205
442.535, 4206
442.5375, 4205
442.54, 4200
442.5425, 4192
442.545, 4165
442.5475, 4213
442.55, 4189
442.5525, 4185
442.555, 4183
442.5575, 4158
442.56, 4196
442.5625, 4147
442.565, 4199
442.5675, 4183
442.57, 4154
442.5725, 4162
442.575, 4206
442.5775, 4198
442.58, 4149
442.5825, 4178
442.585, 4152
442.5875, 4128
442.59, 4126
442.5925, 4109
442.595, 4108
442.5975, 4076
442.6, 4107
442.6025, 4114
442.605, 4101
442.6075, 4108
442.61, 4143
442.6125, 4129
442.615, 4089
442.6175, 4129
442.62, 4144
442.6225, 4121
442.625, 4139
442.6275, 4154
442.63, 4162
442.6325, 4174
442.635, 4190
442.6375, 4178
442.64, 4170
442.6425, 4205
442.645, 4256
442.6475, 4253
442.65, 4243
442.6525, 4253
442.655, 4228
442.6575, 4236
442.66, 4239
442.6625, 4199
442.665, 4213
442.6675, 4186
442.67, 4242
442.6725, 4234
442.675, 4220
442.6775, 4232
442.68, 4226
442.6825, 4207
442.685, 4155
442.6875, 4206
442.69, 4206
442.6925, 4208
442.695, 4202
442.6975, 4207
442.7, 4188
442.7025, 4194
442.705, 4202
442.7075, 4205
442.71, 4195
442.7125, 4191
442.715, 4188
442.7175, 4190
442.72, 4152
442.7225, 4200
442.725, 4204
442.7275, 4173
442.73, 4192
442.7325, 4179
442.735, 4176
442.7375, 4127
442.74, 4196
442.7425, 4184
442.745, 4151
442.7475, 4172
442.75, 4179
442.7525, 4168
442.755, 4122
442.7575, 4184
442.76, 4172
442.7625, 4141
442.765, 4180
442.7675, 4171
442.77, 4172
442.7725, 4132
442.775, 4189
442.7775, 4182
442.78, 4172
442.7825, 4191
442.785, 4190
442.7875, 4169
442.79, 4143
442.7925, 4216
442.795, 4180
442.7975, 4177
442.8, 4190
442.8025, 4199
442.805, 4197
442.8075, 4038
442.81, 4191
442.8125, 4173
442.815, 4148
442.8175, 4174
442.82, 4186
442.8225, 4174
442.825, 4137
442.8275, 4185
442.83, 4179
442.8325, 4161
442.835, 4160
442.8375, 4188
442.84, 4168
442.8425, 4132
442.845, 4178
442.8475, 4162
442.85, 4162
442.8525, 4176
442.855, 4176
442.8575, 4167
442.86, 4118
442.8625, 4185
442.865, 4155
442.8675, 4154
442.87, 4185
442.8725, 4191
442.875, 4174
442.8775, 4129
442.88, 4155
442.8825, 4149
442.885, 4139
442.8875, 4162
442.89, 4165
442.8925, 4167
442.895, 4123
442.8975, 4158
442.9, 4172
442.9025, 4157
442.905, 4158
442.9075, 4154
442.91, 4158
442.9125, 4138
442.915, 4151
442.9175, 4147
442.92, 4142
442.9225, 4104
442.925, 4193
442.9275, 4184
442.93, 4140
442.9325, 4158
442.935, 4164
442.9375, 4141
442.94, 4145
442.9425, 4158
442.945, 4156
442.9475, 4097
442.95, 4146
442.9525, 4145
442.955, 4125
442.9575, 4142
442.96, 4159
442.9625, 4166
442.965, 4123
442.9675, 4179
442.97, 4183
442.9725, 4168
442.975, 4173
442.9775, 4189
442.98, 4173
442.9825, 4126
442.985, 4164
442.9875, 4170
442.99, 4154
442.9925, 4154
442.995, 4161
442.9975, 4159
443.0, 4144
443.0025, 4162
443.005, 4161
443.0075, 4142
443.01, 4161
443.0125, 4167
443.015, 4153
443.0175, 4119
443.02, 4157
443.0225, 4154
443.025, 4139
443.0275, 4159
443.03, 4173
443.0325, 4163
443.035, 4121
443.0375, 4170
443.04, 4159
443.0425, 4117
443.045, 4160
443.0475, 4159
443.05, 4140
443.0525, 4129
443.055, 4150
443.0575, 4153
443.06, 4129
443.0625, 4148
443.065, 4150
443.0675, 4136
443.07, 4118
443.0725, 4155
443.075, 4148
443.0775, 4134
443.08, 4151
443.0825, 4152
443.085, 4169
443.0875, 4119
443.09, 4171
443.0925, 4166
443.095, 4147
443.0975, 4160
443.1, 4148
443.1025, 4134
443.105, 3985
443.1075, 4168
443.11, 4156
443.1125, 4140
443.115, 4155
443.1175, 4152
443.12, 4143
443.1225, 4121
443.125, 4160
443.1275, 4180
443.13, 4158
443.1325, 4138
443.135, 4160
443.1375, 4140
443.14, 4100
443.1425, 4154
443.145, 4154
443.1475, 4135
443.15, 4146
443.1525, 4160
443.155, 4151
443.1575, 4117
443.16, 4164
443.1625, 4146
443.165, 4149
443.1675, 4140
443.17, 4153
443.1725, 4153
443.175, 4118
443.1775, 4137
443.18, 4150
443.1825, 4152
443.185, 4139
443.1875, 4134
443.19, 4135
443.1925, 4083
443.195, 4161
443.1975, 4180
443.2, 4145
443.2025, 4158
443.205, 4167
443.2075, 4169
443.21, 4112
443.2125, 4158
443.215, 4146
443.2175, 4146
443.22, 4179
443.2225, 4159
443.225, 4175
443.2275, 4119
443.23, 4161
443.2325, 4155
443.235, 4154
443.2375, 4158
443.24, 4165
443.2425, 4183
443.245, 4142
443.2475, 4185
443.25, 4155
443.2525, 4154
443.255, 4149
443.2575, 4150
443.26, 4171
443.2625, 4128
443.265, 4175
443.2675, 4171
443.27, 4166
443.2725, 4195
443.275, 4164
443.2775, 4161
443.28, 4169
443.2825, 4167
443.285, 4160
443.2875, 4154
443.29, 4152
443.2925, 4158
443.295, 4151
443.2975, 4125
443.3, 4171
443.3025, 4172
443.305, 4169
443.3075, 4163
443.31, 4154
443.3125, 4128
443.315, 4068
443.3175, 4115
443.32, 4092
443.3225, 4100
443.325, 4134
443.3275, 4155
443.33, 4157
443.3325, 4117
443.335, 4162
443.3375, 4159
443.34, 4149
443.3425, 4175
443.345, 4192
443.3475, 4177
443.35, 4141
443.3525, 4177
443.355, 4184
443.3575, 4165
443.36, 4179
443.3625, 4187
443.365, 4176
443.3675, 4119
443.37, 4154
443.3725, 4137
443.375, 4107
443.3775, 4143
443.38, 4152
443.3825, 4148
443.385, 4000
443.3875, 4174
443.39, 4172
443.3925, 4154
443.395, 4163
443.3975, 4184
443.4, 4171
443.4025, 4155
443.405, 4182
443.4075, 4197
443.41, 4237
443.4125, 4326
443.415, 4406
443.4175, 4414
443.42, 4436
443.4225, 4471
443.425, 4423
443.4275, 4295
443.43, 4114
443.4325, 3908
443.435, 3585
443.4375, 3240
443.44, 2889
443.4425, 2429
443.445, 1923
443.4475, 1682
443.45, 1682
443.4525, 1854
443.455, 2291
443.4575, 3365
443.46, 4248
443.4625, 4776
443.465, 5042
443.4675, 5027
443.47, 4928
443.4725, 4722
443.475, 4633
443.4775, 4563
443.48, 4549
443.4825, 4512
443.485, 4508
443.4875, 4481
443.49, 4451
443.4925, 4519
443.495, 4524
443.4975, 4495
443.5, 4502
443.5025, 4503
443.505, 4504
443.5075, 4436
443.51, 4470
443.5125, 4455
443.515, 4441
443.5175, 4453
443.52, 4437
443.5225, 4424
443.525, 4407
443.5275, 4432
443.53, 4414
443.5325, 4399
443.535, 4395
443.5375, 4361
443.54, 4347
443.5425, 4191
443.545, 4357
443.5475, 4346
443.55, 4314
443.5525, 4296
443.555, 4304
443.5575, 4298
443.56, 4242
443.5625, 4301
443.565, 4291
443.5675, 4291
443.57, 4292
443.5725, 4283
443.575, 4289
443.5775, 4230
443.58, 4270
443.5825, 4282
443.585, 4283
443.5875, 4282
443.59, 4273
443.5925, 4254
443.595, 4214
443.5975, 4259
443.6, 4272
443.6025, 4262
443.605, 4253
443.6075, 4249
443.61, 4252
443.6125, 4089
443.615, 4258
443.6175, 4246
443.62, 4216
443.6225, 4207
443.625, 4236
443.6275, 4226
443.63, 4222
443.6325, 4223
443.635, 4210
443.6375, 4183
443.64, 4209
443.6425, 4220
443.645, 4211
443.6475, 4180
443.65, 4213
443.6525, 4214
443.655, 4193
443.6575, 4197
443.66, 4194
443.6625, 4181
443.665, 4151
443.6675, 4187
443.67, 4189
443.6725, 4181
443.675, 4180
443.6775, 4180
443.68, 4197
443.6825, 4015
443.685, 4187
443.6875, 4172
443.69, 4156
443.6925, 4143
443.695, 4176
443.6975, 4162
443.7, 4140
443.7025, 4176
443.705, 4171
443.7075, 4152
443.71, 4159
443.7125, 4169
443.715, 4157
443.7175, 4105
443.72, 4161
443.7225, 4159
443.725, 4152
443.7275, 4146
443.73, 4148
443.7325, 4144
443.735, 4086
443.7375, 4140
443.74, 4132
443.7425, 4123
443.745, 4123
443.7475, 4122
443.75, 4143
443.7525, 4108
443.755, 4173
443.7575, 4182
443.76, 4159
443.7625, 4170
443.765, 4186
443.7675, 4188
443.77, 4183
443.7725, 4221
443.775, 4250
443.7775, 4225
443.78, 4216
443.7825, 4225
443.785, 4231
443.7875, 4177
443.79, 4243
443.7925, 4246
443.795, 4224
443.7975, 4239
443.8, 4268
443.8025, 4280
443.805, 4247
443.8075, 4244
443.81, 4238
443.8125, 4227
443.815, 4245
443.8175, 4227
443.82, 4245
443.8225, 4067
443.825, 4254
443.8275, 4247
443.83, 4234
443.8325, 4248
443.835, 4256
443.8375, 4236
443.84, 4197
443.8425, 4246
443.845, 4235
443.8475, 4211
443.85, 4234
443.8525, 4230
443.855, 4224
443.8575, 4171
443.86, 4230
443.8625, 4220
443.865, 4230
443.8675, 4218
443.87, 4230
443.8725, 4215
443.875, 4177
443.8775, 4230
443.88, 4237
443.8825, 4198
443.885, 4216
443.8875, 4206
443.89, 4201
443.8925, 4035
443.895, 4201
443.8975, 4220
443.9, 4200
443.9025, 4192
443.905, 4218
443.9075, 4188
443.91, 4140
443.9125, 4184
443.915, 4169
443.9175, 4181
443.92, 4180
443.9225, 4184
443.925, 4182
443.9275, 4178
443.93, 4192
443.9325, 4171
443.935, 4180
443.9375, 4192
443.94, 4187
443.9425, 4183
443.945, 4154
443.9475, 4196
443.95, 4182
443.9525, 4160
443.955, 4183
443.9575, 4158
443.96, 4162
443.9625, 4014
443.965, 4175
443.9675, 4166
443.97, 4153
443.9725, 4157
443.975, 4162
443.9775, 4171
443.98, 4144
443.9825, 4159
443.985, 4173
443.9875, 4146
443.99, 4186
443.9925, 4172
443.995, 4168
443.9975, 4150
444.0, 4153
444.0025, 4164
444.005, 4187
444.0075, 4171
444.01, 4173
444.0125, 4178
444.015, 4137
444.0175, 4202
444.02, 4190
444.0225, 4168
444.025, 4165
444.0275, 4181
444.03, 4182
444.0325, 4143
444.035, 4175
444.0375, 4167
444.04, 4158
444.0425, 4156
444.045, 4147
444.0475, 4165
444.05, 4115
444.0525, 4151
444.055, 4133
444.0575, 4126
444.06, 4147
444.0625, 4156
444.065, 4141
444.0675, 4150
444.07, 4172
444.0725, 4194
444.075, 4159
444.0775, 4175
444.08, 4195
444.0825, 4185
444.085, 4144
444.0875, 4164
444.09, 4157
444.0925, 4145
444.095, 4168
444.0975, 4162
444.1, 4161
444.1025, 4129
444.105, 4182
444.1075, 4164
444.11, 4138
444.1125, 4149
444.115, 4160
444.1175, 4184
444.12, 4007
444.1225, 4184
444.125, 4181
444.1275, 4168
444.13, 4191
444.1325, 4183
444.135, 4181
444.1375, 4157
444.14, 4163
444.1425, 4169
444.145, 4162
444.1475, 4160
444.15, 4201
444.1525, 4205
444.155, 4185
444.1575, 4192
444.16, 4176
444.1625, 4158
444.165, 4167
444.1675, 4173
444.17, 4174
444.1725, 4171
444.175, 4186
444.1775, 4166
444.18, 4156
444.1825, 4156
444.185, 4194
444.1875, 4183
444.19, 4121
444.1925, 4190
444.195, 4176
444.1975, 4160
444.2, 4163
444.2025, 4174
444.205, 4184
444.2075, 4142
444.21, 4174
444.2125, 4185
444.215, 4192
444.2175, 4192
444.22, 4170
444.2225, 4171
444.225, 4122
444.2275, 4195
444.23, 4181
444.2325, 4193
444.235, 4176
444.2375, 4191
444.24, 4176
444.2425, 4120
444.245, 4172
444.2475, 4166
444.25, 4166
444.2525, 4170
444.255, 4214
444.2575, 4203
444.26, 4031
444.2625, 4205
444.265, 4204
444.2675, 4199
444.27, 4187
444.2725, 4204
444.275, 4204
444.2775, 4187
444.28, 4180
444.2825, 4162
444.285, 4164
444.2875, 4181
444.29, 4160
444.2925, 4164
444.295, 4108
444.2975, 4164
444.3, 4164
444.3025, 4175
444.305, 4160
444.3075, 4166
444.31, 4163
444.3125, 4133
444.315, 4173
444.3175, 4163
444.32, 4138
444.3225, 4155
444.325, 4172
444.3275, 4162
444.33, 4113
444.3325, 4183
444.335, 4185
444.3375, 4154
444.34, 4151
444.3425, 4133
444.345, 4127
444.3475, 4064
444.35, 4099
444.3525, 4075
444.355, 4064
444.3575, 4084
444.36, 4090
444.3625, 4120
444.365, 4141
444.3675, 4128
444.37, 4129
444.3725, 4120
444.375, 4125
444.3775, 4154
444.38, 4161
444.3825, 4160
444.385, 4189
444.3875, 4169
444.39, 4153
444.3925, 4176
444.395, 4186
444.3975, 4195
444.4, 4146
444.4025, 4186
444.405, 4181
444.4075, 4174
444.41, 4168
444.4125, 4171
444.415, 4162
444.4175, 4119
444.42, 4183
444.4225, 4173
444.425, 4180
444.4275, 4168
444.43, 4180
444.4325, 4175
444.435, 4116
444.4375, 4156
444.44, 4157
444.4425, 4149
444.445, 4152
444.4475, 4172
444.45, 4223
444.4525, 4289
444.455, 4411
444.4575, 4414
444.46, 4448
444.4625, 4475
444.465, 4434
444.4675, 4286
444.47, 4054
444.4725, 3827
444.475, 3507
444.4775, 3192
444.48, 2769
444.4825, 2250
444.485, 1743
444.4875, 1485
444.49, 1534
444.4925, 1737
444.495, 2366
444.4975, 3340
444.5, 4324
444.5025, 4915
444.505, 5061
444.5075, 5043
444.51, 4858
444.5125, 4700
444.515, 4610
444.5175, 4575
444.52, 4562
444.5225, 4470
444.525, 4500
444.5275, 4514
444.53, 4514
444.5325, 4532
444.535, 4524
444.5375, 4503
444.54, 4478
444.5425, 4526
444.545, 4489
444.5475, 4487
444.55, 4470
444.5525, 4467
444.555, 4458
444.5575, 4421
444.56, 4459
444.5625, 4444
444.565, 4412
444.5675, 4402
444.57, 4408
444.5725, 4379
444.575, 4357
444.5775, 4390
444.58, 4380
444.5825, 4343
444.585, 4350
444.5875, 4337
444.59, 4341
444.5925, 4294
444.595, 4318
444.5975, 4296
444.6, 4291
444.6025, 4305
444.605, 4304
444.6075, 4304
444.61, 4262
444.6125, 4285
444.615, 4255
444.6175, 4267
444.62, 4279
444.6225, 4283
444.625, 4253
444.6275, 4226
444.63, 4271
444.6325, 4238
444.635, 4227
444.6375, 4253
444.64, 4216
444.6425, 4204
444.645, 4166
444.6475, 4218
444.65, 4221
444.6525, 4214
444.655, 4225
444.6575, 4231
444.66, 4223
444.6625, 4177
444.665, 4220
444.6675, 4212
444.67, 4189
444.6725, 4193
444.675, 4218
444.6775, 4184
444.68, 4139
444.6825, 4192
444.685, 4183
444.6875, 4173
444.69, 4160
444.6925, 4176
444.695, 4184
444.6975, 4172
444.7, 4209
444.7025, 4206
444.705, 4190
444.7075, 4199
444.71, 4207
444.7125, 4202
444.715, 4160
444.7175, 4180
444.72, 4191
444.7225, 4187
444.725, 4191
444.7275, 4198
444.73, 4203
444.7325, 4156
444.735, 4197
444.7375, 4190
444.74, 4193
444.7425, 4190
444.745, 4204
444.7475, 4181
444.75, 4159
444.7525, 4168
444.755, 4144
444.7575, 4139
444.76, 4170
444.7625, 4151
444.765, 4162
444.7675, 4097
444.77, 4149
444.7725, 4132
444.775, 4108
444.7775, 4113
444.78, 4119
444.7825, 4101
444.785, 4067
444.7875, 4112
444.79, 4085
444.7925, 4078
444.795, 4087
444.7975, 4087
444.8, 4090
444.8025, 4067
444.805, 4095
444.8075, 4115
444.81, 4122
444.8125, 4127
444.815, 4154
444.8175, 4165
444.82, 4140
444.8225, 4190
444.825, 4205
444.8275, 4201
444.83, 4195
444.8325, 4215
444.835, 4232
444.8375, 4188
444.84, 4226
444.8425, 4232
444.845, 4232
444.8475, 4256
444.85, 4233
444.8525, 4232
444.855, 4203
444.8575, 4240
444.86, 4243
444.8625, 4210
444.865, 4235
444.8675, 4208
444.87, 4212
444.8725, 4181
444.875, 4218
444.8775, 4214
444.88, 4220
444.8825, 4224
444.885, 4209
444.8875, 4205
444.89, 4176
444.8925, 4228
444.895, 4215
444.8975, 4183
444.9, 4219
444.9025, 4213
444.905, 4219
444.9075, 4156
444.91, 4202
444.9125, 4214
444.915, 4171
444.9175, 4185
444.92, 4191
444.9225, 4176
444.925, 4151
444.9275, 4159
444.93, 4169
444.9325, 4153
444.935, 4158
444.9375, 4181
444.94, 4181
444.9425, 4128
444.945, 4183
444.9475, 4194
444.95, 4167
444.9525, 4183
444.955, 4175
444.9575, 4186
444.96, 4138
444.9625, 4178
444.965, 4191
444.9675, 4143
444.97, 4167
444.9725, 4160
444.975, 4180
444.9775, 4013
444.98, 4188
444.9825, 4184
444.985, 4186
444.9875, 4199
444.99, 4194
444.9925, 4187
444.995, 4159
444.9975, 4177
445.0, 4173
445.0025, 4195
445.005, 4182
445.0075, 4219
445.01, 4204
445.0125, 4169
445.015, 4212
445.0175, 4195
445.02, 4173
445.0225, 4206
445.025, 4195
445.0275, 4186
445.03, 4133
445.0325, 4190
445.035, 4190
445.0375, 4147
445.04, 4160
445.0425, 4176
445.045, 4192
445.0475, 4170
445.05, 4170
445.0525, 4189
445.055, 4161
445.0575, 4161
445.06, 4177
445.0625, 4177
445.065, 4125
445.0675, 4184
445.07, 4189
445.0725, 4176
445.075, 4184
445.0775, 4180
445.08, 4169
445.0825, 4102
445.085, 4172
445.0875, 4163
445.09, 4156
445.0925, 4176
445.095, 4163
445.0975, 4148
445.1, 4128
445.1025, 4153
445.105, 4162
445.1075, 4149
445.11, 4157
445.1125, 4167
445.115, 4163
445.1175, 4124
445.12, 4175
445.1225, 4168
445.125, 4139
445.1275, 4157
445.13, 4144
445.1325, 4141
445.135, 4117
445.1375, 4138
445.14, 4133
445.1425, 4139
445.145, 4143
445.1475, 4155
445.15, 4118
445.1525, 4075
445.155, 4154
445.1575, 4164
445.16, 4162
445.1625, 4173
445.165, 4154
445.1675, 4151
445.17, 4096
445.1725, 4153
445.175, 4192
445.1775, 4184
445.18, 4190
445.1825, 4184
445.185, 4174
445.1875, 4132
445.19, 4163
445.1925, 4168
445.195, 4146
445.1975, 4152
445.2, 4168
445.2025, 4172
445.205, 4104
445.2075, 4183
445.21, 4164
445.2125, 4145
445.215, 4175
445.2175, 4166
445.22, 4174
445.2225, 4124
445.225, 4177
445.2275, 4187
445.23, 4194
445.2325, 4162
445.235, 4180
445.2375, 4158
445.24, 4126
445.2425, 4198
445.245, 4181
445.2475, 4179
445.25, 4196
445.2525, 4186
445.255, 4173
445.2575, 4120
445.26, 4182
445.2625, 4161
445.265, 4161
445.2675, 4161
445.27, 4177
445.2725, 4172
445.275, 4134
445.2775, 4169
445.28, 4163
445.2825, 4163
445.285, 4150
445.2875, 4158
445.29, 4136
445.2925, 4108
445.295, 4141
445.2975, 4156
445.3, 4154
445.3025, 4147
445.305, 4175
445.3075, 4165
445.31, 4112
445.3125, 4164
445.315, 4166
445.3175, 4162
445.32, 4142
445.3225, 4162
445.325, 4159
445.3275, 4116
445.33, 4163
445.3325, 4168
445.335, 4148
445.3375, 4166
445.34, 4165
445.3425, 4174
445.345, 4158
445.3475, 4191
445.35, 4164
445.3525, 4141
445.355, 4146
445.3575, 4157
445.36, 4148
445.3625, 4117
445.365, 4160
445.3675, 4168
445.37, 4172
445.3725, 4172
445.375, 4177
445.3775, 4170
445.38, 4015
445.3825, 4188
445.385, 4193
445.3875, 4171
445.39, 4160
445.3925, 4173
445.395, 4153
445.3975, 4134
445.4, 4178
445.4025, 4167
445.405, 4169
445.4075, 4170
445.41, 4176
445.4125, 4173
445.415, 4140
445.4175, 4174
445.42, 4167
445.4225, 4158
445.425, 4180
445.4275, 4189
445.43, 4187
445.4325, 4145
445.435, 4197
445.4375, 4180
445.44, 4186
445.4425, 4194
445.445, 4180
445.4475, 4166
445.45, 4125
445.4525, 4160
445.455, 4156
445.4575, 4147
445.46, 4178
445.4625, 4180
445.465, 4183
445.4675, 4138
445.47, 4202
445.4725, 4227
445.475, 4206
445.4775, 4171
445.48, 4142
445.4825, 4128
445.485, 4058
445.4875, 4101
445.49, 4104
445.4925, 4119
445.495, 4147
445.4975, 4170
445.5, 4160
445.5025, 4138
445.505, 4158
445.5075, 4145
445.51, 4131
445.5125, 4155
445.515, 4188
445.5175, 4181
445.52, 4176
445.5225, 4198
445.525, 4188
445.5275, 4178
445.53, 4169
445.5325, 4169
445.535, 4145
445.5375, 4003
445.54, 4157
445.5425, 4157
445.545, 4148
445.5475, 4176
445.55, 4165
445.5525, 4149
445.555, 4166
445.5575, 4177
445.56, 4162
445.5625, 4172
445.565, 4162
445.5675, 4167
445.57, 4148
445.5725, 4097
445.575, 4155
445.5775, 4149
445.58, 4163
445.5825, 4205
445.585, 4310
445.5875, 4357
445.59, 4367
445.5925, 4444
445.595, 4460
445.5975, 4449
445.6, 4327
445.6025, 4132
445.605, 3919
445.6075, 3579
445.61, 3323
445.6125, 2916
445.615, 2459
445.6175, 1946
445.62, 1685
445.6225, 1585
445.625, 1724
445.6275, 2258
445.63, 3120
445.6325, 4056
445.635, 4639
445.6375, 4963
445.64, 4996
445.6425, 4858
445.645, 4753
445.6475, 4619
445.65, 4554
445.6525, 4561
445.655, 4538
445.6575, 4491
445.66, 4460
445.6625, 4511
445.665, 4503
445.6675, 4504
445.67, 4505
445.6725, 4491
445.675, 4503
445.6775, 4472
445.68, 4515
445.6825, 4496
445.685, 4478
445.6875, 4476
445.69, 4466
445.6925, 4448
445.695, 4405
445.6975, 4431
445.7, 4439
445.7025, 4403
445.705, 4400
445.7075, 4396
445.71, 4379
445.7125, 4315
445.715, 4378
445.7175, 4356
445.72, 4311
445.7225, 4319
445.725, 4335
445.7275, 4309
445.73, 4150
445.7325, 4333
445.735, 4337
445.7375, 4318
445.74, 4293
445.7425, 4311
445.745, 4298
445.7475, 4271
445.75, 4309
445.7525, 4297
445.755, 4292
445.7575, 4277
445.76, 4274
445.7625, 4267
445.765, 4194
445.7675, 4248
445.77, 4272
445.7725, 4243
445.775, 4246
445.7775, 4236
445.78, 4222
445.7825, 4191
445.785, 4236
445.7875, 4227
445.79, 4213
445.7925, 4206
445.795, 4196
445.7975, 4217
445.8, 4216
445.8025, 4234
445.805, 4207
445.8075, 4203
445.81, 4193
445.8125, 4225
445.815, 4217
445.8175, 4179
445.82, 4204
445.8225, 4207
445.825, 4207
445.8275, 4194
445.83, 4199
445.8325, 4199
445.835, 4150
445.8375, 4201
445.84, 4198
445.8425, 4171
445.845, 4188
445.8475, 4215
445.85, 4190
445.8525, 4153
445.855, 4201
445.8575, 4176
445.86, 4195
445.8625, 4183
445.865, 4176
445.8675, 4172
445.87, 4148
445.8725, 4159
445.875, 4174
445.8775, 4175
445.88, 4193
445.8825, 4196
445.885, 4185
445.8875, 4131
445.89, 4179
445.8925, 4166
445.895, 4167
445.8975, 4155
445.9, 4156
445.9025, 4129
445.905, 3975
445.9075, 4153
445.91, 4124
445.9125, 4094
445.915, 4087
445.9175, 4088
445.92, 4093
445.9225, 4067
445.925, 4127
445.9275, 4135
445.93, 4133
445.9325, 4147
445.935, 4181
445.9375, 4174
445.94, 4191
445.9425, 4219
445.945, 4209
445.9475, 4204
445.95, 4210
445.9525, 4226
445.955, 4235
445.9575, 4175
445.96, 4255
445.9625, 4269
445.965, 4246
445.9675, 4274
445.97, 4266
445.9725, 4250
445.975, 4117
445.9775, 4283
445.98, 4268
445.9825, 4245
445.985, 4233
445.9875, 4239
445.99, 4205
445.9925, 4181
445.995, 4241
445.9975, 4255
446.0, 4231
446.0025, 4246
446.005, 4252
446.0075, 4251
446.01, 4229
446.0125, 4239
446.015, 4217
446.0175, 4209
446.02, 4198
446.0225, 4217
446.025, 4191
446.0275, 4160
446.03, 4203
446.0325, 4215
446.035, 4190
446.0375, 4176
446.04, 4172
446.0425, 4165
446.045, 4124
446.0475, 4196
446.05, 4194
446.0525, 4197
446.055, 4214
446.0575, 4202
446.06, 4172
446.0625, 4134
446.065, 4155
446.0675, 4159
446.07, 4149
446.0725, 4157
446.075, 4178
446.0775, 4162
446.08, 4158
446.0825, 4185
446.085, 4177
446.0875, 4167
446.09, 4156
446.0925, 4164
446.095, 4180
446.0975, 4130
446.1, 4173
446.1025, 4171
446.105, 4155
446.1075, 4185
446.11, 4174
446.1125, 4150
446.115, 4004
446.1175, 4200
446.12, 4202
446.1225, 4187
446.125, 4191
446.1275, 4161
446.13, 4153
446.1325, 3992
446.135, 4174
446.1375, 4184
446.14, 4150
446.1425, 4162
446.145, 4175
446.1475, 4170
446.15, 4168
446.1525, 4146
446.155, 4144
446.1575, 4110
446.16, 4126
446.1625, 4148
446.165, 4143
446.1675, 3993
446.17, 4185
446.1725, 4173
446.175, 4142
446.1775, 4170
446.18, 4162
446.1825, 4143
446.185, 4098
446.1875, 4150
446.19, 4155
446.1925, 4143
446.195, 4141
446.1975, 4150
446.2, 4127
446.2025, 4117
446.205, 4160
446.2075, 4123
446.21, 4113
446.2125, 4148
446.215, 4158
446.2175, 4149
446.22, 4136
446.2225, 4165
446.225, 4163
446.2275, 4139
446.23, 4144
446.2325, 4178
446.235, 4164
446.2375, 4111
446.24, 4161
446.2425, 4153
446.245, 4151
446.2475, 4154
446.25, 4140
446.2525, 4127
446.255, 4106
446.2575, 4155
446.26, 4154
446.2625, 4153
446.265, 4173
446.2675, 4176
446.27, 4169
446.2725, 4138
446.275, 4193
446.2775, 4182
446.28, 4173
446.2825, 4194
446.285, 4177
446.2875, 4190
446.29, 4165
446.2925, 4192
446.295, 4175
446.2975, 4151
446.3, 4117
446.3025, 4196
446.305, 4203
446.3075, 4159
446.31, 4182
446.3125, 4179
446.315, 4153
446.3175, 4159
446.32, 4184
446.3225, 4167
446.325, 4057
446.3275, 4182
446.33, 4191
446.3325, 4156
446.335, 4167
446.3375, 4177
446.34, 4182
446.3425, 4133
446.345, 4182
446.3475, 4158
446.35, 4160
446.3525, 4170
446.355, 4193
446.3575, 4183
446.36, 4163
446.3625, 4197
446.365, 4186
446.3675, 4175
446.37, 4202
446.3725, 4195
446.375, 4195
446.3775, 4175
446.38, 4169
446.3825, 4179
446.385, 4177
446.3875, 4166
446.39, 4143
446.3925, 4145
446.395, 4121
446.3975, 4176
446.4, 4184
446.4025, 4157
446.405, 4159
446.4075, 4175
446.41, 4147
446.4125, 4126
446.415, 4175
446.4175, 4175
446.42, 4186
446.4225, 4175
446.425, 4198
446.4275, 4204
446.43, 4140
446.4325, 4174
446.435, 4169
446.4375, 4152
446.44, 4162
446.4425, 4168
446.445, 4179
446.4475, 4132
446.45, 4204
446.4525, 4173
446.455, 4183
446.4575, 4184
446.46, 4202
446.4625, 4203
446.465, 4138
446.4675, 4174
446.47, 4178
446.4725, 4164
446.475, 4164
446.4775, 4170
446.48, 4172
446.4825, 4016
446.485, 4186
446.4875, 4181
446.49, 4168
446.4925, 4165
446.495, 4182
446.4975, 4185
446.5, 4135
446.5025, 4195
446.505, 4171
446.5075, 4171
446.51, 4127
446.5125, 4156
446.515, 4122
446.5175, 4079
446.52, 4091
446.5225, 4121
446.525, 4128
446.5275, 4150
446.53, 4185
446.5325, 4195
446.535, 4118
446.5375, 4172
446.54, 4178
446.5425, 4192
446.545, 4189
446.5475, 4197
446.55, 4185
446.5525, 4148
446.555, 4209
446.5575, 4185
446.56, 4189
446.5625, 4197
446.565, 4208
446.5675, 4201
446.57, 4151
446.5725, 4204
446.575, 4192
446.5775, 4199
446.58, 4195
446.5825, 4226
446.585, 4222
446.5875, 4195
446.59, 4209
446.5925, 4212
446.595, 4180
446.5975, 4185
446.6, 4171
446.6025, 4198
446.605, 4173
446.6075, 4189
446.61, 4227
446.6125, 4235
446.615, 4316
446.6175, 4391
446.62, 4407
446.6225, 4301
446.625, 4493
446.6275, 4456
446.63, 4318
446.6325, 4111
446.635, 3890
446.6375, 3597
446.64, 3235
446.6425, 2943
446.645, 2512
446.6475, 1984
446.65, 1729
446.6525, 1607
446.655, 1774
446.6575, 2207
446.66, 3045
446.6625, 4077
446.665, 4787
446.6675, 5057
446.67, 5103
446.6725, 5044
446.675, 4841
446.6775, 4738
446.68, 4646
446.6825, 4611
446.685, 4568
446.6875, 4523
446.69, 4510
446.6925, 4347
446.695, 4524
446.6975, 4520
446.7, 4510
446.7025, 4505
446.705, 4502
446.7075, 4473
446.71, 4410
446.7125, 4452
446.715, 4430
446.7175, 4414
446.72, 4415
446.7225, 4426
446.725, 4408
446.7275, 4410
446.73, 4409
446.7325, 4385
446.735, 4353
446.7375, 4319
446.74, 4367
446.7425, 4315
446.745, 4265
446.7475, 4326
446.75, 4316
446.7525, 4320
446.755, 4303
446.7575, 4328
446.76, 4326
446.7625, 4136
446.765, 4291
446.7675, 4291
446.77, 4284
446.7725, 4294
446.775, 4265
446.7775, 4236
446.78, 4188
446.7825, 4218
446.785, 4213
446.7875, 4228
446.79, 4229
446.7925, 4246
446.795, 4256
446.7975, 4196
446.8, 4243
446.8025, 4260
446.805, 4240
446.8075, 4227
446.81, 4235
446.8125, 4240
446.815, 4168
446.8175, 4224
446.82, 4206
446.8225, 4199
446.825, 4211
446.8275, 4207
446.83, 4212
446.8325, 4193
446.835, 4194
446.8375, 4192
446.84, 4167
446.8425, 4176
446.845, 4162
446.8475, 4189
446.85, 4029
446.8525, 4205
446.855, 4196
446.8575, 4187
446.86, 4138
446.8625, 4239
446.865, 4224
446.8675, 4171
446.87, 4217
446.8725, 4234
446.875, 4197
446.8775, 4189
446.88, 4216
446.8825, 4208
446.885, 4169
446.8875, 4207
446.89, 4218
446.8925, 4176
446.895, 4173
446.8975, 4196
446.9, 4181
446.9025, 4146
446.905, 4205
446.9075, 4175
446.91, 4178
446.9125, 4155
446.915, 4166
446.9175, 4145
446.92, 4009
446.9225, 4191
446.925, 4187
446.9275, 4173
446.93, 4165
446.9325, 4140
446.935, 4132
446.9375, 4117
446.94, 4128
446.9425, 4140
446.945, 4110
446.9475, 4124
446.95, 4127
446.9525, 4138
446.955, 4103
446.9575, 4150
446.96, 4132
446.9625, 4155
446.965, 4155
446.9675, 4152
446.97, 4160
446.9725, 4136
446.975, 4188
446.9775, 4178
446.98, 4198
446.9825, 4207
446.985, 4229
446.9875, 4218
446.99, 4054
446.9925, 4242
446.995, 4232
446.9975, 4209
447.0, 4222
447.0025, 4231
447.005, 4244
447.0075, 4250
447.01, 4247
447.0125, 4244
447.015, 4225
447.0175, 4225
447.02, 4247
447.0225, 4224
447.025, 4184
447.0275, 4256
447.03, 4247
447.0325, 4239
447.035, 4248
447.0375, 4223
447.04, 4227
447.0425, 4192
447.045, 4230
447.0475, 4235
447.05, 4241
447.0525, 4228
447.055, 4198
447.0575, 4217
447.06, 4155
447.0625, 4212
447.065, 4212
447.0675, 4190
447.07, 4196
447.0725, 4187
447.075, 4173
447.0775, 4139
447.08, 4181
447.0825, 4176
447.085, 4176
447.0875, 4165
447.09, 4181
447.0925, 4155
447.095, 4139
447.0975, 4142
447.1, 4153
447.1025, 4170
447.105, 4188
447.1075, 4193
447.11, 4186
447.1125, 4133
447.115, 4184
447.1175, 4178
447.12, 4177
447.1225, 4167
447.125, 4164
447.1275, 4181
447.13, 4017
447.1325, 4181
447.135, 4176
447.1375, 4197
447.14, 4199
447.1425, 4209
447.145, 4186
447.1475, 4121
447.15, 4154
447.1525, 4143
447.155, 4144
447.1575, 4159
447.16, 4192
447.1625, 4190
447.165, 4167
447.1675, 4159
447.17, 4145
447.1725, 4155
447.175, 4152
447.1775, 4145
447.18, 4161
447.1825, 4126
447.185, 4171
447.1875, 4171
447.19, 4148
447.1925, 4148
447.195, 4156
447.1975, 4160
447.2, 4123
447.2025, 4166
447.205, 4171
447.2075, 4159
447.21, 4172
447.2125, 4176
447.215, 4174
447.2175, 4117
447.22, 4167
447.2225, 4164
447.225, 4174
447.2275, 4156
447.23, 4173
447.2325, 4151
447.235, 4141
447.2375, 4160
447.24, 4176
447.2425, 4163
447.245, 4170
447.2475, 4184
447.25, 4180
447.2525, 4120
447.255, 4187
447.2575, 4167
447.26, 4158
447.2625, 4171
447.265, 4158
447.2675, 4167
447.27, 3988
447.2725, 4169
447.275, 4152
447.2775, 4147
447.28, 4181
447.2825, 4154
447.285, 4153
447.2875, 4106
447.29, 4182
447.2925, 4163
447.295, 4170
447.2975, 4168
447.3, 4193
447.3025, 4177
447.305, 4128
447.3075, 4193
447.31, 4173
447.3125, 4166
447.315, 4120
447.3175, 4192
447.32, 4177
447.3225, 4122
447.325, 4181
447.3275, 4168
447.33, 4168
447.3325, 4168
447.335, 4174
447.3375, 4174
447.34, 4025
447.3425, 4196
447.345, 4190
447.3475, 4176
447.35, 4174
447.3525, 4208
447.355, 4209
447.3575, 4127
447.36, 4181
447.3625, 4183
447.365, 4164
447.3675, 4147
447.37, 4173
447.3725, 4159
447.375, 4139
447.3775, 4144
447.38, 4147
447.3825, 4141
447.385, 4120
447.3875, 4145
447.39, 4134
447.3925, 4108
447.395, 4132
447.3975, 4121
447.4, 4119
447.4025, 4113
447.405, 4137
447.4075, 4121
447.41, 3996
447.4125, 4157
447.415, 4131
447.4175, 4118
447.42, 4127
447.4225, 4121
447.425, 4113
447.4275, 3983
447.43, 4144
447.4325, 4134
447.435, 4103
447.4375, 4095
447.44, 4116
447.4425, 4121
447.445, 4105
447.4475, 4104
447.45, 4115
447.4525, 4099
447.455, 4120
447.4575, 4117
447.46, 4105
447.4625, 4102
447.465, 4120
447.4675, 4120
447.47, 4126
447.4725, 4097
447.475, 4114
447.4775, 4107
447.48, 3954
447.4825, 4142
447.485, 4147
447.4875, 4135
447.49, 4140
447.4925, 4147
447.495, 4156
447.4975, 3993
447.5, 4174
447.5025, 4167
447.505, 4138
447.5075, 4155
447.51, 4163
447.5125, 4159
447.515, 4129
447.5175, 4162
447.52, 4169
447.5225, 4161
447.525, 4145
447.5275, 4178
447.53, 4165
447.5325, 4021
447.535, 4198
447.5375, 4197
447.54, 4184
447.5425, 4193
447.545, 4186
447.5475, 4168
447.55, 3990
447.5525, 4166
447.555, 4167
447.5575, 4181
447.56, 4179
447.5625, 4178
447.565, 4162
447.5675, 4117
447.57, 4170
447.5725, 4167
447.575, 4176
447.5775, 4172
447.58, 4208
447.5825, 4211
447.585, 4188
447.5875, 4207
447.59, 4157
447.5925, 4182
447.595, 4178
447.5975, 4190
447.6, 4178
447.6025, 4154
447.605, 4224
447.6075, 4227
447.61, 4194
447.6125, 4213
447.615, 4190
447.6175, 4137
447.62, 4085
447.6225, 4118
447.625, 4109
447.6275, 4085
447.63, 4105
447.6325, 4151
447.635, 4139
447.6375, 3978
447.64, 4159
447.6425, 4173
447.645, 4182
447.6475, 4189
447.65, 4187
447.6525, 4183
447.655, 4159
447.6575, 4170
447.66, 4181
447.6625, 4177
447.665, 4131
447.6675, 4202
447.67, 4210
447.6725, 4183
447.675, 4193
447.6775, 4192
447.68, 4199
447.6825, 4205
447.685, 4214
447.6875, 4202
447.69, 4158
447.6925, 4224
447.695, 4210
447.6975, 4182
447.7, 4182
447.7025, 4184
447.705, 4231
447.7075, 4037
447.71, 4213
447.7125, 4184
447.715, 4191
447.7175, 4217
447.72, 4278
447.7225, 4367
447.725, 4363
447.7275, 4433
447.73, 4475
447.7325, 4520
447.735, 4477
447.7375, 4329
447.74, 4094
447.7425, 3839
447.745, 3492
447.7475, 3149
447.75, 2735
447.7525, 2200
447.755, 1767
447.7575, 1532
447.76, 1572
447.7625, 1873
447.765, 2626
447.7675, 3557
447.77, 4347
447.7725, 4800
447.775, 4953
447.7775, 4743
447.78, 4794
447.7825, 4660
447.785, 4563
447.7875, 4563
447.79, 4530
447.7925, 4502
447.795, 4453
447.7975, 4520
447.8, 4527
447.8025, 4527
447.805, 4522
447.8075, 4533
447.81, 4535
447.8125, 4519
447.815, 4505
447.8175, 4495
447.82, 4470
447.8225, 4479
447.825, 4494
447.8275, 4496
447.83, 4313
447.8325, 4475
447.835, 4474
447.8375, 4438
447.84, 4437
447.8425, 4415
447.845, 4428
447.8475, 4365
447.85, 4385
447.8525, 4388
447.855, 4373
447.8575, 4365
447.86, 4372
447.8625, 4373
447.865, 4203
447.8675, 4392
447.87, 4347
447.8725, 4326
447.875, 4304
447.8775, 4308
447.88, 4311
447.8825, 4285
447.885, 4328
447.8875, 4301
447.89, 4289
447.8925, 4274
447.895, 4305
447.8975, 4280
447.9, 4121
447.9025, 4277
447.905, 4281
447.9075, 4254
447.91, 4254
447.9125, 4267
447.915, 4251
447.9175, 4192
447.92, 4237
447.9225, 4229
447.925, 4226
447.9275, 4233
447.93, 4229
447.9325, 4230
447.935, 4151
447.9375, 4247
447.94, 4233
447.9425, 4212
447.945, 4175
447.9475, 4245
447.95, 4243
447.9525, 4080
447.955, 4226
447.9575, 4235
447.96, 4224
447.9625, 4232
447.965, 4241
447.9675, 4222
447.97, 4169
447.9725, 4220
447.975, 4224
447.9775, 4238
447.98, 4256
447.9825, 4221
447.985, 4224
447.9875, 4064
447.99, 4233
447.9925, 4259
447.995, 4237
447.9975, 4240
448.0, 4236
448.0025, 4224
448.005, 4172
448.0075, 4225
448.01, 4200
448.0125, 4192
448.015, 4188
448.0175, 4191
448.02, 4166
448.0225, 4121
448.025, 4186
448.0275, 4175
448.03, 4136
448.0325, 4151
448.035, 4151
448.0375, 4163
448.04, 4144
448.0425, 4149
448.045, 4119
448.0475, 4093
448.05, 4106
448.0525, 4080
448.055, 4094
448.0575, 3937
448.06, 4127
448.0625, 4113
448.065, 4101
448.0675, 4126
448.07, 4126
448.0725, 4135
448.075, 4106
448.0775, 4128
448.08, 4116
448.0825, 4140
448.085, 4137
448.0875, 4158
448.09, 4166
448.0925, 4163
448.095, 4182
448.0975, 4185
448.1, 4179
448.1025, 4198
448.105, 4215
448.1075, 4200
448.11, 4182
448.1125, 4203
448.115, 4213
448.1175, 4214
448.12, 4253
448.1225, 4245
448.125, 4227
448.1275, 4058
448.13, 4243
448.1325, 4207
448.135, 4187
448.1375, 4215
448.14, 4195
448.1425, 4176
448.145, 4034
448.1475, 4201
448.15, 4194
448.1525, 4208
448.155, 4182
448.1575, 4183
448.16, 4191
448.1625, 4171
448.165, 4193
448.1675, 4193
448.17, 4180
448.1725, 4176
448.175, 4167
448.1775, 4184
448.18, 4128
448.1825, 4193
448.185, 4166
448.1875, 4145
448.19, 4144
448.1925, 4166
448.195, 4146
448.1975, 4105
448.2, 4189
448.2025, 4136
448.205, 4134
448.2075, 4144
448.21, 4156
448.2125, 4140
448.215, 4096
448.2175, 4175
448.22, 4164
448.2225, 4135
448.225, 4136
448.2275, 4134
448.23, 4142
448.2325, 3981
448.235, 4166
448.2375, 4144
448.24, 4138
448.2425, 4167
448.245, 4177
448.2475, 4155
448.25, 4107
448.2525, 4162
448.255, 4150
448.2575, 4148
448.26, 4156
448.2625, 4194
448.265, 4193
448.2675, 4028
448.27, 4214
448.2725, 4220
448.275, 4187
448.2775, 4205
448.28, 4202
448.2825, 4198
448.285, 4128
448.2875, 4221
448.29, 4213
448.2925, 4194
448.295, 4169
448.2975, 4198
448.3, 4191
448.3025, 4100
448.305, 4182
448.3075, 4192
448.31, 4174
448.3125, 4017
448.315, 4205
448.3175, 4206
448.32, 4150
448.3225, 4196
448.325, 4186
448.3275, 4165
448.33, 4168
448.3325, 4177
448.335, 4184
448.3375, 3999
448.34, 4183
448.3425, 4185
448.345, 4168
448.3475, 4191
448.35, 4180
448.3525, 4169
448.355, 4126
448.3575, 4170
448.36, 4146
448.3625, 4150
448.365, 4152
448.3675, 4140
448.37, 4148
448.3725, 3995
448.375, 4170
448.3775, 4170
448.38, 4146
448.3825, 4155
448.385, 4177
448.3875, 4155
448.39, 4115
448.3925, 4184
448.395, 4166
448.3975, 4137
448.4, 4156
448.4025, 4174
448.405, 4152
448.4075, 4099
448.41, 4177
448.4125, 4160
448.415, 4173
448.4175, 4171
448.42, 4169
448.4225, 4144
448.425, 4096
448.4275, 4177
448.43, 4146
448.4325, 4132
448.435, 4158
448.4375, 4152
448.44, 4186
448.4425, 4122
448.445, 4186
448.4475, 4182
448.45, 4196
448.4525, 4038
448.455, 4213
448.4575, 4229
448.46, 4214
448.4625, 4206
448.465, 4212
448.4675, 4199
448.47, 4211
448.4725, 4201
448.475, 4203
448.4775, 4147
448.48, 4215
448.4825, 4202
448.485, 4221
448.4875, 4191
448.49, 4209
448.4925, 4180
448.495, 4044
448.4975, 4208
448.5, 4217
448.5025, 4209
448.505, 4232
448.5075, 4228
448.51, 4214
448.5125, 4067
448.515, 4232
448.5175, 4230
448.52, 4227
448.5225, 4162
448.525, 4234
448.5275, 4215
448.53, 4204
448.5325, 4228
448.535, 4208
448.5375, 4171
448.54, 4178
448.5425, 4171
448.545, 4166
448.5475, 4160
448.55, 4181
448.5525, 4188
448.555, 4145
448.5575, 4156
448.56, 4176
448.5625, 4196
448.565, 4147
448.5675, 4200
448.57, 4181
448.5725, 4169
448.575, 4171
448.5775, 4184
448.58, 4179
448.5825, 4122
448.585, 4190
448.5875, 4193
448.59, 4175
448.5925, 4185
448.595, 4171
448.5975, 4174
448.6, 4127
448.6025, 4184
448.605, 4206
448.6075, 4188
448.61, 4191
448.6125, 4219
448.615, 4194
448.6175, 4153
448.62, 4223
448.6225, 4206
448.625, 4187
448.6275, 4198
448.63, 4192
448.6325, 4187
448.635, 4013
448.6375, 4204
448.64, 4183
448.6425, 4179
448.645, 4178
448.6475, 4181
448.65, 4186
448.6525, 4114
448.655, 4149
448.6575, 4187
448.66, 4182
448.6625, 4183
448.665, 4213
448.6675, 4162
448.67, 4125
448.6725, 4175
448.675, 4138
448.6775, 4112
448.68, 4121
448.6825, 4113
448.685, 4067
448.6875, 4051
448.69, 4101
448.6925, 4110
448.695, 4114
448.6975, 4154
448.7, 4126
448.7025, 4130
448.705, 3962
448.7075, 4160
448.71, 4173
448.7125, 4173
448.715, 4179
448.7175, 4175
448.72, 4187
448.7225, 4022
448.725, 4194
448.7275, 4179
448.73, 4184
448.7325, 4178
448.735, 4197
448.7375, 4192
448.74, 4146
448.7425, 4207
448.745, 4186
448.7475, 4177
448.75, 4199
448.7525, 4196
448.755, 4196
448.7575, 4176
448.76, 4198
448.7625, 4191
448.765, 4197
448.7675, 4205
448.77, 4205
448.7725, 4180
448.775, 4043
448.7775, 4239
448.78, 4304
448.7825, 4369
448.785, 4402
448.7875, 4443
448.79, 4482
448.7925, 4412
448.795, 4295
448.7975, 4069
448.8, 3824
448.8025, 3559
448.805, 3279
448.8075, 2913
448.81, 2431
448.8125, 2028
448.815, 1785
448.8175, 1670
448.82, 1885
448.8225, 2330
448.825, 3146
448.8275, 4167
448.83, 4858
448.8325, 5118
448.835, 5133
448.8375, 5072
448.84, 4902
448.8425, 4756
448.845, 4605
448.8475, 4614
448.85, 4549
448.8525, 4488
448.855, 4473
448.8575, 4492
448.86, 4505
448.8625, 4463
448.865, 4514
448.8675, 4515
448.87, 4481
448.8725, 4494
448.875, 4506
448.8775, 4479
448.88, 4439
448.8825, 4446
448.885, 4438
448.8875, 4414
448.89, 4405
448.8925, 4432
448.895, 4395
448.8975, 4323
448.9, 4382
448.9025, 4359
448.905, 4339
448.9075, 4324
448.91, 4329
448.9125, 4329
448.915, 4294
448.9175, 4326
448.92, 4296
448.9225, 4296
448.925, 4289
448.9275, 4289
448.93, 4291
448.9325, 4241
448.935, 4280
448.9375, 4281
448.94, 4241
448.9425, 4241
448.945, 4246
448.9475, 4222
448.95, 4198
448.9525, 4241
448.955, 4238
448.9575, 4219
448.96, 4233
448.9625, 4239
448.965, 4236
448.9675, 4196
448.97, 4222
448.9725, 4227
448.975, 4206
448.9775, 4224
448.98, 4241
448.9825, 4240
448.985, 4178
448.9875, 4220
448.99, 4228
448.9925, 4231
448.995, 4240
448.9975, 4214
449.0, 4208
449.0025, 4152
449.005, 4203
449.0075, 4217
449.01, 4197
449.0125, 4201
449.015, 4200
449.0175, 4157
449.02, 4024
449.0225, 4195
449.025, 4220
449.0275, 4199
449.03, 4204
449.0325, 4183
449.035, 4187
449.0375, 4133
449.04, 4192
449.0425, 4199
449.045, 4188
449.0475, 4180
449.05, 4171
449.0525, 4179
449.055, 4152
449.0575, 4199
449.06, 4175
449.0625, 4166
449.065, 4182
449.0675, 4180
449.07, 4178
449.0725, 4019
449.075, 4188
449.0775, 4201
449.08, 4199
449.0825, 4156
449.085, 4167
449.0875, 4155
449.09, 3986
449.0925, 4162
449.095, 4162
449.0975, 4151
449.1, 4169
449.1025, 4154
449.105, 4172
449.1075, 4127
449.11, 4153
449.1125, 4140
449.115, 4149
449.1175, 4146
449.12, 4138
449.1225, 4155
449.125, 4101
449.1275, 4172
449.13, 4168
449.1325, 4185
449.135, 4174
449.1375, 4192
449.14, 4201
449.1425, 4056
449.145, 4236
449.1475, 4225
449.15, 4220
449.1525, 4224
449.155, 4224
449.1575, 4238
449.16, 4069
449.1625, 4245
449.165, 4233
449.1675, 4236
449.17, 4067
449.1725, 4260
449.175, 4236
449.1775, 4198
449.18, 4214
449.1825, 4198
449.185, 4224
449.1875, 4207
449.19, 4202
449.1925, 4208
449.195, 4150
449.1975, 4194
449.2, 4190
449.2025, 4175
449.205, 4188
449.2075, 4215
449.21, 4189
449.2125, 4136
449.215, 4178
449.2175, 4172
449.22, 4189
449.2225, 4180
449.225, 4188
449.2275, 4175
449.23, 4175
449.2325, 4208
449.235, 4194
449.2375, 4167
449.24, 4211
449.2425, 4185
449.245, 4176
449.2475, 4148
449.25, 4242
449.2525, 4213
449.255, 4198
449.2575, 4182
449.26, 4198
449.2625, 4189
449.265, 4107
449.2675, 4172
449.27, 4175
449.2725, 4186
449.275, 4154
449.2775, 4222
449.28, 4195
449.2825, 4165
449.285, 4183
449.2875, 4173
449.29, 4181
449.2925, 4160
449.295, 4169
449.2975, 4179
449.3, 4134
449.3025, 4195
449.305, 4202
449.3075, 4195
449.31, 4207
449.3125, 4205
449.315, 4177
449.3175, 4131
449.32, 4177
449.3225, 4190
449.325, 4200
449.3275, 4184
449.33, 4209
449.3325, 4201
449.335, 4162
449.3375, 4192
449.34, 4193
449.3425, 4185
449.345, 4177
449.3475, 4203
449.35, 4193
449.3525, 4044
449.355, 4208
449.3575, 4201
449.36, 4205
449.3625, 4193
449.365, 4202
449.3675, 4187
449.37, 4122
449.3725, 4214
449.375, 4190
449.3775, 4172
449.38, 4136
449.3825, 4186
449.385, 4192
449.3875, 4141
449.39, 4180
449.3925, 4188
449.395, 4165
449.3975, 4163
449.4, 4161
449.4025, 4141
449.405, 4156
449.4075, 4181
449.41, 4167
449.4125, 4164
449.415, 4023
449.4175, 4209
449.42, 4181
449.4225, 4008
449.425, 4144
449.4275, 4163
449.43, 4139
449.4325, 4167
449.435, 4157
449.4375, 4154
449.44, 3987
449.4425, 4164
449.445, 4157
449.4475, 4155
449.45, 4127
449.4525, 4165
449.455, 4180
449.4575, 4149
449.46, 4168
449.4625, 4191
449.465, 4183
449.4675, 4178
449.47, 4167
449.4725, 4167
449.475, 4127
449.4775, 4152
449.48, 4159
449.4825, 4149
449.485, 4138
449.4875, 4152
449.49, 4154
449.4925, 3989
449.495, 4173
449.4975, 4191
449.5, 4163
449.5025, 4158
449.505, 4173
449.5075, 4134
449.51, 3990
449.5125, 4174
449.515, 4195
449.5175, 4163
449.52, 4168
449.5225, 4175
449.525, 4168
449.5275, 4054
449.53, 4173
449.5325, 4174
449.535, 4146
449.5375, 4141
449.54, 4142
449.5425, 4143
449.545, 4089
449.5475, 4158
449.55, 4139
449.5525, 4138
449.555, 4142
449.5575, 4151
449.56, 4171
449.5625, 3996
449.565, 4174
449.5675, 4171
449.57, 4153
449.5725, 4157
449.575, 4161
449.5775, 4157
449.58, 4106
449.5825, 4152
449.585, 4177
449.5875, 4163
449.59, 4156
449.5925, 4148
449.595, 4146
449.5975, 3997
449.6, 4190
449.6025, 4180
449.605, 4158
449.6075, 4162
449.61, 4189
449.6125, 4187
449.615, 4120
449.6175, 4168
449.62, 4149
449.6225, 4153
449.625, 4154
449.6275, 4167
449.63, 4188
449.6325, 4174
449.635, 4197
449.6375, 4168
449.64, 4165
449.6425, 4181
449.645, 4165
449.6475, 4171
449.65, 4123
449.6525, 4173
449.655, 4155
449.6575, 4169
449.66, 4180
449.6625, 4189
449.665, 4170
449.6675, 4120
449.67, 4189
449.6725, 4184
449.675, 4168
449.6775, 4114
449.68, 4196
449.6825, 4194
449.685, 4145
449.6875, 4161
449.69, 4142
449.6925, 4141
449.695, 4129
449.6975, 4123
449.7, 4121
449.7025, 4076
449.705, 4136
449.7075, 4127
449.71, 4100
449.7125, 4099
449.715, 4138
449.7175, 4124
449.72, 4097
449.7225, 4136
449.725, 4140
449.7275, 4136
449.73, 4161
449.7325, 4163
449.735, 4182
449.7375, 4118
449.74, 4197
449.7425, 4156
449.745, 4154
449.7475, 4109
449.75, 4189
449.7525, 4179
449.755, 4139
449.7575, 4166
449.76, 4172
449.7625, 4177
449.765, 4159
449.7675, 4195
449.77, 4179
449.7725, 4116
449.775, 4166
449.7775, 4172
449.78, 4153
449.7825, 4168
449.785, 4162
449.7875, 4169
449.79, 4019
449.7925, 4173
449.795, 4201
449.7975, 4213
449.8, 4318
449.8025, 4387
449.805, 4415
449.8075, 4419
449.81, 4507
449.8125, 4481
449.815, 4337
449.8175, 4103
449.82, 3932
449.8225, 3627
449.825, 3256
449.8275, 2883
449.83, 2428
449.8325, 1860
449.835, 1582
449.8375, 1567
449.84, 1699
449.8425, 2212
449.845, 3188
449.8475, 4121
449.85, 4714
449.8525, 4992
449.855, 5024
449.8575, 4880
449.86, 4664
449.8625, 4610
449.865, 4564
449.8675, 4551
449.87, 4509
449.8725, 4509
449.875, 4510
449.8775, 4356
449.88, 4550
449.8825, 4544
449.885, 4533
449.8875, 4547
449.89, 4542
449.8925, 4512
449.895, 4497
449.8975, 4484
449.9, 4484
449.9025, 4470
449.905, 4418
449.9075, 4501
449.91, 4462
449.9125, 4392
449.915, 4459
449.9175, 4443
449.92, 4420
449.9225, 4433
449.925, 4426
449.9275, 4406
449.93, 4259
449.9325, 4417
449.935, 4400
449.9375, 4373
449.94, 4365
449.9425, 4353
449.945, 4354
449.9475, 4301
449.95, 4331
449.9525, 4327
449.955, 4299
449.9575, 4309
449.96, 4299
449.9625, 4305
449.965, 4279
449.9675, 4289
449.97, 4277
449.9725, 4279
449.975, 4266
449.9775, 4264
449.98, 4264
449.9825, 4215
449.985, 4271
449.9875, 4246
449.99, 4235
449.9925, 4246
449.995, 4253
449.9975, 4220
450.0, 4165
450.0025, 4241
450.005, 4252
450.0075, 4229
450.01, 4237
450.0125, 4250
450.015, 4221
450.0175, 4059
450.02, 4168
450.0225, 4270
450.025, 4262
450.0275, 4200
450.03, 4268
450.0325, 4251
450.035, 4244
450.0375, 4235
450.04, 4219
450.0425, 4211
450.045, 4236
450.0475, 4251
450.05, 4220
450.0525, 4163
450.055, 4232
450.0575, 4226
450.06, 4199
450.0625, 4187
450.065, 4227
450.0675, 4217
450.07, 4067
450.0725, 4237
450.075, 4254
450.0775, 4230
450.08, 4210
450.0825, 4221
450.085, 4212
450.0875, 4154
450.09, 4221
450.0925, 4208
450.095, 4179
450.0975, 4189
450.1, 4189
450.1025, 4168
450.105, 4134
450.1075, 4176
450.11, 4164
450.1125, 4149
450.115, 4122
450.1175, 4130
450.12, 4124
450.1225, 4058
450.125, 4085
450.1275, 4080
450.13, 4063
450.1325, 4053
450.135, 4066
450.1375, 4086
450.14, 4044
450.1425, 4089
450.145, 4098
450.1475, 4111
450.15, 4128
450.1525, 4142
450.155, 4136
450.1575, 4072
450.16, 4128
450.1625, 4138
450.165, 4139
450.1675, 4156
450.17, 4154
450.1725, 4169
450.175, 4125
450.1775, 4200
450.18, 4192
450.1825, 4186
450.185, 4202
450.1875, 4204
450.19, 4224
450.1925, 4173
450.195, 4228
450.1975, 4214
450.2, 4212
450.2025, 4220
450.205, 4227
450.2075, 4241
450.21, 4177
450.2125, 4227
450.215, 4206
450.2175, 4205
450.22, 4220
450.2225, 4206
450.225, 4215
450.2275, 4069
450.23, 4254
450.2325, 4221
450.235, 4213
450.2375, 4213
450.24, 4214
450.2425, 4196
450.245, 4045
450.2475, 4224
450.25, 4209
450.2525, 4204
450.255, 4156
450.2575, 4254
450.26, 4211
450.2625, 4197
450.265, 4222
450.2675, 4224
450.27, 4222
450.2725, 4217
450.275, 4213
450.2775, 4209
450.28, 4022
450.2825, 4213
450.285, 4187
450.2875, 4208
450.29, 4213
450.2925, 4186
450.295, 4184
450.2975, 4010
450.3, 4186
450.3025, 4189
450.305, 4201
450.3075, 4194
450.31, 4196
450.3125, 4206
450.315, 4021
450.3175, 4198
450.32, 4194
450.3225, 4184
450.325, 4200
450.3275, 4194
450.33, 4198
450.3325, 4165
450.335, 4186
450.3375, 4194
450.34, 4195
450.3425, 4197
450.345, 4188
450.3475, 4166
450.35, 4128
450.3525, 4182
450.355, 4205
450.3575, 4183
450.36, 4199
450.3625, 4200
450.365, 4204
450.3675, 4040
450.37, 4212
450.3725, 4216
450.375, 4187
450.3775, 4192
450.38, 4177
450.3825, 4156
450.385, 4157
450.3875, 4185
450.39, 4196
450.3925, 4190
450.395, 4212
450.3975, 4217
450.4, 4191
450.4025, 4179
450.405, 4185
450.4075, 4184
450.41, 4178
450.4125, 4191
450.415, 4198
450.4175, 4182
450.42, 4141
450.4225, 4192
450.425, 4189
450.4275, 4198
450.43, 4194
450.4325, 4195
450.435, 4192
450.4375, 4167
450.44, 4197
450.4425, 4182
450.445, 4157
450.4475, 4176
450.45, 4167
450.4525, 4142
450.455, 4107
450.4575, 4185
450.46, 4180
450.4625, 4163
450.465, 4151
450.4675, 4171
450.47, 4182
450.4725, 4155
450.475, 4155
450.4775, 4138
450.48, 4149
450.4825, 4157
450.485, 4192
450.4875, 4176
450.49, 4159
450.4925, 4151
450.495, 4151
450.4975, 4152
450.5, 4141
450.5025, 4168
450.505, 4166
450.5075, 4000
450.51, 4170
450.5125, 4154
450.515, 4162
450.5175, 4142
450.52, 4184
450.5225, 4160
450.525, 4121
450.5275, 4153
450.53, 4148
450.5325, 4119
450.535, 4132
450.5375, 4135
450.54, 4141
450.5425, 4137
450.545, 4147
450.5475, 4162
450.55, 4134
450.5525, 4135
450.555, 4147
450.5575, 4119
450.56, 4070
450.5625, 4123
450.565, 4109
450.5675, 4100
450.57, 4090
450.5725, 4097
450.575, 4091
450.5775, 4044
450.58, 4089
450.5825, 4116
450.585, 4124
450.5875, 4125
450.59, 4131
450.5925, 4136
450.595, 4068
450.5975, 4111
450.6, 4131
450.6025, 4126
450.605, 4146
450.6075, 4150
450.61, 4154
450.6125, 4139
450.615, 4161
450.6175, 4150
450.62, 4150
450.6225, 4158
450.625, 4141
450.6275, 4118
450.63, 4093
450.6325, 4179
450.635, 4146
450.6375, 4133
450.64, 4112
450.6425, 4120
450.645, 4144
450.6475, 3998
450.65, 4184
450.6525, 4186
450.655, 4178
450.6575, 4157
450.66, 4134
450.6625, 4137
450.665, 4091
450.6675, 4140
450.67, 4142
450.6725, 4155
450.675, 4164
450.6775, 4197
450.68, 4183
450.6825, 4141
450.685, 4177
450.6875, 4193
450.69, 4182
450.6925, 4133
450.695, 4171
450.6975, 4175
450.7, 4118
450.7025, 4167
450.705, 4160
450.7075, 4149
450.71, 4151
450.7125, 4160
450.715, 4160
450.7175, 3993
450.72, 4167
450.7225, 4162
450.725, 4161
450.7275, 4182
450.73, 4196
450.7325, 4202
450.735, 4063
450.7375, 4198
450.74, 4206
450.7425, 4217
450.745, 4195
450.7475, 4180
450.75, 4181
450.7525, 4139
450.755, 4205
450.7575, 4220
450.76, 4204
450.7625, 4197
450.765, 4203
450.7675, 4223
450.77, 4167
450.7725, 4209
450.775, 4198
450.7775, 4213
450.78, 4206
450.7825, 4209
450.785, 4218
450.7875, 4175
450.79, 4241
450.7925, 4219
450.795, 4179
450.7975, 4178
450.8, 4185
450.8025, 4171
450.805, 4116
450.8075, 4157
450.81, 4156
450.8125, 4163
450.815, 4199
450.8175, 4194
450.82, 4204
450.8225, 4168
450.825, 4213
450.8275, 4207
450.83, 4181
450.8325, 4217
450.835, 4222
450.8375, 4224
450.84, 4044
450.8425, 4222
450.845, 4208
450.8475, 4196
450.85, 4195
450.8525, 4203
450.855, 4200
450.8575, 4139
450.86, 4227
450.8625, 4217
450.865, 4205
450.8675, 4225
450.87, 4240
450.8725, 4252
450.875, 4088
450.8775, 4241
450.88, 4216
450.8825, 4212
450.885, 4208
450.8875, 4234
450.89, 4242
450.8925, 4175
450.895, 4261
450.8975, 4340
450.9, 4405
450.9025, 4427
450.905, 4472
450.9075, 4508
450.91, 4433
450.9125, 4334
450.915, 4113
450.9175, 3875
450.92, 3582
450.9225, 3306
450.925, 2931
450.9275, 2443
450.93, 1995
450.9325, 1759
450.935, 1685
450.9375, 1878
450.94, 2362
450.9425, 3227
450.945, 4105
450.9475, 4769
450.95, 5045
450.9525, 5072
450.955, 4981
450.9575, 4832
450.96, 4700
450.9625, 4585
450.965, 4583
450.9675, 4512
450.97, 4496
450.9725, 4471
450.975, 4499
450.9775, 4504
450.98, 4452
450.9825, 4504
450.985, 4492
450.9875, 4470
450.99, 4438
450.9925, 4449
450.995, 4447
450.9975, 4394
451.0, 4420
451.0025, 4407
451.005, 4386
451.0075, 4374
451.01, 4370
451.0125, 4374
451.015, 4333
451.0175, 4375
451.02, 4371
451.0225, 4349
451.025, 4340
451.0275, 4337
451.03, 4322
451.0325, 4154
451.035, 4322
451.0375, 4317
451.04, 4301
451.0425, 4297
451.045, 4309
451.0475, 4312
451.05, 4211
451.0525, 4256
451.055, 4229
451.0575, 4233
451.06, 4248
451.0625, 4267
451.065, 4259
451.0675, 4221
451.07, 4269
451.0725, 4245
451.075, 4230
451.0775, 4235
451.08, 4223
451.0825, 4229
451.085, 4190
451.0875, 4224
451.09, 4207
451.0925, 4209
451.095, 4227
451.0975, 4223
451.1, 4206
451.1025, 4165
451.105, 4206
451.1075, 4215
451.11, 4189
451.1125, 4200
451.115, 4213
451.1175, 4196
451.12, 4194
451.1225, 4212
451.125, 4207
451.1275, 4223
451.13, 4214
451.1325, 4204
451.135, 4187
451.1375, 4148
451.14, 4179
451.1425, 4197
451.145, 4201
451.1475, 4193
451.15, 4186
451.1525, 4206
451.155, 4052
451.1575, 4207
451.16, 4183
451.1625, 4163
451.165, 4155
451.1675, 4160
451.17, 4163
451.1725, 4134
451.175, 4181
451.1775, 4174
451.18, 4181
451.1825, 4142
451.185, 4152
451.1875, 4167
451.19, 4158
451.1925, 4175
451.195, 4169
451.1975, 4173
451.2, 4157
451.2025, 4160
451.205, 4163
451.2075, 4118
451.21, 4173
451.2125, 4145
451.215, 4152
451.2175, 4159
451.22, 4154
451.2225, 4140
451.225, 4086
451.2275, 4135
451.23, 4146
451.2325, 4155
451.235, 4150
451.2375, 4147
451.24, 4168
451.2425, 4138
451.245, 4184
451.2475, 4202
451.25, 4199
451.2525, 4218
451.255, 4239
451.2575, 4217
451.26, 4177
451.2625, 4237
451.265, 4241
451.2675, 4231
451.27, 4243
451.2725, 4261
451.275, 4265
451.2775, 4220
451.28, 4280
451.2825, 4262
451.285, 4256
451.2875, 4277
451.29, 4267
451.2925, 4276
451.295, 4230
451.2975, 4297
451.3, 4295
451.3025, 4266
451.305, 4274
451.3075, 4284
451.31, 4289
451.3125, 4214
451.315, 4255
451.3175, 4249
451.32, 4247
451.3225, 4237
451.325, 4239
451.3275, 4232
451.33, 4182
451.3325, 4220
451.335, 4205
451.3375, 4197
451.34, 4209
451.3425, 4211
451.345, 4196
451.3475, 4035
451.35, 4199
451.3525, 4205
451.355, 4184
451.3575, 4195
451.36, 4194
451.3625, 4194
451.365, 4160
451.3675, 4196
451.37, 4195
451.3725, 4198
451.375, 4217
451.3775, 4195
451.38, 4184
451.3825, 4148
451.385, 4186
451.3875, 4185
451.39, 4180
451.3925, 4184
451.395, 4194
451.3975, 4188
451.4, 4155
451.4025, 4221
451.405, 4203
451.4075, 4194
451.41, 4194
451.4125, 4183
451.415, 4185
451.4175, 4161
451.42, 4185
451.4225, 4184
451.425, 4190
451.4275, 4183
451.43, 4199
451.4325, 4180
451.435, 4139
451.4375, 4193
451.44, 4207
451.4425, 4185
451.445, 4195
451.4475, 4207
451.45, 4192
451.4525, 4189
451.455, 4203
451.4575, 4208
451.46, 4179
451.4625, 4175
451.465, 4194
451.4675, 4194
451.47, 4150
451.4725, 4210
451.475, 4163
451.4775, 4161
451.48, 4174
451.4825, 4196
451.485, 4205
451.4875, 4137
451.49, 4178
451.4925, 4170
451.495, 4162
451.4975, 4176
451.5, 4163
451.5025, 4166
451.505, 4111
451.5075, 4175
451.51, 4174
451.5125, 4153
451.515, 4151
451.5175, 4156
451.52, 4167
451.5225, 4099
451.525, 4168
451.5275, 4161
451.53, 4164
451.5325, 4144
451.535, 4145
451.5375, 4149
451.54, 4114
451.5425, 4166
451.545, 4159
451.5475, 4156
451.55, 4171
451.5525, 4173
451.555, 4149
451.5575, 4145
451.56, 4187
451.5625, 4174
451.565, 4172
451.5675, 4173
451.57, 4178
451.5725, 4163
451.575, 4118
451.5775, 4190
451.58, 4174
451.5825, 4163
451.585, 4154
451.5875, 4167
451.59, 4175
451.5925, 4142
451.595, 4166
451.5975, 4140
451.6, 4144
451.6025, 4151
451.605, 4175
451.6075, 4174
451.61, 4115
451.6125, 4178
451.615, 4167
451.6175, 4159
451.62, 4170
451.6225, 4179
451.625, 4160
451.6275, 4136
451.63, 4169
451.6325, 4174
451.635, 4155
451.6375, 4156
451.64, 4173
451.6425, 4151
451.645, 4096
451.6475, 4162
451.65, 4177
451.6525, 4155
451.655, 4152
451.6575, 4142
451.66, 4129
451.6625, 4083
451.665, 4134
451.6675, 4144
451.67, 4155
451.6725, 4164
451.675, 4145
451.6775, 4139
451.68, 4095
451.6825, 4163
451.685, 4131
451.6875, 4113
451.69, 4139
451.6925, 4143
451.695, 4142
451.6975, 4104
451.7, 4156
451.7025, 4148
451.705, 4121
451.7075, 4139
451.71, 4130
451.7125, 4118
451.715, 4093
451.7175, 4153
451.72, 4138
451.7225, 4114
451.725, 4137
451.7275, 4130
451.73, 4135
451.7325, 3996
451.735, 4160
451.7375, 4166
451.74, 4170
451.7425, 4174
451.745, 4174
451.7475, 4190
451.75, 4126
451.7525, 4166
451.755, 4191
451.7575, 4159
451.76, 4155
451.7625, 4169
451.765, 4159
451.7675, 4145
451.77, 4159
451.7725, 4151
451.775, 4152
451.7775, 4138
451.78, 4173
451.7825, 4153
451.785, 4098
451.7875, 4138
451.79, 4142
451.7925, 4153
451.795, 4133
451.7975, 4141
451.8, 4125
451.8025, 4090
451.805, 4168
451.8075, 4134
451.81, 4135
451.8125, 4152
451.815, 4171
451.8175, 4177
451.82, 4036
451.8225, 4218
451.825, 4202
451.8275, 4189
451.83, 4192
451.8325, 4182
451.835, 4191
451.8375, 4161
451.84, 4168
451.8425, 4185
451.845, 4153
451.8475, 4169
451.85, 4158
451.8525, 4152
451.855, 4122
451.8575, 4187
451.86, 4169
451.8625, 4170
451.865, 4181
451.8675, 4179
451.87, 4179
451.8725, 4148
451.875, 4187
451.8775, 4185
451.88, 4196
451.8825, 4189
451.885, 4228
451.8875, 4269
451.89, 4313
451.8925, 4391
451.895, 4434
451.8975, 4470
451.9, 4479
451.9025, 4413
451.905, 4251
451.9075, 3975
451.91, 3774
451.9125, 3450
451.915, 3177
451.9175, 2726
451.92, 2240
451.9225, 1820
451.925, 1562
451.9275, 1651
451.93, 1936
451.9325, 2562
451.935, 3577
451.9375, 4528
451.94, 4974
451.9425, 5063
451.945, 5074
451.9475, 4935
451.95, 4781
451.9525, 4666
451.955, 4608
451.9575, 4581
451.96, 4488
451.9625, 4511
451.965, 4520
451.9675, 4511
451.97, 4523
451.9725, 4525
451.975, 4539
451.9775, 4496
451.98, 4518
451.9825, 4505
451.985, 4499
451.9875, 4488
451.99, 4473
451.9925, 4448
451.995, 4420
451.9975, 4446
452.0, 4423
452.0025, 4403
452.005, 4390
452.0075, 4385
452.01, 4368
452.0125, 4322
452.015, 4345
452.0175, 4342
452.02, 4327
452.0225, 4351
452.025, 4354
452.0275, 4350
452.03, 4317
452.0325, 4340
452.035, 4335
452.0375, 4310
452.04, 4307
452.0425, 4308
452.045, 4306
452.0475, 4259
452.05, 4300
452.0525, 4310
452.055, 4274
452.0575, 4262
452.06, 4273
452.0625, 4252
452.065, 4218
452.0675, 4268
452.07, 4263
452.0725, 4245
452.075, 4247
452.0775, 4250
452.08, 4254
452.0825, 4171
452.085, 4242
452.0875, 4255
452.09, 4239
452.0925, 4249
452.095, 4243
452.0975, 4222
452.1, 4190
452.1025, 4237
452.105, 4224
452.1075, 4216
452.11, 4212
452.1125, 4201
452.115, 4195
452.1175, 4157
452.12, 4191
452.1225, 4206
452.125, 4179
452.1275, 4191
452.13, 4194
452.1325, 4190
452.135, 4124
452.1375, 4197
452.14, 4223
452.1425, 4199
452.145, 4200
452.1475, 4210
452.15, 4215
452.1525, 4158
452.155, 4201
452.1575, 4202
452.16, 4192
452.1625, 4205
452.165, 4203
452.1675, 4210
452.17, 4182
452.1725, 4193
452.175, 4199
452.1775, 4195
452.18, 4173
452.1825, 4201
452.185, 4195
452.1875, 4155
452.19, 4192
452.1925, 4204
452.195, 4194
452.1975, 4201
452.2, 4188
452.2025, 4184
452.205, 4136
452.2075, 4190
452.21, 4174
452.2125, 4156
452.215, 4136
452.2175, 4144
452.22, 4165
452.2225, 4134
452.225, 4149
452.2275, 4140
452.23, 4139
452.2325, 4151
452.235, 4186
452.2375, 4172
452.24, 4116
452.2425, 4175
452.245, 4182
452.2475, 4196
452.25, 4194
452.2525, 4189
452.255, 4185
452.2575, 4156
452.26, 4213
452.2625, 4201
452.265, 4216
452.2675, 4211
452.27, 4209
452.2725, 4222
452.275, 4178
452.2775, 4240
452.28, 4252
452.2825, 4262
452.285, 4242
452.2875, 4250
452.29, 4241
452.2925, 4197
452.295, 4244
452.2975, 4242
452.3, 4210
452.3025, 4227
452.305, 4249
452.3075, 4233
452.31, 4186
452.3125, 4251
452.315, 4263
452.3175, 4240
452.32, 4253
452.3225, 4228
452.325, 4223
452.3275, 4175
452.33, 4204
452.3325, 4208
452.335, 4207
452.3375, 4195
452.34, 4201
452.3425, 4205
452.345, 4177
452.3475, 4168
452.35, 4168
452.3525, 4170
452.355, 4164
452.3575, 4190
452.36, 4175
452.3625, 4139
452.365, 4184
452.3675, 4164
452.37, 4170
452.3725, 4172
452.375, 4167
452.3775, 4160
452.38, 4110
452.3825, 4156
452.385, 4162
452.3875, 4134
452.39, 4137
452.3925, 4149
452.395, 4168
452.3975, 4118
452.4, 4185
452.4025, 4192
452.405, 4172
452.4075, 4144
452.41, 4173
452.4125, 4162
452.415, 4102
452.4175, 4178
452.42, 4167
452.4225, 4170
452.425, 4164
452.4275, 4184
452.43, 4173
452.4325, 4134
452.435, 4181
452.4375, 4176
452.44, 4168
452.4425, 4185
452.445, 4169
452.4475, 4185
452.45, 4026
452.4525, 4171
452.455, 4162
452.4575, 4162
452.46, 4161
452.4625, 4183
452.465, 4169
452.4675, 4143
452.47, 4164
452.4725, 4166
452.475, 4152
452.4775, 4165
452.48, 4152
452.4825, 4151
452.485, 4118
452.4875, 4178
452.49, 4191
452.4925, 4167
452.495, 4171
452.4975, 4195
452.5, 4183
452.5025, 4133
452.505, 4210
452.5075, 4183
452.51, 4171
452.5125, 4163
452.515, 4173
452.5175, 4156
452.52, 4149
452.5225, 4160
452.525, 4172
452.5275, 4182
452.53, 4191
452.5325, 4192
452.535, 4186
452.5375, 4144
452.54, 4190
452.5425, 4189
452.545, 4176
452.5475, 4157
452.55, 4156
452.5525, 4168
452.555, 4115
452.5575, 4194
452.56, 4210
452.5625, 4184
452.565, 4174
452.5675, 4165
452.57, 4167
452.5725, 4119
452.575, 4186
452.5775, 4177
452.58, 4169
452.5825, 4165
452.585, 4170
452.5875, 4162
452.59, 4092
452.5925, 4166
452.595, 4157
452.5975, 4144
452.6, 4138
452.6025, 4161
452.605, 4167
452.6075, 4114
452.61, 4156
452.6125, 4163
452.615, 4157
452.6175, 4187
452.62, 4184
452.6225, 4163
452.625, 4128
452.6275, 4179
452.63, 4179
452.6325, 4158
452.635, 4163
452.6375, 4168
452.64, 4165
452.6425, 4143
452.645, 4161
452.6475, 4145
452.65, 4142
452.6525, 4144
452.655, 4140
452.6575, 4141
452.66, 4099
452.6625, 4168
452.665, 4153
452.6675, 4157
452.67, 4165
452.6725, 4153
452.675, 4146
452.6775, 4114
452.68, 4144
452.6825, 4165
452.685, 4161
452.6875, 4161
452.69, 4185
452.6925, 4164
452.695, 4107
452.6975, 4158
452.7, 4142
452.7025, 4138
452.705, 4182
452.7075, 4176
452.71, 4152
452.7125, 3995
452.715, 4176
452.7175, 4184
452.72, 4163
452.7225, 4161
452.725, 4181
452.7275, 4164
452.73, 4097
452.7325, 4172
452.735, 4154
452.7375, 4151
452.74, 4151
452.7425, 4140
452.745, 4151
452.7475, 4111
452.75, 4164
452.7525, 4150
452.755, 4160
452.7575, 4164
452.76, 4163
452.7625, 4169
452.765, 4098
452.7675, 4169
452.77, 4153
452.7725, 4172
452.775, 4164
452.7775, 4171
452.78, 4187
452.7825, 4126
452.785, 4196
452.7875, 4168
452.79, 4139
452.7925, 4149
452.795, 4165
452.7975, 4172
452.8, 4133
452.8025, 4174
452.805, 4163
452.8075, 4163
452.81, 4166
452.8125, 4187
452.815, 4181
452.8175, 4161
452.82, 4177
452.8225, 4167
452.825, 4150
452.8275, 4162
452.83, 4190
452.8325, 4163
452.835, 4127
452.8375, 4212
452.84, 4181
452.8425, 4171
452.845, 4158
452.8475, 4175
452.85, 4172
452.8525, 4121
452.855, 4175
452.8575, 4185
452.86, 4165
452.8625, 4174
452.865, 4190
452.8675, 4180
452.87, 4160
452.8725, 4178
452.875, 4163
452.8775, 4161
452.88, 4164
452.8825, 4167
452.885, 4142
452.8875, 4100
452.89, 4177
452.8925, 4162
452.895, 4167
452.8975, 4153
452.9, 4175
452.9025, 4177
452.905, 4124
452.9075, 4162
452.91, 4163
452.9125, 4148
452.915, 4152
452.9175, 4151
452.92, 4139
452.9225, 4102
452.925, 4151
452.9275, 4188
452.93, 4186
452.9325, 4185
452.935, 4182
452.9375, 4167
452.94, 4134
452.9425, 4188
452.945, 4172
452.9475, 4151
452.95, 4162
452.9525, 4188
452.955, 4170
452.9575, 4083
452.96, 4134
452.9625, 4132
452.965, 4098
452.9675, 4098
452.97, 4131
452.9725, 4145
452.975, 4130
452.9775, 4191
452.98, 4178
452.9825, 4164
452.985, 4149
452.9875, 4170
452.99, 4172
452.9925, 4140
452.995, 4217
452.9975, 4225
453.0, 4190
453.0025, 4204
453.005, 4188
453.0075, 4165
453.01, 4125
453.0125, 4178
453.015, 4168
453.0175, 4178
453.02, 4195
453.0225, 4203
453.025, 4189
453.0275, 4138
453.03, 4175
453.0325, 4182
453.035, 4184
453.0375, 4173
453.04, 4179
453.0425, 4183
453.045, 4132
453.0475, 4142
453.05, 4145
453.0525, 4167
453.055, 4177
453.0575, 4226
453.06, 4296
453.0625, 4360
453.065, 4438
453.0675, 4478
453.07, 4478
453.0725, 4490
453.075, 4393
453.0775, 4212
453.08, 3916
453.0825, 3666
453.085, 3312
453.0875, 2905
453.09, 2474
453.0925, 1929
453.095, 1625
453.0975, 1424
453.1, 1653
453.1025, 2175
453.105, 3059
453.1075, 3985
453.11, 4588
453.1125, 4899
453.115, 4888
453.1175, 4832
453.12, 4670
453.1225, 4563
453.125, 4533
453.1275, 4549
453.13, 4543
453.1325, 4476
453.135, 4526
453.1375, 4525
453.14, 4533
453.1425, 4540
453.145, 4538
453.1475, 4511
453.15, 4469
453.1525, 4513
453.155, 4486
453.1575, 4504
453.16, 4483
453.1625, 4470
453.165, 4457
453.1675, 4399
453.17, 4420
453.1725, 4414
453.175, 4416
453.1775, 4425
453.18, 4413
453.1825, 4399
453.185, 4322
453.1875, 4347
453.19, 4345
453.1925, 4331
453.195, 4350
453.1975, 4353
453.2, 4333
453.2025, 4280
453.205, 4334
453.2075, 4322
453.21, 4291
453.2125, 4276
453.215, 4295
453.2175, 4278
453.22, 4267
453.2225, 4282
453.225, 4277
453.2275, 4270
453.23, 4238
453.2325, 4250
453.235, 4223
453.2375, 4203
453.24, 4256
453.2425, 4238
453.245, 4224
453.2475, 4215
453.25, 4221
453.2525, 4194
453.255, 4167
453.2575, 4226
453.26, 4232
453.2625, 4207
453.265, 4233
453.2675, 4230
453.27, 4221
453.2725, 4158
453.275, 4201
453.2775, 4202
453.28, 4197
453.2825, 4187
453.285, 4222
453.2875, 4205
453.29, 4157
453.2925, 4214
453.295, 4199
453.2975, 4210
453.3, 4196
453.3025, 4201
453.305, 4200
453.3075, 4149
453.31, 4215
453.3125, 4217
453.315, 4208
453.3175, 4204
453.32, 4218
453.3225, 4183
453.325, 4119
453.3275, 4170
453.33, 4169
453.3325, 4188
453.335, 4185
453.3375, 4192
453.34, 4188
453.3425, 4174
453.345, 4195
453.3475, 4169
453.35, 4159
453.3525, 4176
453.355, 4192
453.3575, 4197
453.36, 4129
453.3625, 4186
453.365, 4183
453.3675, 4165
453.37, 4183
453.3725, 4196
453.375, 4154
453.3775, 4091
453.38, 4137
453.3825, 4131
453.385, 4097
453.3875, 4081
453.39, 4107
453.3925, 4076
453.395, 4044
453.3975, 4117
453.4, 4123
453.4025, 4123
453.405, 4123
453.4075, 4127
453.41, 4136
453.4125, 4105
453.415, 4169
453.4175, 4176
453.42, 4167
453.4225, 4172
453.425, 4205
453.4275, 4186
453.43, 4134
453.4325, 4199
453.435, 4204
453.4375, 4208
453.44, 4239
453.4425, 4242
453.445, 4227
453.4475, 4186
453.45, 4262
453.4525, 4244
453.455, 4244
453.4575, 4211
453.46, 4228
453.4625, 4243
453.465, 4167
453.4675, 4218
453.47, 4207
453.4725, 4217
453.475, 4226
453.4775, 4242
453.48, 4206
453.4825, 4132
453.485, 4189
453.4875, 4178
453.49, 4192
453.4925, 4207
453.495, 4215
453.4975, 4215
453.5, 4159
453.5025, 4225
453.505, 4214
453.5075, 4190
453.51, 4207
453.5125, 4200
453.515, 4198
453.5175, 4132
453.52, 4199
453.5225, 4201
453.525, 4179
453.5275, 4186
453.53, 4189
453.5325, 4191
453.535, 4148
453.5375, 4226
453.54, 4210
453.5425, 4211
453.545, 4190
453.5475, 4213
453.55, 4217
453.5525, 4163
453.555, 4214
453.5575, 4216
453.56, 4197
453.5625, 4210
453.565, 4223
453.5675, 4204
453.57, 4161
453.5725, 4205
453.575, 4210
453.5775, 4206
453.58, 4208
453.5825, 4203
453.585, 4186
453.5875, 4151
453.59, 4211
453.5925, 4194
453.595, 4169
453.5975, 4153
453.6, 4194
453.6025, 4191
453.605, 4135
453.6075, 4191
453.61, 4198
453.6125, 4176
453.615, 4181
453.6175, 4187
453.62, 4184
453.6225, 4129
453.625, 4215
453.6275, 4208
453.63, 4203
453.6325, 4205
453.635, 4205
453.6375, 4212
453.64, 4163
453.6425, 4188
453.645, 4171
453.6475, 4164
453.65, 4193
453.6525, 4185
453.655, 4199
453.6575, 4156
453.66, 4221
453.6625, 4213
453.665, 4191
453.6675, 4197
453.67, 4204
453.6725, 4193
453.675, 4142
453.6775, 4195
453.68, 4196
453.6825, 4189
453.685, 4166
453.6875, 4186
453.69, 4166
453.6925, 4126
453.695, 4206
453.6975, 4194
453.7, 4159
453.7025, 4148
453.705, 4153
453.7075, 4154
453.71, 4099
453.7125, 4152
453.715, 4142
453.7175, 4150
453.72, 4175
453.7225, 4175
453.725, 4177
453.7275, 4134
453.73, 4157
453.7325, 4156
453.735, 4158
453.7375, 4156
453.74, 4189
453.7425, 4176
453.745, 4144
453.7475, 4170
453.75, 4177
453.7525, 4196
453.755, 4187
453.7575, 4188
453.76, 4172
453.7625, 4117
453.765, 4197
453.7675, 4185
453.77, 4175
453.7725, 4177
453.775, 4186
453.7775, 4167
453.78, 4119
453.7825, 4157
453.785, 4167
453.7875, 4153
453.79, 4147
453.7925, 4168
453.795, 4169
453.7975, 4129
453.8, 4211
453.8025, 4188
453.805, 4174
453.8075, 4167
453.81, 4186
453.8125, 4198
453.815, 4134
453.8175, 4169
453.82, 4172
453.8225, 4171
453.825, 4170
453.8275, 4173
453.83, 4157
453.8325, 3961
453.835, 4151
453.8375, 4178
453.84, 4170
453.8425, 4177
453.845, 4178
453.8475, 4179
453.85, 4103
453.8525, 4153
453.855, 4156
453.8575, 4145
453.86, 4121
453.8625, 4149
453.865, 4156
453.8675, 4148
453.87, 4157
453.8725, 4170
453.875, 4199
453.8775, 4187
453.88, 4172
453.8825, 4156
453.885, 4121
453.8875, 4166
453.89, 4170
453.8925, 4179
453.895, 4154
453.8975, 4180
453.9, 4175
453.9025, 4123
453.905, 4166
453.9075, 4162
453.91, 4155
453.9125, 4168
453.915, 4168
453.9175, 4171
453.92, 4163
453.9225, 4187
453.925, 4186
453.9275, 4171
453.93, 4161
453.9325, 4183
453.935, 4186
453.9375, 4116
453.94, 4178
453.9425, 4178
453.945, 4189
453.9475, 4167
453.95, 4189
453.9525, 4166
453.955, 4113
453.9575, 4190
453.96, 4180
453.9625, 4150
453.965, 4139
453.9675, 4146
453.97, 4141
453.9725, 4100
453.975, 4156
453.9775, 4138
453.98, 4123
453.9825, 4103
453.985, 4084
453.9875, 4073
453.99, 3999
453.9925, 4067
453.995, 4097
453.9975, 4098
454.0, 4146
454.0025, 4161
454.005, 4173
454.0075, 4117
454.01, 4169
454.0125, 4181
454.015, 4170
454.0175, 4181
454.02, 4199
454.0225, 4199
454.025, 4151
454.0275, 4211
454.03, 4197
454.0325, 4199
454.035, 4218
454.0375, 4234
454.04, 4212
454.0425, 4177
454.045, 4210
454.0475, 4193
454.05, 4189
454.0525, 4191
454.055, 4205
454.0575, 4204
454.06, 4117
454.0625, 4170
454.065, 4151
454.0675, 4190
454.07, 4176
454.0725, 4194
454.075, 4198
454.0775, 4136
454.08, 4197
454.0825, 4206
454.085, 4289
454.0875, 4378
454.09, 4394
454.0925, 4395
454.095, 4390
454.0975, 4460
454.1, 4362
454.1025, 4146
454.105, 3906
454.1075, 3667
454.11, 3318
454.1125, 3001
454.115, 2662
454.1175, 2122
454.12, 1827
454.1225, 1648
454.125, 1761
454.1275, 2100
454.13, 2748
454.1325, 3796
454.135, 4695
454.1375, 5035
454.14, 5111
454.1425, 5079
454.145, 4917
454.1475, 4736
454.15, 4681
454.1525, 4600
454.155, 4575
454.1575, 4518
454.16, 4502
454.1625, 4515
454.165, 4462
454.1675, 4543
454.17, 4530
454.1725, 4512
454.175, 4515
454.1775, 4503
454.18, 4485
454.1825, 4411
454.185, 4456
454.1875, 4445
454.19, 4424
454.1925, 4424
454.195, 4429
454.1975, 4395
454.2, 4345
454.2025, 4365
454.205, 4356
454.2075, 4354
454.21, 4329
454.2125, 4321
454.215, 4311
454.2175, 4271
454.22, 4311
454.2225, 4305
454.225, 4298
454.2275, 4315
454.23, 4308
454.2325, 4307
454.235, 4245
454.2375, 4304
454.24, 4304
454.2425, 4297
454.245, 4284
454.2475, 4266
454.25, 4259
454.2525, 4204
454.255, 4269
454.2575, 4259
454.26, 4250
454.2625, 4244
454.265, 4243
454.2675, 4239
454.27, 4161
454.2725, 4224
454.275, 4210
454.2775, 4208
454.28, 4210
454.2825, 4226
454.285, 4214
454.2875, 4176
454.29, 4222
454.2925, 4201
454.295, 4191
454.2975, 4203
454.3, 4201
454.3025, 4205
454.305, 4177
454.3075, 4222
454.31, 4185
454.3125, 4196
454.315, 4183
454.3175, 4195
454.32, 4201
454.3225, 4138
454.325, 4198
454.3275, 4201
454.33, 4190
454.3325, 4187
454.335, 4214
454.3375, 4202
454.34, 4175
454.3425, 4203
454.345, 4173
454.3475, 4181
454.35, 4192
454.3525, 4214
454.355, 4198
454.3575, 4136
454.36, 4195
454.3625, 4192
454.365, 4183
454.3675, 4195
454.37, 4186
454.3725, 4170
454.375, 4119
454.3775, 4177
454.38, 4172
454.3825, 4168
454.385, 4173
454.3875, 4178
454.39, 4176
454.3925, 4137
454.395, 4195
454.3975, 4183
454.4, 4168
454.4025, 4180
454.405, 4169
454.4075, 4167
454.41, 4108
454.4125, 4174
454.415, 4153
454.4175, 4136
454.42, 4140
454.4225, 4172
454.425, 4166
454.4275, 4142
454.43, 4191
454.4325, 4192
454.435, 4205
454.4375, 4206
454.44, 4248
454.4425, 4218
454.445, 4198
454.4475, 4252
454.45, 4248
454.4525, 4247
454.455, 4255
454.4575, 4243
454.46, 4232
454.4625, 4185
454.465, 4228
454.4675, 4244
454.47, 4239
454.4725, 4255
454.475, 4274
454.4775, 4257
454.48, 4234
454.4825, 4267
454.485, 4261
454.4875, 4247
454.49, 4257
454.4925, 4260
454.495, 4253
454.4975, 4198
454.5, 4268
454.5025, 4248
454.505, 4257
454.5075, 4265
454.51, 4241
454.5125, 4209
454.515, 4222
454.5175, 4222
454.52, 4241
454.5225, 4206
454.525, 4193
454.5275, 4222
454.53, 4214
454.5325, 4161
454.535, 4207
454.5375, 4185
454.54, 4185
454.5425, 4188
454.545, 4208
454.5475, 4196
454.55, 4144
454.5525, 4210
454.555, 4172
454.5575, 4163
454.56, 4172
454.5625, 4166
454.565, 4175
454.5675, 4149
454.57, 4174
454.5725, 4144
454.575, 4151
454.5775, 4153
454.58, 4171
454.5825, 4175
454.585, 4167
454.5875, 4168
454.59, 4164
454.5925, 4173
454.595, 4159
454.5975, 4178
454.6, 4181
454.6025, 4141
454.605, 4174
454.6075, 4193
454.61, 4170
454.6125, 4161
454.615, 4172
454.6175, 4173
454.62, 4134
454.6225, 4192
454.625, 4179
454.6275, 4170
454.63, 4164
454.6325, 4170
454.635, 4170
454.6375, 4120
454.64, 4175
454.6425, 4201
454.645, 4165
454.6475, 4182
454.65, 4183
454.6525, 4198
454.655, 4150
454.6575, 4199
454.66, 4199
454.6625, 4190
454.665, 4200
454.6675, 4195
454.67, 4195
454.6725, 4127
454.675, 4210
454.6775, 4208
454.68, 4204
454.6825, 4211
454.685, 4213
454.6875, 4202
454.69, 4175
454.6925, 4192
454.695, 4197
454.6975, 4176
454.7, 4177
454.7025, 4189
454.705, 4186
454.7075, 4117
454.71, 4175
454.7125, 4183
454.715, 4192
454.7175, 4184
454.72, 4180
454.7225, 4159
454.725, 4108
454.7275, 4153
454.73, 4152
454.7325, 4127
454.735, 4118
454.7375, 4123
454.74, 4126
454.7425, 4076
454.745, 4157
454.7475, 4150
454.75, 4141
454.7525, 4127
454.755, 4126
454.7575, 4131
454.76, 4085
454.7625, 4159
454.765, 4140
454.7675, 4133
454.77, 4136
454.7725, 4145
454.775, 4125
454.7775, 4079
454.78, 4145
454.7825, 4138
454.785, 4141
454.7875, 4139
454.79, 4128
454.7925, 4129
454.795, 4097
454.7975, 4151
454.8, 4170
454.8025, 4162
454.805, 4144
454.8075, 4161
454.81, 4163
454.8125, 4122
454.815, 4162
454.8175, 4152
454.82, 4155
454.8225, 4156
454.825, 4164
454.8275, 4163
454.83, 4106
454.8325, 4152
454.835, 4160
454.8375, 4176
454.84, 4170
454.8425, 4155
454.845, 4156
454.8475, 4102
454.85, 4150
454.8525, 4125
454.855, 4132
454.8575, 4141
454.86, 4148
454.8625, 4161
454.865, 4104
454.8675, 4148
454.87, 4168
454.8725, 4161
454.875, 4149
454.8775, 4131
454.88, 4128
454.8825, 4089
454.885, 4146
454.8875, 4157
454.89, 4157
454.8925, 4138
454.895, 4188
454.8975, 4157
454.9, 4107
454.9025, 4159
454.905, 4152
454.9075, 4166
454.91, 4173
454.9125, 4175
454.915, 4183
454.9175, 4097
454.92, 4147
454.9225, 4144
454.925, 4118
454.9275, 4153
454.93, 4155
454.9325, 4159
454.935, 4123
454.9375, 4168
454.94, 4164
454.9425, 4158
454.945, 4150
454.9475, 4157
454.95, 4148
454.9525, 4122
454.955, 4154
454.9575, 4143
454.96, 4141
454.9625, 4132
454.965, 4142
454.9675, 4156
454.97, 4097
454.9725, 4168
454.975, 4150
454.9775, 4155
454.98, 4147
454.9825, 4121
454.985, 4130
454.9875, 4085
454.99, 4143
454.9925, 4134
454.995, 4133
454.9975, 4143
455.0, 4169
455.0025, 4168
455.005, 4117
455.0075, 4173
455.01, 4166
455.0125, 4176
455.015, 4167
455.0175, 4163
455.02, 4161
455.0225, 4115
455.025, 4168
455.0275, 4167
455.03, 4158
455.0325, 4151
455.035, 4164
455.0375, 4141
455.04, 4115
455.0425, 4152
455.045, 4163
455.0475, 4162
455.05, 4168
455.0525, 4155
455.055, 4168
455.0575, 4141
455.06, 4191
455.0625, 4177
455.065, 4167
455.0675, 4178
455.07, 4151
455.0725, 4122
455.075, 4063
455.0775, 4093
455.08, 4057
455.0825, 4064
455.085, 4085
455.0875, 4097
455.09, 4126
455.0925, 4108
455.095, 4186
455.0975, 4162
455.1, 4147
455.1025, 4187
455.105, 4209
455.1075, 4195
455.11, 4159
455.1125, 4204
455.115, 4191
455.1175, 4173
455.12, 4177
455.1225, 4162
455.125, 4171
455.1275, 4024
455.13, 4194
455.1325, 4181
455.135, 4182
455.1375, 4175
455.14, 4186
455.1425, 4169
455.145, 4121
455.1475, 4159
455.15, 4138
455.1525, 4164
455.155, 4186
455.1575, 4190
455.16, 4191
455.1625, 4164
455.165, 4188
455.1675, 4190
455.17, 4178
455.1725, 4217
455.175, 4248
455.1775, 4326
455.18, 4337
455.1825, 4431
455.185, 4471
455.1875, 4501
455.19, 4506
455.1925, 4424
455.195, 4222
455.1975, 3961
455.2, 3701
455.2025, 3340
455.205, 2931
455.2075, 2490
455.21, 1931
455.2125, 1614
455.215, 1556
455.2175, 1675
455.22, 2212
455.2225, 3123
455.225, 4057
455.2275, 4687
455.23, 4979
455.2325, 4965
455.235, 4883
455.2375, 4736
455.24, 4616
455.2425, 4573
455.245, 4579
455.2475, 4538
455.25, 4463
455.2525, 4510
455.255, 4542
455.2575, 4562
455.26, 4562
455.2625, 4536
455.265, 4512
455.2675, 4456
455.27, 4501
455.2725, 4492
455.275, 4518
455.2775, 4497
455.28, 4483
455.2825, 4463
455.285, 4412
455.2875, 4466
455.29, 4460
455.2925, 4456
455.295, 4457
455.2975, 4438
455.3, 4415
455.3025, 4350
455.305, 4407
455.3075, 4382
455.31, 4397
455.3125, 4392
455.315, 4383
455.3175, 4382
455.32, 4296
455.3225, 4357
455.325, 4332
455.3275, 4315
455.33, 4335
455.3325, 4307
455.335, 4313
455.3375, 4266
455.34, 4320
455.3425, 4296
455.345, 4297
455.3475, 4296
455.35, 4275
455.3525, 4275
455.355, 4227
455.3575, 4284
455.36, 4273
455.3625, 4257
455.365, 4263
455.3675, 4274
455.37, 4243
455.3725, 4187
455.375, 4256
455.3775, 4247
455.38, 4227
455.3825, 4244
455.385, 4231
455.3875, 4227
455.39, 4203
455.3925, 4223
455.395, 4228
455.3975, 4230
455.4, 4201
455.4025, 4204
455.405, 4185
455.4075, 4148
455.41, 4191
455.4125, 4197
455.415, 4192
455.4175, 4222
455.42, 4239
455.4225, 4228
455.425, 4162
455.4275, 4225
455.43, 4210
455.4325, 4201
455.435, 4197
455.4375, 4202
455.44, 4200
455.4425, 4149
455.445, 4226
455.4475, 4213
455.45, 4185
455.4525, 4187
455.455, 4195
455.4575, 4186
455.46, 4138
455.4625, 4189
455.465, 4196
455.4675, 4176
455.47, 4179
455.4725, 4188
455.475, 4166
455.4775, 4014
455.48, 4176
455.4825, 4170
455.485, 4169
455.4875, 4149
455.49, 4132
455.4925, 4123
455.495, 4094
455.4975, 4131
455.5, 4125
455.5025, 4118
455.505, 4102
455.5075, 4080
455.51, 4080
455.5125, 4038
455.515, 4065
455.5175, 4063
455.52, 4109
455.5225, 4094
455.525, 4096
455.5275, 4107
455.53, 4060
455.5325, 4149
455.535, 4151
455.5375, 4140
455.54, 4143
455.5425, 4160
455.545, 4152
455.5475, 4120
455.55, 4169
455.5525, 4166
455.555, 4200
455.5575, 4207
455.56, 4212
455.5625, 4202
455.565, 4135
455.5675, 4219
455.57, 4194
455.5725, 4199
455.575, 4189
455.5775, 4189
455.58, 4215
455.5825, 4159
455.585, 4205
455.5875, 4190
455.59, 4177
455.5925, 4169
455.595, 4192
455.5975, 4199
455.6, 4155
455.6025, 4203
455.605, 4186
455.6075, 4174
455.61, 4208
455.6125, 4200
455.615, 4188
455.6175, 4133
455.62, 4218
455.6225, 4207
455.625, 4191
455.6275, 4203
455.63, 4176
455.6325, 4174
455.635, 4133
455.6375, 4162
455.64, 4163
455.6425, 4171
455.645, 4164
455.6475, 4179
455.65, 4181
455.6525, 4110
455.655, 4160
455.6575, 4129
455.66, 4140
455.6625, 4158
455.665, 4140
455.6675, 4137
455.67, 4113
455.6725, 4167
455.675, 4163
455.6775, 4149
455.68, 4159
455.6825, 4188
455.685, 4175
455.6875, 4161
455.69, 4174
455.6925, 4189
455.695, 4183
455.6975, 4181
455.7, 4175
455.7025, 4165
455.705, 4119
455.7075, 4161
455.71, 4152
455.7125, 4157
455.715, 4165
455.7175, 4180
455.72, 4187
455.7225, 4127
455.725, 4198
455.7275, 4181
455.73, 4175
455.7325, 4194
455.735, 4194
455.7375, 4197
455.74, 4126
455.7425, 4182
455.745, 4176
455.7475, 4159
455.75, 4165
455.7525, 4169
455.755, 4193
455.7575, 4187
455.76, 4222
455.7625, 4187
455.765, 4191
455.7675, 4150
455.77, 4149
455.7725, 4139
455.775, 4118
455.7775, 4162
455.78, 4174
455.7825, 4160
455.785, 4190
455.7875, 4173
455.79, 4164
455.7925, 4130
455.795, 4184
455.7975, 4161
455.8, 4165
455.8025, 4183
455.805, 4207
455.8075, 4197
455.81, 4169
455.8125, 4189
455.815, 4188
455.8175, 4177
455.82, 4188
455.8225, 4194
455.825, 4173
455.8275, 4024
455.83, 4183
455.8325, 4177
455.835, 4179
455.8375, 4202
455.84, 4213
455.8425, 4198
455.845, 4156
455.8475, 4203
455.85, 4212
455.8525, 4197
455.855, 4178
455.8575, 4186
455.86, 4191
455.8625, 4141
455.865, 4210
455.8675, 4184
455.87, 4179
455.8725, 4180
455.875, 4169
455.8775, 4140
455.88, 4043
455.8825, 4191
455.885, 4185
455.8875, 4191
455.89, 4175
455.8925, 4179
455.895, 4180
455.8975, 4131
455.9, 4193
455.9025, 4167
455.905, 4173
455.9075, 4161
455.91, 4171
455.9125, 4170
455.915, 4136
455.9175, 4162
455.92, 4168
455.9225, 4172
455.925, 4145
455.9275, 4162
455.93, 4155
455.9325, 4095
455.935, 4161
455.9375, 4175
455.94, 4158
455.9425, 4169
455.945, 4180
455.9475, 4192
455.95, 4148
455.9525, 4194
455.955, 4187
455.9575, 4187
455.96, 4196
455.9625, 4172
455.965, 4161
455.9675, 4125
455.97, 4185
455.9725, 4169
455.975, 4173
455.9775, 4180
455.98, 4189
455.9825, 4175
455.985, 4153
455.9875, 4191
455.99, 4180
455.9925, 4177
455.995, 4185
455.9975, 4175
456.0, 4177
456.0025, 4128
456.005, 4165
456.0075, 4157
456.01, 4165
456.0125, 4186
456.015, 4171
456.0175, 4149
456.02, 4104
456.0225, 4187
456.025, 4161
456.0275, 4180
456.03, 4184
456.0325, 4205
456.035, 4205
456.0375, 4136
456.04, 4192
456.0425, 4186
456.045, 4194
456.0475, 4188
456.05, 4184
456.0525, 4179
456.055, 4135
456.0575, 4200
456.06, 4191
456.0625, 4185
456.065, 4157
456.0675, 4189
456.07, 4171
456.0725, 4130
456.075, 4203
456.0775, 4204
456.08, 4191
456.0825, 4183
456.085, 4207
456.0875, 4193
456.09, 4130
456.0925, 4170
456.095, 4180
456.0975, 4180
456.1, 4193
456.1025, 4200
456.105, 4189
456.1075, 4162
456.11, 4175
456.1125, 4167
456.115, 4159
456.1175, 4179
456.12, 4187
456.1225, 4182
456.125, 4141
456.1275, 4187
456.13, 4207
456.1325, 4184
456.135, 4198
456.1375, 4184
456.14, 4180
456.1425, 4140
456.145, 4165
456.1475, 4155
456.15, 4162
456.1525, 4170
456.155, 4169
456.1575, 4147
456.16, 4155
456.1625, 4177
456.165, 4165
456.1675, 4175
456.17, 4188
456.1725, 4185
456.175, 4178
456.1775, 4015
456.18, 4195
456.1825, 4188
456.185, 4164
456.1875, 4195
456.19, 4186
456.1925, 4211
456.195, 4155
456.1975, 4192
456.2, 4179
456.2025, 4178
456.205, 4181
456.2075, 4196
456.21, 4173
456.2125, 4135
456.215, 4200
456.2175, 4211
456.22, 4210
456.2225, 4215
456.225, 4217
456.2275, 4198
456.23, 4149
456.2325, 4121
456.235, 4089
456.2375, 4077
456.24, 4087
456.2425, 4148
456.245, 4146
456.2475, 4115
456.25, 4182
456.2525, 4180
456.255, 4188
456.2575, 4196
456.26, 4196
456.2625, 4205
456.265, 4145
456.2675, 4202
456.27, 4225
456.2725, 4214
456.275, 4212
456.2775, 4196
456.28, 4191
456.2825, 4139
456.285, 4171
456.2875, 4168
456.29, 4171
456.2925, 4201
456.295, 4197
456.2975, 4207
456.3, 4157
456.3025, 4206
456.305, 4218
456.3075, 4215
456.31, 4195
456.3125, 4202
456.315, 4198
456.3175, 4164
456.32, 4210
456.3225, 4196
456.325, 4203
456.3275, 4210
456.33, 4224
456.3325, 4257
456.335, 4340
456.3375, 4402
456.34, 4424
456.3425, 4474
456.345, 4491
456.3475, 4423
456.35, 4273
456.3525, 3998
456.355, 3830
456.3575, 3498
456.36, 3217
456.3625, 2800
456.365, 2326
456.3675, 1915
456.37, 1702
456.3725, 1703
456.375, 1977
456.3775, 2514
456.38, 3421
456.3825, 4438
456.385, 4943
456.3875, 5040
456.39, 5103
456.3925, 4982
456.395, 4834
456.3975, 4707
456.4, 4626
456.4025, 4590
456.405, 4465
456.4075, 4483
456.41, 4462
456.4125, 4467
456.415, 4478
456.4175, 4495
456.42, 4484
456.4225, 4414
456.425, 4465
456.4275, 4450
456.43, 4426
456.4325, 4401
456.435, 4399
456.4375, 4382
456.44, 4307
456.4425, 4370
456.445, 4375
456.4475, 4374
456.45, 4372
456.4525, 4374
456.455, 4353
456.4575, 4340
456.46, 4341
456.4625, 4342
456.465, 4295
456.4675, 4304
456.47, 4295
456.4725, 4284
456.475, 4249
456.4775, 4287
456.48, 4301
456.4825, 4284
456.485, 4264
456.4875, 4284
456.49, 4259
456.4925, 4201
456.495, 4264
456.4975, 4245
456.5, 4253
456.5025, 4251
456.505, 4259
456.5075, 4245
456.51, 4203
456.5125, 4246
456.515, 4236
456.5175, 4220
456.52, 4204
456.5225, 4206
456.525, 4222
456.5275, 4169
456.53, 4230
456.5325, 4199
456.535, 4205
456.5375, 4196
456.54, 4197
456.5425, 4191
456.545, 4137
456.5475, 4180
456.55, 4167
456.5525, 4163
456.555, 4180
456.5575, 4191
456.56, 4161
456.5625, 4132
456.565, 4185
456.5675, 4175
456.57, 4164
456.5725, 4172
456.575, 4161
456.5775, 4170
456.58, 4111
456.5825, 4182
456.585, 4177
456.5875, 4160
456.59, 4165
456.5925, 4161
456.595, 4175
456.5975, 4141
456.6, 4182
456.6025, 4173
456.605, 4165
456.6075, 4174
456.61, 4183
456.6125, 4196
456.615, 4119
456.6175, 4181
456.62, 4186
456.6225, 4177
456.625, 4165
456.6275, 4177
456.63, 4163
456.6325, 4133
456.635, 4156
456.6375, 4175
456.64, 4177
456.6425, 4182
456.645, 4195
456.6475, 4176
456.65, 4100
456.6525, 4164
456.655, 4155
456.6575, 4153
456.66, 4165
456.6625, 4161
456.665, 4153
456.6675, 4105
456.67, 4156
456.6725, 4170
456.675, 4152
456.6775, 4168
456.68, 4221
456.6825, 4225
456.685, 4190
456.6875, 4239
456.69, 4211
456.6925, 4215
456.695, 4219
456.6975, 4242
456.7, 4258
456.7025, 4200
456.705, 4256
456.7075, 4265
456.71, 4266
456.7125, 4273
456.715, 4268
456.7175, 4257
456.72, 4227
456.7225, 4275
456.725, 4257
456.7275, 4260
456.73, 4264
456.7325, 4249
456.735, 4239
456.7375, 4179
456.74, 4252
456.7425, 4252
456.745, 4234
456.7475, 4236
456.75, 4291
456.7525, 4264
456.755, 4196
456.7575, 4233
456.76, 4238
456.7625, 4226
456.765, 4235
456.7675, 4226
456.77, 4230
456.7725, 4170
456.775, 4242
456.7775, 4235
456.78, 4228
456.7825, 4224
456.785, 4227
456.7875, 4228
456.79, 4165
456.7925, 4216
456.795, 4219
456.7975, 4226
456.8, 4211
456.8025, 4216
456.805, 4217
456.8075, 4165
456.81, 4198
456.8125, 4181
456.815, 4199
456.8175, 4175
456.82, 4183
456.8225, 4173
456.825, 4014
456.8275, 4188
456.83, 4210
456.8325, 4194
456.835, 4196
456.8375, 4200
456.84, 4201
456.8425, 4150
456.845, 4214
456.8475, 4196
456.85, 4172
456.8525, 4188
456.855, 4213
456.8575, 4187
456.86, 4132
456.8625, 4187
456.865, 4189
456.8675, 4185
456.87, 4162
456.8725, 4190
456.875, 4170
456.8775, 4129
456.88, 4191
456.8825, 4197
456.885, 4202
456.8875, 4187
456.89, 4180
456.8925, 4169
456.895, 4034
456.8975, 4195
456.9, 4183
456.9025, 4170
456.905, 4179
456.9075, 4214
456.91, 4206
456.9125, 4036
456.915, 4218
456.9175, 4220
456.92, 4203
456.9225, 4224
456.925, 4218
456.9275, 4192
456.93, 4129
456.9325, 4174
456.935, 4189
456.9375, 4198
456.94, 4187
456.9425, 4189
456.945, 4182
456.9475, 4176
456.95, 4173
456.9525, 4172
456.955, 4171
456.9575, 4159
456.96, 4188
456.9625, 4181
456.965, 4143
456.9675, 4191
456.97, 4168
456.9725, 4171
456.975, 4173
456.9775, 4154
456.98, 4173
456.9825, 4128
456.985, 4144
456.9875, 4158
456.99, 4134
456.9925, 4148
456.995, 4141
456.9975, 4154
457.0, 4114
457.0025, 4145
457.005, 4143
457.0075, 4153
457.01, 4146
457.0125, 4160
457.015, 4171
457.0175, 4117
457.02, 4166
457.0225, 4155
457.025, 4181
457.0275, 4175
457.03, 4176
457.0325, 4183
457.035, 4109
457.0375, 4166
457.04, 4169
457.0425, 4142
457.045, 4164
457.0475, 4173
457.05, 4161
457.0525, 4097
457.055, 4178
457.0575, 4192
457.06, 4187
457.0625, 4180
457.065, 4169
457.0675, 4158
457.07, 4111
457.0725, 4176
457.075, 4153
457.0775, 4147
457.08, 4179
457.0825, 4181
457.085, 4185
457.0875, 4137
457.09, 4160
457.0925, 4167
457.095, 4150
457.0975, 4163
457.1, 4144
457.1025, 4144
457.105, 4126
457.1075, 4161
457.11, 4159
457.1125, 4166
457.115, 4162
457.1175, 4177
457.12, 4176
457.1225, 4102
457.125, 4160
457.1275, 4153
457.13, 4159
457.1325, 4143
457.135, 4166
457.1375, 4156
457.14, 4102
457.1425, 4166
457.145, 4159
457.1475, 4137
457.15, 4140
457.1525, 4132
457.155, 4126
457.1575, 4071
457.16, 4137
457.1625, 4119
457.165, 4137
457.1675, 4165
457.17, 4165
457.1725, 4142
457.175, 4095
457.1775, 4160
457.18, 4159
457.1825, 4129
457.185, 4156
457.1875, 4155
457.19, 4149
457.1925, 4110
457.195, 4166
457.1975, 4164
457.2, 4165
457.2025, 4157
457.205, 4166
457.2075, 4150
457.21, 3996
457.2125, 4163
457.215, 4144
457.2175, 4145
457.22, 4157
457.2225, 4151
457.225, 4130
457.2275, 4113
457.23, 4149
457.2325, 4157
457.235, 4162
457.2375, 4151
457.24, 4187
457.2425, 4191
457.245, 4142
457.2475, 4197
457.25, 4202
457.2525, 4177
457.255, 4166
457.2575, 4180
457.26, 4175
457.2625, 4022
457.265, 4191
457.2675, 4195
457.27, 4171
457.2725, 4170
457.275, 4156
457.2775, 4192
457.28, 4144
457.2825, 4168
457.285, 4180
457.2875, 4178
457.29, 4160
457.2925, 4156
457.295, 4150
457.2975, 4108
457.3, 4165
457.3025, 4164
457.305, 4150
457.3075, 4161
457.31, 4178
457.3125, 4166
457.315, 4132
457.3175, 4178
457.32, 4178
457.3225, 4185
457.325, 4173
457.3275, 4169
457.33, 4169
457.3325, 4110
457.335, 4172
457.3375, 4151
457.34, 4164
457.3425, 4158
457.345, 4169
457.3475, 4162
457.35, 4105
457.3525, 4168
457.355, 4182
457.3575, 4185
457.36, 4160
457.3625, 4135
457.365, 4086
457.3675, 4018
457.37, 4070
457.3725, 4091
457.375, 4083
457.3775, 4097
457.38, 4126
457.3825, 4127
457.385, 4076
457.3875, 4148
457.39, 4162
457.3925, 4154
457.395, 4175
457.3975, 4179
457.4, 4177
457.4025, 4182
457.405, 4189
457.4075, 4203
457.41, 4205
457.4125, 4202
457.415, 4196
457.4175, 4187
457.42, 4107
457.4225, 4159
457.425, 4179
457.4275, 4168
457.43, 4153
457.4325, 4173
457.435, 4162
457.4375, 4105
457.44, 4157
457.4425, 4168
457.445, 4158
457.4475, 4169
457.45, 4156
457.4525, 4136
457.455, 4132
457.4575, 4152
457.46, 4176
457.4625, 4183
457.465, 4192
457.4675, 4226
457.47, 4288
457.4725, 4312
457.475, 4413
457.4775, 4443
457.48, 4463
457.4825, 4485
457.485, 4440
457.4875, 4262
457.49, 3981
457.4925, 3742
457.495, 3399
457.4975, 3044
457.5, 2616
457.5025, 2051
457.505, 1626
457.5075, 1426
457.51, 1550
457.5125, 1923
457.515, 2737
457.5175, 3700
457.52, 4504
457.5225, 4923
457.525, 4954
457.5275, 4913
457.53, 4775
457.5325, 4633
457.535, 4581
457.5375, 4558
457.54, 4551
457.5425, 4479
457.545, 4526
457.5475, 4559
457.55, 4569
457.5525, 4566
457.555, 4550
457.5575, 4539
457.56, 4480
457.5625, 4550
457.565, 4535
457.5675, 4516
457.57, 4475
457.5725, 4472
457.575, 4462
457.5775, 4435
457.58, 4455
457.5825, 4441
457.585, 4434
457.5875, 4416
457.59, 4407
457.5925, 4388
457.595, 4337
457.5975, 4407
457.6, 4405
457.6025, 4383
457.605, 4390
457.6075, 4377
457.61, 4365
457.6125, 4191
457.615, 4353
457.6175, 4342
457.62, 4326
457.6225, 4329
457.625, 4309
457.6275, 4286
457.63, 4263
457.6325, 4300
457.635, 4309
457.6375, 4281
457.64, 4258
457.6425, 4279
457.645, 4242
457.6475, 4200
457.65, 4244
457.6525, 4234
457.655, 4243
457.6575, 4244
457.66, 4247
457.6625, 4245
457.665, 4195
457.6675, 4225
457.67, 4211
457.6725, 4225
457.675, 4207
457.6775, 4221
457.68, 4213
457.6825, 4171
457.685, 4215
457.6875, 4218
457.69, 4209
457.6925, 4211
457.695, 4220
457.6975, 4216
457.7, 4148
457.7025, 4205
457.705, 4218
457.7075, 4221
457.71, 4200
457.7125, 4220
457.715, 4203
457.7175, 4152
457.72, 4215
457.7225, 4227
457.725, 4221
457.7275, 4222
457.73, 4231
457.7325, 4226
457.735, 4154
457.7375, 4201
457.74, 4214
457.7425, 4190
457.745, 4182
457.7475, 4177
457.75, 4190
457.7525, 4154
457.755, 4190
457.7575, 4190
457.76, 4187
457.7625, 4183
457.765, 4184
457.7675, 4160
457.77, 4138
457.7725, 4199
457.775, 4180
457.7775, 4172
457.78, 4168
457.7825, 4167
457.785, 4153
457.7875, 4056
457.79, 4130
457.7925, 4107
457.795, 4107
457.7975, 4098
457.8, 4082
457.8025, 4076
457.805, 4018
457.8075, 4108
457.81, 4101
457.8125, 4082
457.815, 4100
457.8175, 4115
457.82, 4133
457.8225, 4077
457.825, 4145
457.8275, 4165
457.83, 4157
457.8325, 4150
457.835, 4181
457.8375, 4180
457.84, 4131
457.8425, 4185
457.845, 4190
457.8475, 4198
457.85, 4199
457.8525, 4210
457.855, 4217
457.8575, 4176
457.86, 4233
457.8625, 4231
457.865, 4231
457.8675, 4242
457.87, 4251
457.8725, 4250
457.875, 4217
457.8775, 4272
457.88, 4288
457.8825, 4264
457.885, 4278
457.8875, 4256
457.89, 4246
457.8925, 4177
457.895, 4238
457.8975, 4216
457.9, 4231
457.9025, 4228
457.905, 4225
457.9075, 4207
457.91, 4161
457.9125, 4207
457.915, 4219
457.9175, 4206
457.92, 4186
457.9225, 4188
457.925, 4185
457.9275, 4175
457.93, 4200
457.9325, 4194
457.935, 4196
457.9375, 4185
457.94, 4194
457.9425, 4173
457.945, 4121
457.9475, 4182
457.95, 4176
457.9525, 4167
457.955, 4170
457.9575, 4175
457.96, 4149
457.9625, 4087
457.965, 4139
457.9675, 4148
457.97, 4150
457.9725, 4153
457.975, 4146
457.9775, 4163
457.98, 4119
457.9825, 4176
457.985, 4163
457.9875, 4156
457.99, 4181
457.9925, 4183
457.995, 4167
457.9975, 4113
458.0, 4147
458.0025, 4138
458.005, 4134
458.0075, 4147
458.01, 4148
458.0125, 4165
458.015, 4121
458.0175, 4165
458.02, 4174
458.0225, 4183
458.025, 4175
458.0275, 4176
458.03, 4178
458.0325, 4126
458.035, 4181
458.0375, 4192
458.04, 4185
458.0425, 4187
458.045, 4190
458.0475, 4169
458.05, 4126
458.0525, 4146
458.055, 4170
458.0575, 4161
458.06, 4189
458.0625, 4213
458.065, 4216
458.0675, 4166
458.07, 4196
458.0725, 4206
458.075, 4197
458.0775, 4185
458.08, 4183
458.0825, 4206
458.085, 4138
458.0875, 4204
458.09, 4205
458.0925, 4192
458.095, 4201
458.0975, 4198
458.1, 4200
458.1025, 4159
458.105, 4214
458.1075, 4225
458.11, 4184
458.1125, 4179
458.115, 4176
458.1175, 4179
458.12, 4145
458.1225, 4206
458.125, 4190
458.1275, 4175
458.13, 4178
458.1325, 4198
458.135, 4177
458.1375, 4020
458.14, 4194
458.1425, 4190
458.145, 4189
458.1475, 4184
458.15, 4209
458.1525, 4188
458.155, 4130
458.1575, 4201
458.16, 4196
458.1625, 4197
458.165, 4199
458.1675, 4183
458.17, 4181
458.1725, 4052
458.175, 4169
458.1775, 4167
458.18, 4170
458.1825, 4181
458.185, 4199
458.1875, 4217
458.19, 4167
458.1925, 4197
458.195, 4178
458.1975, 4160
458.2, 4165
458.2025, 4172
458.205, 4187
458.2075, 4031
458.21, 4189
458.2125, 4172
458.215, 4162
458.2175, 4168
458.22, 4185
458.2225, 4162
458.225, 4139
458.2275, 4204
458.23, 4181
458.2325, 4173
458.235, 4165
458.2375, 4176
458.24, 4163
458.2425, 4127
458.245, 4176
458.2475, 4165
458.25, 4172
458.2525, 4160
458.255, 4187
458.2575, 4165
458.26, 4110
458.2625, 4172
458.265, 4170
458.2675, 4177
458.27, 4180
458.2725, 4179
458.275, 4165
458.2775, 4115
458.28, 4176
458.2825, 4179
458.285, 4155
458.2875, 4169
458.29, 4166
458.2925, 4161
458.295, 4129
458.2975, 4172
458.3, 4166
458.3025, 4150
458.305, 4153
458.3075, 4147
458.31, 4124
458.3125, 4145
458.315, 4155
458.3175, 4160
458.32, 4140
458.3225, 4082
458.325, 4155
458.3275, 4150
458.33, 4084
458.3325, 4159
458.335, 4163
458.3375, 4166
458.34, 4163
458.3425, 4184
458.345, 4159
458.3475, 4137
458.35, 4165
458.3525, 4152
458.355, 4152
458.3575, 4135
458.36, 4172
458.3625, 4154
458.365, 4103
458.3675, 4167
458.37, 4160
458.3725, 4155
458.375, 4170
458.3775, 4169
458.38, 4167
458.3825, 4016
458.385, 4192
458.3875, 4200
458.39, 4188
458.3925, 4191
458.395, 4167
458.3975, 4168
458.4, 4136
458.4025, 4183
458.405, 4169
458.4075, 4161
458.41, 4153
458.4125, 4163
458.415, 4159
458.4175, 4090
458.42, 4168
458.4225, 4176
458.425, 4159
458.4275, 4150
458.43, 4156
458.4325, 4145
458.435, 4118
458.4375, 4141
458.44, 4147
458.4425, 4142
458.445, 4126
458.4475, 4170
458.45, 4165
458.4525, 4113
458.455, 4164
458.4575, 4165
458.46, 4134
458.4625, 4141
458.465, 4145
458.4675, 4157
458.47, 4097
458.4725, 4147
458.475, 4146
458.4775, 4145
458.48, 4145
458.4825, 4143
458.485, 4151
458.4875, 4010
458.49, 4175
458.4925, 4169
458.495, 4159
458.4975, 4168
458.5, 4147
458.5025, 4147
458.505, 3991
458.5075, 4149
458.51, 4140
458.5125, 4161
458.515, 4152
458.5175, 4163
458.52, 4173
458.5225, 4127
458.525, 4177
458.5275, 4153
458.53, 4169
458.5325, 4165
458.535, 4161
458.5375, 4164
458.54, 4113
458.5425, 4183
458.545, 4164
458.5475, 4160
458.55, 4173
458.5525, 4163
458.555, 4170
458.5575, 4011
458.56, 4158
458.5625, 4117
458.565, 4113
458.5675, 4110
458.57, 4067
458.5725, 4053
458.575, 4066
458.5775, 4104
458.58, 4119
458.5825, 4122
458.585, 4123
458.5875, 4149
458.59, 4165
458.5925, 4084
458.595, 4164
458.5975, 4178
458.6, 4163
458.6025, 4204
458.605, 4208
458.6075, 4195
458.61, 4158
458.6125, 4220
458.615, 4201
458.6175, 4188
458.62, 4202
458.6225, 4199
458.625, 4199
458.6275, 4158
458.63, 4201
458.6325, 4182
458.635, 4208
458.6375, 4223
458.64, 4209
458.6425, 4208
458.645, 4147
458.6475, 4218
458.65, 4218
458.6525, 4232
458.655, 4232
458.6575, 4240
458.66, 4196
458.6625, 4151
458.665, 4230
458.6675, 4327
458.67, 4392
458.6725, 4413
458.675, 4483
458.6775, 4480
458.68, 4425
458.6825, 4348
458.685, 4138
458.6875, 3883
458.69, 3587
458.6925, 3272
458.695, 2907
458.6975, 2431
458.7, 1973
458.7025, 1754
458.705, 1618
458.7075, 1787
458.71, 2223
458.7125, 3024
458.715, 3911
458.7175, 4849
458.72, 5115
458.7225, 5132
458.725, 5058
458.7275, 4870
458.73, 4714
458.7325, 4538
458.735, 4568
458.7375, 4512
458.74, 4475
458.7425, 4469
458.745, 4462
458.7475, 4493
458.75, 4477
458.7525, 4486
458.755, 4471
458.7575, 4460
458.76, 4472
458.7625, 4476
458.765, 4447
458.7675, 4378
458.77, 4441
458.7725, 4404
458.775, 4397
458.7775, 4401
458.78, 4403
458.7825, 4368
458.785, 4208
458.7875, 4368
458.79, 4361
458.7925, 4363
458.795, 4344
458.7975, 4338
458.8, 4322
458.8025, 4262
458.805, 4301
458.8075, 4303
458.81, 4295
458.8125, 4303
458.815, 4294
458.8175, 4283
458.82, 4237
458.8225, 4280
458.825, 4272
458.8275, 4244
458.83, 4258
458.8325, 4267
458.835, 4241
458.8375, 4185
458.84, 4259
458.8425, 4249
458.845, 4251
458.8475, 4250
458.85, 4267
458.8525, 4257
458.855, 4088
458.8575, 4269
458.86, 4255
458.8625, 4244
458.865, 4243
458.8675, 4220
458.87, 4225
458.8725, 4193
458.875, 4220
458.8775, 4224
458.88, 4197
458.8825, 4218
458.885, 4204
458.8875, 4203
458.89, 4143
458.8925, 4214
458.895, 4180
458.8975, 4181
458.9, 4196
458.9025, 4194
458.905, 4194
458.9075, 4151
458.91, 4199
458.9125, 4201
458.915, 4188
458.9175, 4171
458.92, 4180
458.9225, 4177
458.925, 4140
458.9275, 4202
458.93, 4197
458.9325, 4190
458.935, 4170
458.9375, 4184
458.94, 4178
458.9425, 4115
458.945, 4154
458.9475, 4147
458.95, 4142
458.9525, 4138
458.955, 4140
458.9575, 4163
458.96, 4099
458.9625, 4137
458.965, 4150
458.9675, 4155
458.97, 4156
458.9725, 4167
458.975, 4129
458.9775, 3975
458.98, 4150
458.9825, 4147
458.985, 4130
458.9875, 4114
458.99, 4136
458.9925, 4132
458.995, 4090
458.9975, 4162
459.0, 4136
459.0025, 4131
459.005, 4120
459.0075, 4135
459.01, 4149
459.0125, 4101
459.015, 4180
459.0175, 4183
459.02, 4206
459.0225, 4218
459.025, 4215
459.0275, 4214
459.03, 4230
459.0325, 4243
459.035, 4230
459.0375, 4246
459.04, 4269
459.0425, 4278
459.045, 4265
459.0475, 4199
459.05, 4263
459.0525, 4273
459.055, 4269
459.0575, 4275
459.06, 4286
459.0625, 4272
459.065, 4228
459.0675, 4308
459.07, 4306
459.0725, 4301
459.075, 4288
459.0775, 4277
459.08, 4259
459.0825, 4204
459.085, 4247
459.0875, 4255
459.09, 4236
459.0925, 4226
459.095, 4241
459.0975, 4243
459.1, 4213
459.1025, 4247
459.105, 4233
459.1075, 4231
459.11, 4229
459.1125, 4250
459.115, 4238
459.1175, 4163
459.12, 4222
459.1225, 4206
459.125, 4211
459.1275, 4229
459.13, 4219
459.1325, 4209
459.135, 4053
459.1375, 4222
459.14, 4225
459.1425, 4199
459.145, 4205
459.1475, 4206
459.15, 4195
459.1525, 4031
459.155, 4212
459.1575, 4201
459.16, 4199
459.1625, 4192
459.165, 4209
459.1675, 4217
459.17, 4198
459.1725, 4181
459.175, 4182
459.1775, 4173
459.18, 4189
459.1825, 4211
459.185, 4195
459.1875, 4126
459.19, 4196
459.1925, 4202
459.195, 4188
459.1975, 4183
459.2, 4179
459.2025, 4185
459.205, 4119
459.2075, 4170
459.21, 4175
459.2125, 4180
459.215, 4166
459.2175, 4182
459.22, 4176
459.2225, 4132
459.225, 4188
459.2275, 4194
459.23, 4172
459.2325, 4179
459.235, 4172
459.2375, 4175
459.24, 4157
459.2425, 4158
459.245, 4169
459.2475, 4159
459.25, 4169
459.2525, 4191
459.255, 4175
459.2575, 4128
459.26, 4191
459.2625, 4180
459.265, 4167
459.2675, 4171
459.27, 4181
459.2725, 4154
459.275, 4118
459.2775, 4158
459.28, 4186
459.2825, 4160
459.285, 4167
459.2875, 4176
459.29, 4164
459.2925, 4110
459.295, 4168
459.2975, 4147
459.3, 4177
459.3025, 4174
459.305, 4182
459.3075, 4185
459.31, 4173
459.3125, 4167
459.315, 4179
459.3175, 4169
459.32, 4149
459.3225, 4167
459.325, 4186
459.3275, 4150
459.33, 4157
459.3325, 4155
459.335, 4170
459.3375, 4165
459.34, 4174
459.3425, 4143
459.345, 4115
459.3475, 4146
459.35, 4189
459.3525, 4174
459.355, 4166
459.3575, 4156
459.36, 4147
459.3625, 3987
459.365, 4175
459.3675, 4179
459.37, 4152
459.3725, 4166
459.375, 4171
459.3775, 4162
459.38, 4130
459.3825, 4175
459.385, 4166
459.3875, 4157
459.39, 4153
459.3925, 4177
459.395, 4181
459.3975, 4140
459.4, 4170
459.4025, 4165
459.405, 4166
459.4075, 4129
459.41, 4148
459.4125, 4179
459.415, 4139
459.4175, 4197
459.42, 4189
459.4225, 4173
459.425, 4184
459.4275, 4178
459.43, 4164
459.4325, 4098
459.435, 4165
459.4375, 4160
459.44, 4161
459.4425, 4114
459.445, 4208
459.4475, 4199
459.45, 4149
459.4525, 4167
459.455, 4178
459.4575, 4186
459.46, 4150
459.4625, 4144
459.465, 4149
459.4675, 4084
459.47, 4158
459.4725, 4141
459.475, 4162
459.4775, 4148
459.48, 4162
459.4825, 4162
459.485, 4078
459.4875, 4132
459.49, 4140
459.4925, 4158
459.495, 4145
459.4975, 4175
459.5, 4180
459.5025, 4155
459.505, 4171
459.5075, 4157
459.51, 4135
459.5125, 4156
459.515, 4153
459.5175, 4155
459.52, 4109
459.5225, 4160
459.525, 4156
459.5275, 4164
459.53, 4148
459.5325, 4164
459.535, 4167
459.5375, 4154
459.54, 4146
459.5425, 4155
459.545, 4165
459.5475, 4165
459.55, 4163
459.5525, 4158
459.555, 3987
459.5575, 4186
459.56, 4173
459.5625, 4174
459.565, 4161
459.5675, 4170
459.57, 4154
459.5725, 4024
459.575, 4189
459.5775, 4185
459.58, 4179
459.5825, 4172
459.585, 4157
459.5875, 4132
459.59, 4006
459.5925, 4181
459.595, 4178
459.5975, 4164
459.6, 4150
459.6025, 4144
459.605, 4139
459.6075, 4147
459.61, 4148
459.6125, 4146
459.615, 4139
459.6175, 4159
459.62, 4159
459.6225, 4124
459.625, 4083
459.6275, 4142
459.63, 4155
459.6325, 4131
459.635, 4142
459.6375, 4144
459.64, 4164
459.6425, 4028
459.645, 4211
459.6475, 4230
459.65, 4195
459.6525, 4177
459.655, 4124
459.6575, 4090
459.66, 3926
459.6625, 4099
459.665, 4104
459.6675, 4092
459.67, 4121
459.6725, 4144
459.675, 4134
459.6775, 4090
459.68, 4165
459.6825, 4149
459.685, 4160
459.6875, 4164
459.69, 4200
459.6925, 4194
459.695, 4136
459.6975, 4205
459.7, 4185
459.7025, 4197
459.705, 4164
459.7075, 4166
459.71, 4158
459.7125, 4131
459.715, 4185
459.7175, 4187
459.72, 4185
459.7225, 4164
459.725, 4169
459.7275, 4153
459.73, 4025
459.7325, 4198
459.735, 4195
459.7375, 4186
459.74, 4195
459.7425, 4180
459.745, 4184
459.7475, 4170
459.75, 4177
459.7525, 4182
459.755, 4200
459.7575, 4177
459.76, 4242
459.7625, 4310
459.765, 4344
459.7675, 4455
459.77, 4474
459.7725, 4505
459.775, 4500
459.7775, 4418
459.78, 4203
459.7825, 3944
459.785, 3681
459.7875, 3319
459.79, 2926
459.7925, 2478
459.795, 1909
459.7975, 1538
459.8, 1368
459.8025, 1588
459.805, 2053
459.8075, 2941
459.81, 3915
459.8125, 4611
459.815, 4967
459.8175, 4953
459.82, 4883
459.8225, 4739
459.825, 4609
459.8275, 4565
459.83, 4571
459.8325, 4538
459.835, 4468
459.8375, 4534
459.84, 4544
459.8425, 4567
459.845, 4564
459.8475, 4563
459.85, 4528
459.8525, 4379
459.855, 4521
459.8575, 4529
459.86, 4532
459.8625, 4510
459.865, 4492
459.8675, 4472
459.87, 4415
459.8725, 4442
459.875, 4441
459.8775, 4410
459.88, 4399
459.8825, 4407
459.885, 4393
459.8875, 4367
459.89, 4380
459.8925, 4343
459.895, 4352
459.8975, 4327
459.9, 4344
459.9025, 4345
459.905, 4318
459.9075, 4366
459.91, 4330
459.9125, 4313
459.915, 4308
459.9175, 4307
459.92, 4310
459.9225, 4259
459.925, 4297
459.9275, 4281
459.93, 4258
459.9325, 4254
459.935, 4262
459.9375, 4251
459.94, 4099
459.9425, 4264
459.945, 4255
459.9475, 4241
459.95, 4223
459.9525, 4201
459.955, 4224
459.9575, 4188
459.96, 4197
459.9625, 4207
459.965, 4219
459.9675, 4205
459.97, 4216
459.9725, 4215
459.975, 4153
459.9775, 4210
459.98, 4228
459.9825, 4227
459.985, 4221
459.9875, 4208
459.99, 4218
459.9925, 4177
459.995, 4221
459.9975, 4237
460.0, 4221
460.0025, 4216
460.005, 4239
460.0075, 4209
460.01, 4156
460.0125, 4216
460.015, 4234
460.0175, 4229
460.02, 4229
460.0225, 4218
460.025, 4210
460.0275, 4162
460.03, 4226
460.0325, 4210
460.035, 4200
460.0375, 4202
460.04, 4188
460.0425, 4186
460.045, 4167
460.0475, 4198
460.05, 4203
460.0525, 4180
460.055, 4172
460.0575, 4199
460.06, 4190
460.0625, 4141
460.065, 4173
460.0675, 4152
460.07, 4148
460.0725, 4152
460.075, 4124
460.0775, 4108
460.08, 4045
460.0825, 4087
460.085, 4082
460.0875, 4074
460.09, 4062
460.0925, 4067
460.095, 4084
460.0975, 4005
460.1, 4060
460.1025, 4050
460.105, 4032
460.1075, 4058
460.11, 4087
460.1125, 4083
460.115, 4070
460.1175, 4086
460.12, 4110
460.1225, 4118
460.125, 4105
460.1275, 4151
460.13, 4164
460.1325, 4139
460.135, 4169
460.1375, 4159
460.14, 4166
460.1425, 4187
460.145, 4205
460.1475, 4193
460.15, 4047
460.1525, 4202
460.155, 4210
460.1575, 4207
460.16, 4201
460.1625, 4212
460.165, 4218
460.1675, 4148
460.17, 4203
460.1725, 4218
460.175, 4204
460.1775, 4205
460.18, 4220
460.1825, 4222
460.185, 4196
460.1875, 4206
460.19, 4205
460.1925, 4206
460.195, 4195
460.1975, 4188
460.2, 4185
460.2025, 4096
460.205, 4170
460.2075, 4176
460.21, 4177
460.2125, 4157
460.215, 4191
460.2175, 4203
460.22, 4053
460.2225, 4214
460.225, 4205
460.2275, 4194
460.23, 4190
460.2325, 4181
460.235, 4183
460.2375, 4132
460.24, 4174
460.2425, 4160
460.245, 4192
460.2475, 4181
460.25, 4169
460.2525, 4189
460.255, 4174
460.2575, 4185
460.26, 4178
460.2625, 4192
460.265, 4212
460.2675, 4207
460.27, 4219
460.2725, 4190
460.275, 4192
460.2775, 4187
460.28, 4199
460.2825, 4205
460.285, 4196
460.2875, 4187
460.29, 4030
460.2925, 4205
460.295, 4191
460.2975, 4183
460.3, 4186
460.3025, 4178
460.305, 4186
460.3075, 4145
460.31, 4179
460.3125, 4174
460.315, 4174
460.3175, 4162
460.32, 4167
460.3225, 4158
460.325, 4095
460.3275, 4155
460.33, 4160
460.3325, 4154
460.335, 4151
460.3375, 4173
460.34, 4159
460.3425, 4105
460.345, 4151
460.3475, 4157
460.35, 4157
460.3525, 4142
460.355, 4174
460.3575, 4177
460.36, 4023
460.3625, 4196
460.365, 4185
460.3675, 4169
460.37, 4154
460.3725, 4156
460.375, 4161
460.3775, 4004
460.38, 4181
460.3825, 4177
460.385, 4159
460.3875, 4175
460.39, 4179
460.3925, 4157
460.395, 4142
460.3975, 4145
460.4, 4153
460.4025, 4147
460.405, 4079
460.4075, 4170
460.41, 4158
460.4125, 4136
460.415, 4140
460.4175, 4162
460.42, 4174
460.4225, 4182
460.425, 4178
460.4275, 4154
460.43, 4024
460.4325, 4201
460.435, 4180
460.4375, 4185
460.44, 4166
460.4425, 4165
460.445, 4153
460.4475, 4015
460.45, 4178
460.4525, 4183
460.455, 4174
460.4575, 4148
460.46, 4158
460.4625, 4170
460.465, 4143
460.4675, 4159
460.47, 4147
460.4725, 4156
460.475, 4135
460.4775, 4182
460.48, 4183
460.4825, 4120
460.485, 4179
460.4875, 4163
460.49, 4167
460.4925, 4171
460.495, 4188
460.4975, 4184
460.5, 4114
460.5025, 4182
460.505, 4196
460.5075, 4202
460.51, 4209
460.5125, 4175
460.515, 4177
460.5175, 4121
460.52, 4212
460.5225, 4185
460.525, 4188
460.5275, 4171
460.53, 4170
460.5325, 4177
460.535, 4170
460.5375, 4191
460.54, 4172
460.5425, 4187
460.545, 4124
460.5475, 4215
460.55, 4205
460.5525, 4145
460.555, 4172
460.5575, 4174
460.56, 4169
460.5625, 4183
460.565, 4177
460.5675, 4164
460.57, 4102
460.5725, 4164
460.575, 4178
460.5775, 4152
460.58, 4165
460.5825, 4177
460.585, 4160
460.5875, 4128
460.59, 4191
460.5925, 4172
460.595, 4174
460.5975, 4172
460.6, 4164
460.6025, 4179
460.605, 4006
460.6075, 4171
460.61, 4167
460.6125, 4170
460.615, 4105
460.6175, 4195
460.62, 4190
460.6225, 4131
460.625, 4172
460.6275, 4164
460.63, 4164
460.6325, 4172
460.635, 4174
460.6375, 4174
460.64, 4132
460.6425, 4174
460.645, 4173
460.6475, 4179
460.65, 4170
460.6525, 4173
460.655, 4165
460.6575, 4029
460.66, 4186
460.6625, 4199
460.665, 4185
460.6675, 4177
460.67, 4178
460.6725, 4160
460.675, 3998
460.6775, 4194
460.68, 4205
460.6825, 4183
460.685, 4117
460.6875, 4211
460.69, 4209
460.6925, 4170
460.695, 4157
460.6975, 4170
460.7, 4171
460.7025, 4173
460.705, 4151
460.7075, 4150
460.71, 4125
460.7125, 4174
460.715, 4169
460.7175, 4165
460.72, 4163
460.7225, 4156
460.725, 4146
460.7275, 4004
460.73, 4165
460.7325, 4180
460.735, 4171
460.7375, 4162
460.74, 4155
460.7425, 4151
460.745, 4119
460.7475, 4151
460.75, 4161
460.7525, 4173
460.755, 4166
460.7575, 4185
460.76, 4171
460.7625, 4133
460.765, 4170
460.7675, 4176
460.77, 4182
460.7725, 4161
460.775, 4177
460.7775, 4190
460.78, 4124
460.7825, 4168
460.785, 4162
460.7875, 4165
460.79, 4148
460.7925, 4168
460.795, 4161
460.7975, 4111
460.8, 4161
460.8025, 4154
460.805, 4156
460.8075, 4171
460.81, 4162
460.8125, 4160
460.815, 4109
460.8175, 4130
460.82, 4108
460.8225, 4098
460.825, 4056
460.8275, 4086
460.83, 4090
460.8325, 4088
460.835, 4131
460.8375, 4150
460.84, 4147
460.8425, 4145
460.845, 4189
460.8475, 4186
460.85, 4132
460.8525, 4229
460.855, 4213
460.8575, 4206
460.86, 4237
460.8625, 4225
460.865, 4222
460.8675, 4054
460.87, 4233
460.8725, 4227
460.875, 4212
460.8775, 4196
460.88, 4207
460.8825, 4210
460.885, 4161
460.8875, 4197
460.89, 4168
460.8925, 4174
460.895, 4162
460.8975, 4172
460.9, 4172
460.9025, 4166
460.905, 4198
460.9075, 4196
460.91, 4207
460.9125, 4193
460.915, 4192
460.9175, 4201
460.92, 4102
460.9225, 4278
460.925, 4375
460.9275, 4421
460.93, 4442
460.9325, 4480
460.935, 4502
460.9375, 4284
460.94, 4299
460.9425, 4070
460.945, 3828
460.9475, 3467
460.95, 3206
460.9525, 2765
460.955, 2219
460.9575, 1882
460.96, 1668
460.9625, 1683
460.965, 1965
460.9675, 2556
460.97, 3475
460.9725, 4414
460.975, 4955
460.9775, 5112
460.98, 5104
460.9825, 4982
460.985, 4793
460.9875, 4679
460.99, 4572
460.9925, 4598
460.995, 4541
460.9975, 4515
461.0, 4498
461.0025, 4528
461.005, 4529
461.0075, 4352
461.01, 4526
461.0125, 4531
461.015, 4511
461.0175, 4503
461.02, 4504
461.0225, 4465
461.025, 4400
461.0275, 4443
461.03, 4439
461.0325, 4401
461.035, 4345
461.0375, 4429
461.04, 4401
461.0425, 4353
461.045, 4376
461.0475, 4360
461.05, 4367
461.0525, 4331
461.055, 4347
461.0575, 4324
461.06, 4261
461.0625, 4282
461.065, 4287
461.0675, 4273
461.07, 4283
461.0725, 4278
461.075, 4296
461.0775, 4216
461.08, 4271
461.0825, 4256
461.085, 4237
461.0875, 4242
461.09, 4241
461.0925, 4219
461.095, 4175
461.0975, 4240
461.1, 4216
461.1025, 4212
461.105, 4211
461.1075, 4232
461.11, 4211
461.1125, 4198
461.115, 4206
461.1175, 4196
461.12, 4191
461.1225, 4168
461.125, 4193
461.1275, 4196
461.13, 4149
461.1325, 4207
461.135, 4212
461.1375, 4182
461.14, 4179
461.1425, 4169
461.145, 4168
461.1475, 4101
461.15, 4169
461.1525, 4169
461.155, 4153
461.1575, 4156
461.16, 4139
461.1625, 4163
461.165, 4006
461.1675, 4180
461.17, 4189
461.1725, 4164
461.175, 4148
461.1775, 4160
461.18, 4152
461.1825, 4120
461.185, 4139
461.1875, 4152
461.19, 4154
461.1925, 4164
461.195, 4192
461.1975, 4171
461.2, 4130
461.2025, 4178
461.205, 4171
461.2075, 4160
461.21, 4162
461.2125, 4153
461.215, 4143
461.2175, 3997
461.22, 4162
461.2225, 4161
461.225, 4164
461.2275, 4165
461.23, 4175
461.2325, 4178
461.235, 3996
461.2375, 4151
461.24, 4136
461.2425, 4132
461.245, 4148
461.2475, 4141
461.25, 4145
