140.1675, 1754
140.17, 1820
140.1725, 2182
140.175, 2953
140.1775, 3821
140.18, 4625
140.1825, 4942
140.185, 4956
140.1875, 4834
140.19, 4681
140.1925, 4576
140.195, 4470
140.1975, 4563
140.2, 4540
140.2025, 4509
140.205, 4499
140.2075, 4532
140.21, 4531
140.2125, 4467
140.215, 4508
140.2175, 4521
140.22, 4515
140.2225, 4477
140.225, 4476
140.2275, 4477
140.23, 4428
140.2325, 4451
140.235, 4432
140.2375, 4448
140.24, 4438
140.2425, 4426
140.245, 4413
140.2475, 4328
140.25, 4394
140.2525, 4384
140.255, 4385
140.2575, 4374
140.26, 4371
140.2625, 4360
140.265, 4283
140.2675, 4365
140.27, 4367
140.2725, 4347
140.275, 4333
140.2775, 4323
140.28, 4309
140.2825, 4290
140.285, 4328
140.2875, 4287
140.29, 4299
140.2925, 4301
140.295, 4286
140.2975, 4271
140.3, 4199
140.3025, 4252
140.305, 4231
140.3075, 4243
140.31, 4214
140.3125, 4213
140.315, 4222
140.3175, 4180
140.32, 4232
140.3225, 4255
140.325, 4242
140.3275, 4242
140.33, 4239
140.3325, 4221
140.335, 4159
140.3375, 4230
140.34, 4227
140.3425, 4234
140.345, 4210
140.3475, 4199
140.35, 4218
140.3525, 4145
140.355, 4193
140.3575, 4184
140.36, 4179
140.3625, 4171
140.365, 4205
140.3675, 4205
140.37, 4137
140.3725, 4196
140.375, 4208
140.3775, 4198
140.38, 4207
140.3825, 4219
140.385, 4203
140.3875, 4141
140.39, 4209
140.3925, 4194
140.395, 4199
140.3975, 4189
140.4, 4194
140.4025, 4187
140.405, 4112
140.4075, 4209
140.41, 4201
140.4125, 4202
140.415, 4181
140.4175, 4192
140.42, 4188
140.4225, 4103
140.425, 4172
140.4275, 4146
140.43, 4180
140.4325, 4152
140.435, 4157
140.4375, 4146
140.44, 4085
140.4425, 4163
140.445, 4155
140.4475, 4116
140.45, 4107
140.4525, 4114
140.455, 4098
140.4575, 4066
140.46, 4095
140.4625, 4094
140.465, 4083
140.4675, 4100
140.47, 4108
140.4725, 4067
140.475, 4033
140.4775, 4118
140.48, 4130
140.4825, 4124
140.485, 4143
140.4875, 4147
140.49, 4154
140.4925, 4108
140.495, 4184
140.4975, 4175
140.5, 4179
140.5025, 4163
140.505, 4184
140.5075, 4200
140.51, 4147
140.5125, 4212
140.515, 4198
140.5175, 4202
140.52, 4170
140.5225, 4185
140.525, 4185
140.5275, 4151
140.53, 4199
140.5325, 4213
140.535, 4199
140.5375, 4213
140.54, 4219
140.5425, 4228
140.545, 4138
140.5475, 4222
140.55, 4223
140.5525, 4198
140.555, 4208
140.5575, 4201
140.56, 4190
140.5625, 4145
140.565, 4212
140.5675, 4198
140.57, 4202
140.5725, 4169
140.575, 4168
140.5775, 4179
140.58, 4161
140.5825, 4195
140.585, 4193
140.5875, 4191
140.59, 4191
140.5925, 4195
140.595, 4197
140.5975, 4126
140.6, 4183
140.6025, 4171
140.605, 4167
140.6075, 4183
140.61, 4163
140.6125, 4171
140.615, 4092
140.6175, 4178
140.62, 4161
140.6225, 4132
140.625, 4148
140.6275, 4163
140.63, 4176
140.6325, 4149
140.635, 4190
140.6375, 4159
140.64, 4140
140.6425, 4157
140.645, 4171
140.6475, 4169
140.65, 4092
140.6525, 4168
140.655, 4167
140.6575, 4170
140.66, 4135
140.6625, 4143
140.665, 4146
140.6675, 4058
140.67, 4137
140.6725, 4126
140.675, 4122
140.6775, 4116
140.68, 4161
140.6825, 4151
140.685, 4073
140.6875, 4165
140.69, 4177
140.6925, 4165
140.695, 4170
140.6975, 4147
140.7, 4157
140.7025, 4093
140.705, 4181
140.7075, 4160
140.71, 4148
140.7125, 4165
140.715, 4159
140.7175, 4160
140.72, 4113
140.7225, 4170
140.725, 4182
140.7275, 4178
140.73, 4160
140.7325, 4186
140.735, 4175
140.7375, 4096
140.74, 4168
140.7425, 4157
140.745, 4157
140.7475, 4161
140.75, 4169
140.7525, 4197
140.755, 4134
140.7575, 4196
140.76, 4205
140.7625, 4181
140.765, 4161
140.7675, 4169
140.77, 4164
140.7725, 4114
140.775, 4204
140.7775, 4178
140.78, 4166
140.7825, 4181
140.785, 4190
140.7875, 4187
140.79, 4123
140.7925, 4194
140.795, 4184
140.7975, 4146
140.8, 4145
140.8025, 4131
140.805, 4136
140.8075, 4113
140.81, 4139
140.8125, 4138
140.815, 4152
140.8175, 4194
140.82, 4177
140.8225, 4185
140.825, 4109
140.8275, 4178
140.83, 4178
140.8325, 4171
140.835, 4148
140.8375, 4139
140.84, 4129
140.8425, 4044
140.845, 4165
140.8475, 4168
140.85, 4186
140.8525, 4196
140.855, 4206
140.8575, 4202
140.86, 4111
140.8625, 4160
140.865, 4170
140.8675, 4156
140.87, 4175
140.8725, 4148
140.875, 4166
140.8775, 4105
140.88, 4154
140.8825, 4149
140.885, 4164
140.8875, 4142
140.89, 4150
140.8925, 4161
140.895, 4108
140.8975, 4168
140.9, 4172
140.9025, 4162
140.905, 4173
140.9075, 4164
140.91, 4164
140.9125, 4115
140.915, 4186
140.9175, 4182
140.92, 4176
140.9225, 4175
140.925, 4179
140.9275, 4172
140.93, 4124
140.9325, 4156
140.935, 4154
140.9375, 4169
140.94, 4156
140.9425, 4168
140.945, 4165
140.9475, 4095
140.95, 4186
140.9525, 4193
140.955, 4162
140.9575, 4163
140.96, 4176
140.9625, 4195
140.965, 4112
140.9675, 4185
140.97, 4172
140.9725, 4172
140.975, 4176
140.9775, 4189
140.98, 4195
140.9825, 4170
140.985, 4188
140.9875, 4175
140.99, 4171
140.9925, 4161
140.995, 4176
140.9975, 4183
141.0, 4127
141.0025, 4173
141.005, 4149
141.0075, 4170
141.01, 4153
141.0125, 4170
141.015, 4174
141.0175, 4105
141.02, 4189
141.0225, 4172
141.025, 4199
141.0275, 4131
141.03, 4180
141.0325, 4176
141.035, 4109
141.0375, 4175
141.04, 4180
141.0425, 4167
141.045, 4176
141.0475, 4185
141.05, 4205
141.0525, 4129
141.055, 4192
141.0575, 4181
141.06, 4170
141.0625, 4177
141.065, 4169
141.0675, 4157
141.07, 4121
141.0725, 4182
141.075, 4184
141.0775, 4197
141.08, 4198
141.0825, 4203
141.085, 4186
141.0875, 4096
141.09, 4170
141.0925, 4170
141.095, 4149
141.0975, 4138
141.1, 4162
141.1025, 4146
141.105, 4111
141.1075, 4161
141.11, 4147
141.1125, 4152
141.115, 4145
141.1175, 4155
141.12, 4146
141.1225, 4098
141.125, 4173
141.1275, 4164
141.13, 4152
141.1325, 4167
141.135, 4175
141.1375, 4197
141.14, 4109
141.1425, 4158
141.145, 4138
141.1475, 4141
141.15, 4165
141.1525, 4171
141.155, 4156
141.1575, 4136
141.16, 4174
141.1625, 4160
141.165, 4167
141.1675, 4129
141.17, 4146
141.1725, 4095
141.175, 4033
141.1775, 4100
141.18, 4056
141.1825, 4083
141.185, 4078
141.1875, 4102
141.19, 4117
141.1925, 4061
141.195, 4146
141.1975, 4149
141.2, 4148
141.2025, 4128
141.205, 4133
141.2075, 4120
141.21, 4074
141.2125, 4159
141.215, 4144
141.2175, 4152
141.22, 4142
141.2225, 4164
141.225, 4155
141.2275, 4079
141.23, 4170
141.2325, 4171
141.235, 4167
141.2375, 4176
141.24, 4173
141.2425, 4175
141.245, 4115
141.2475, 4179
141.25, 4160
141.2525, 4176
141.255, 4169
141.2575, 4180
141.26, 4148
141.2625, 4103
141.265, 4192
141.2675, 4155
141.27, 4191
141.2725, 4184
141.275, 4224
141.2775, 4273
141.28, 4314
141.2825, 4395
141.285, 4417
141.2875, 4448
141.29, 4468
141.2925, 4402
141.295, 4270
141.2975, 3981
141.3, 3787
141.3025, 3471
141.305, 3130
141.3075, 2742
141.31, 2243
141.3125, 1919
141.315, 1747
141.3175, 1908
141.32, 2321
141.3225, 3068
141.325, 3867
141.3275, 4450
141.33, 4773
141.3325, 4804
141.335, 4764
141.3375, 4642
141.34, 4571
141.3425, 4529
141.345, 4532
141.3475, 4517
141.35, 4425
141.3525, 4498
141.355, 4500
141.3575, 4516
141.36, 4508
141.3625, 4505
141.365, 4515
141.3675, 4442
141.37, 4525
141.3725, 4498
141.375, 4463
141.3775, 4467
141.38, 4471
141.3825, 4434
141.385, 4349
141.3875, 4398
141.39, 4394
141.3925, 4393
141.395, 4390
141.3975, 4390
141.4, 4386
141.4025, 4326
141.405, 4379
141.4075, 4369
141.41, 4370
141.4125, 4337
141.415, 4327
141.4175, 4318
141.42, 4214
141.4225, 4286
141.425, 4305
141.4275, 4290
141.43, 4296
141.4325, 4284
141.435, 4267
141.4375, 4197
141.44, 4278
141.4425, 4270
141.445, 4257
141.4475, 4247
141.45, 4226
141.4525, 4222
141.455, 4156
141.4575, 4247
141.46, 4213
141.4625, 4204
141.465, 4224
141.4675, 4217
141.47, 4203
141.4725, 4142
141.475, 4214
141.4775, 4218
141.48, 4203
141.4825, 4188
141.485, 4185
141.4875, 4214
141.49, 4163
141.4925, 4236
141.495, 4236
141.4975, 4239
141.5, 4239
141.5025, 4215
141.505, 4188
141.5075, 4142
141.51, 4200
141.5125, 4211
141.515, 4235
141.5175, 4230
141.52, 4225
141.5225, 4239
141.525, 4151
141.5275, 4186
141.53, 4200
141.5325, 4200
141.535, 4207
141.5375, 4192
141.54, 4174
141.5425, 4111
141.545, 4168
141.5475, 4182
141.55, 4185
141.5525, 4200
141.555, 4211
141.5575, 4188
141.56, 4102
141.5625, 4153
141.565, 4158
141.5675, 4147
141.57, 4152
141.5725, 4168
141.575, 4171
141.5775, 4100
141.58, 4160
141.5825, 4154
141.585, 4142
141.5875, 4138
141.59, 4148
141.5925, 4147
141.595, 4092
141.5975, 4142
141.6, 4110
141.6025, 4116
141.605, 4095
141.6075, 4131
141.61, 4129
141.6125, 4081
141.615, 4142
141.6175, 4127
141.62, 4129
141.6225, 4136
141.625, 4163
141.6275, 4154
141.63, 4091
141.6325, 4149
141.635, 4172
141.6375, 4187
141.64, 4169
141.6425, 4184
141.645, 4195
141.6475, 4139
141.65, 4196
141.6525, 4213
141.655, 4217
141.6575, 4218
141.66, 4224
141.6625, 4229
141.665, 4157
141.6675, 4235
141.67, 4231
141.6725, 4242
141.675, 4228
141.6775, 4213
141.68, 4205
141.6825, 4178
141.685, 4218
141.6875, 4217
141.69, 4221
141.6925, 4214
141.695, 4249
141.6975, 4245
141.7, 4159
141.7025, 4226
141.705, 4210
141.7075, 4210
141.71, 4207
141.7125, 4231
141.715, 4231
141.7175, 4144
141.72, 4215
141.7225, 4208
141.725, 4190
141.7275, 4183
141.73, 4180
141.7325, 4170
141.735, 4152
141.7375, 4196
141.74, 4196
141.7425, 4177
141.745, 4180
141.7475, 4177
141.75, 4166
141.7525, 4131
141.755, 4203
141.7575, 4165
141.76, 4171
141.7625, 4154
141.765, 4191
141.7675, 4184
141.77, 4099
141.7725, 4180
141.775, 4178
141.7775, 4167
141.78, 4155
141.7825, 4171
141.785, 4156
141.7875, 4087
141.79, 4168
141.7925, 4153
141.795, 4149
141.7975, 4173
141.8, 4161
141.8025, 4154
141.805, 4064
141.8075, 4145
141.81, 4153
141.8125, 4132
141.815, 4145
141.8175, 4150
141.82, 4155
141.8225, 4067
141.825, 4145
141.8275, 4154
141.83, 4168
141.8325, 4155
141.835, 4176
141.8375, 4165
141.84, 4088
141.8425, 4164
141.845, 4171
141.8475, 4175
141.85, 4181
141.8525, 4153
141.855, 4160
141.8575, 4136
141.86, 4188
141.8625, 4194
141.865, 4170
141.8675, 4163
141.87, 4176
141.8725, 4172
141.875, 4108
141.8775, 4156
141.88, 4144
141.8825, 4155
141.885, 4148
141.8875, 4165
141.89, 4160
141.8925, 4081
141.895, 4164
141.8975, 4170
141.9, 4174
141.9025, 4174
141.905, 4151
141.9075, 4148
141.91, 4112
141.9125, 4189
141.915, 4188
141.9175, 4183
141.92, 4164
141.9225, 4157
141.925, 4178
141.9275, 4088
141.93, 4177
141.9325, 4183
141.935, 4193
141.9375, 4194
141.94, 4210
141.9425, 4167
141.945, 4101
141.9475, 4132
141.95, 4130
141.9525, 4133
141.955, 4136
141.9575, 4143
141.96, 4156
141.9625, 4090
141.965, 4166
141.9675, 4156
141.97, 4168
141.9725, 4168
141.975, 4153
141.9775, 4155
141.98, 4077
141.9825, 4185
141.985, 4175
141.9875, 4179
141.99, 4148
141.9925, 4162
141.995, 4165
141.9975, 4103
142.0, 4166
142.0025, 4148
142.005, 4149
142.0075, 4146
142.01, 4166
142.0125, 4161
142.015, 4086
142.0175, 4176
142.02, 4194
142.0225, 4163
142.025, 4165
142.0275, 4184
142.03, 4169
142.0325, 4119
142.035, 4157
142.0375, 4164
142.04, 4171
142.0425, 4170
142.045, 4161
142.0475, 4174
142.05, 4125
142.0525, 4200
142.055, 4197
142.0575, 4184
142.06, 4151
142.0625, 4183
142.065, 4186
142.0675, 4103
142.07, 4173
142.0725, 4162
142.075, 4167
142.0775, 4178
142.08, 4198
142.0825, 4175
142.085, 4135
142.0875, 4177
142.09, 4170
142.0925, 4158
142.095, 4173
142.0975, 4200
142.1, 4201
142.1025, 4137
142.105, 4204
142.1075, 4189
142.11, 4183
142.1125, 4175
142.115, 4177
142.1175, 4161
142.12, 4079
142.1225, 4143
142.125, 4172
142.1275, 4167
142.13, 4171
142.1325, 4180
142.135, 4176
142.1375, 4100
142.14, 4207
142.1425, 4192
142.145, 4138
142.1475, 4152
142.15, 4161
142.1525, 4162
142.155, 4093
142.1575, 4178
142.16, 4178
142.1625, 4171
142.165, 4150
142.1675, 4153
142.17, 4180
142.1725, 4123
142.175, 4171
142.1775, 4131
142.18, 4164
142.1825, 4141
142.185, 4169
142.1875, 4170
142.19, 4096
142.1925, 4155
142.195, 4156
142.1975, 4168
142.2, 4188
142.2025, 4209
142.205, 4199
142.2075, 4140
142.21, 4193
142.2125, 4179
142.215, 4189
142.2175, 4208
142.22, 4187
142.2225, 4191
142.225, 4123
142.2275, 4203
142.23, 4197
142.2325, 4188
142.235, 4190
142.2375, 4181
142.24, 4189
142.2425, 4129
142.245, 4181
142.2475, 4168
142.25, 4151
142.2525, 4122
142.255, 4119
142.2575, 4116
142.26, 4084
142.2625, 4146
142.265, 4151
142.2675, 4140
142.27, 4147
142.2725, 4146
142.275, 4155
142.2775, 4055
142.28, 4190
142.2825, 4185
142.285, 4173
142.2875, 4160
142.29, 4198
142.2925, 4174
142.295, 4101
142.2975, 4198
142.3, 4202
142.3025, 4199
142.305, 4195
142.3075, 4223
142.31, 4214
142.3125, 4165
142.315, 4212
142.3175, 4200
142.32, 4160
142.3225, 4168
142.325, 4172
142.3275, 4168
142.33, 4100
142.3325, 4175
142.335, 4187
142.3375, 4171
142.34, 4191
142.3425, 4193
142.345, 4183
142.3475, 4136
142.35, 4220
142.3525, 4263
142.355, 4304
142.3575, 4348
142.36, 4388
142.3625, 4442
142.365, 4365
142.3675, 4359
142.37, 4192
142.3725, 4000
142.375, 3793
142.3775, 3512
142.38, 3248
142.3825, 2770
142.385, 2397
142.3875, 2111
142.39, 1940
142.3925, 1981
142.395, 2321
142.3975, 2899
142.4, 3672
142.4025, 4556
142.405, 4913
142.4075, 5018
142.41, 5017
142.4125, 4874
142.415, 4755
142.4175, 4543
142.42, 4614
142.4225, 4566
142.425, 4500
142.4275, 4486
142.43, 4475
142.4325, 4466
142.435, 4398
142.4375, 4476
142.44, 4461
142.4425, 4432
142.445, 4443
142.4475, 4456
142.45, 4465
142.4525, 4369
142.455, 4396
142.4575, 4390
142.46, 4363
142.4625, 4358
142.465, 4363
142.4675, 4356
142.47, 4340
142.4725, 4351
142.475, 4348
142.4775, 4353
142.48, 4317
142.4825, 4338
142.485, 4329
142.4875, 4235
142.49, 4313
142.4925, 4286
142.495, 4302
142.4975, 4297
142.5, 4293
142.5025, 4298
142.505, 4211
142.5075, 4293
142.51, 4291
142.5125, 4267
142.515, 4253
142.5175, 4273
142.52, 4254
142.5225, 4160
142.525, 4234
142.5275, 4208
142.53, 4195
142.5325, 4181
142.535, 4213
142.5375, 4191
142.54, 4158
142.5425, 4180
142.545, 4182
142.5475, 4203
142.55, 4191
142.5525, 4181
142.555, 4184
142.5575, 4102
142.56, 4184
142.5625, 4195
142.565, 4195
142.5675, 4183
142.57, 4201
142.5725, 4192
142.575, 4112
142.5775, 4176
142.58, 4173
142.5825, 4155
142.585, 4155
142.5875, 4163
142.59, 4154
142.5925, 4100
142.595, 4151
142.5975, 4137
142.6, 4135
142.6025, 4141
142.605, 4118
142.6075, 4171
142.61, 4077
142.6125, 4151
142.615, 4156
142.6175, 4154
142.62, 4129
142.6225, 4144
142.625, 4155
142.6275, 4088
142.63, 4164
142.6325, 4165
142.635, 4178
142.6375, 4161
142.64, 4153
142.6425, 4153
142.645, 4070
142.6475, 4166
142.65, 4144
142.6525, 4142
142.655, 4139
142.6575, 4153
142.66, 4146
142.6625, 4119
142.665, 4149
142.6675, 4125
142.67, 4111
142.6725, 4112
142.675, 4140
142.6775, 4103
142.68, 4022
142.6825, 4115
142.685, 4112
142.6875, 4095
142.69, 4106
142.6925, 4111
142.695, 4116
142.6975, 4062
142.7, 4158
142.7025, 4166
142.705, 4169
142.7075, 4171
142.71, 4181
142.7125, 4200
142.715, 4137
142.7175, 4237
142.72, 4226
142.7225, 4214
142.725, 4228
142.7275, 4216
142.73, 4239
142.7325, 4195
142.735, 4248
142.7375, 4256
142.74, 4249
142.7425, 4234
142.745, 4241
142.7475, 4235
142.75, 4185
142.7525, 4272
142.755, 4259
142.7575, 4242
142.76, 4241
142.7625, 4250
142.765, 4232
142.7675, 4152
142.77, 4245
142.7725, 4244
142.775, 4225
142.7775, 4226
142.78, 4217
142.7825, 4187
142.785, 4124
142.7875, 4212
142.79, 4179
142.7925, 4194
142.795, 4180
142.7975, 4184
142.8, 4193
142.8025, 4116
142.805, 4177
142.8075, 4187
142.81, 4181
142.8125, 4183
142.815, 4186
142.8175, 4186
142.82, 4097
142.8225, 4186
142.825, 4172
142.8275, 4154
142.83, 4177
142.8325, 4184
142.835, 4174
142.8375, 4099
142.84, 4174
142.8425, 4175
142.845, 4170
142.8475, 4171
142.85, 4217
142.8525, 4190
142.855, 4115
142.8575, 4172
142.86, 4170
142.8625, 4183
142.865, 4174
142.8675, 4173
142.87, 4181
142.8725, 4122
142.875, 4201
142.8775, 4211
142.88, 4193
142.8825, 4186
142.885, 4183
142.8875, 4173
142.89, 4130
142.8925, 4222
142.895, 4201
142.8975, 4195
142.9, 4197
142.9025, 4203
142.905, 4186
142.9075, 4105
142.91, 4188
142.9125, 4191
142.915, 4183
142.9175, 4179
142.92, 4173
142.9225, 4175
142.925, 4119
142.9275, 4208
142.93, 4195
142.9325, 4196
142.935, 4201
142.9375, 4199
142.94, 4183
142.9425, 4130
142.945, 4208
142.9475, 4165
142.95, 4162
142.9525, 4162
142.955, 4182
142.9575, 4163
142.96, 4093
142.9625, 4207
142.965, 4193
142.9675, 4199
142.97, 4179
142.9725, 4202
142.975, 4189
142.9775, 4072
142.98, 4169
142.9825, 4176
142.985, 4156
142.9875, 4154
142.99, 4163
142.9925, 4157
142.995, 4047
142.9975, 4159
143.0, 4153
143.0025, 4163
143.005, 4156
143.0075, 4163
143.01, 4157
143.0125, 4124
143.015, 4164
143.0175, 4150
143.02, 4141
143.0225, 4144
143.025, 4176
143.0275, 4120
143.03, 4075
143.0325, 4177
143.035, 4162
143.0375, 4161
143.04, 4140
143.0425, 4160
143.045, 4146
143.0475, 4089
143.05, 4163
143.0525, 4153
143.055, 4135
143.0575, 4141
143.06, 4146
143.0625, 4147
143.065, 4106
143.0675, 4119
143.07, 4156
143.0725, 4174
143.075, 4154
143.0775, 4158
143.08, 4167
143.0825, 4086
143.085, 4185
143.0875, 4159
143.09, 4145
143.0925, 4147
143.095, 4149
143.0975, 4127
143.1, 4079
143.1025, 4135
143.105, 4143
143.1075, 4135
143.11, 4145
143.1125, 4172
143.115, 4152
143.1175, 4072
143.12, 4159
143.1225, 4151
143.125, 4153
143.1275, 4153
143.13, 4175
143.1325, 4139
143.135, 4085
143.1375, 4174
143.14, 4166
143.1425, 4150
143.145, 4141
143.1475, 4162
143.15, 4154
143.1525, 4090
143.155, 4171
143.1575, 4140
143.16, 4139
143.1625, 4142
143.165, 4169
143.1675, 4160
143.17, 4078
143.1725, 4189
143.175, 4184
143.1775, 4185
143.18, 4181
143.1825, 4190
143.185, 4185
143.1875, 4162
143.19, 4166
143.1925, 4165
143.195, 4168
143.1975, 4156
143.2, 4154
143.2025, 4169
143.205, 4106
143.2075, 4165
143.21, 4168
143.2125, 4180
143.215, 4167
143.2175, 4182
143.22, 4167
143.2225, 4105
143.225, 4175
143.2275, 4174
143.23, 4170
143.2325, 4163
143.235, 4178
143.2375, 4180
143.24, 4153
143.2425, 4185
143.245, 4174
143.2475, 4162
143.25, 4191
143.2525, 4209
143.255, 4195
143.2575, 4119
143.26, 4191
143.2625, 4183
143.265, 4182
143.2675, 4169
143.27, 4152
143.2725, 4168
143.275, 4102
143.2775, 4150
143.28, 4177
143.2825, 4162
143.285, 4163
143.2875, 4167
143.29, 4191
143.2925, 4122
143.295, 4196
143.2975, 4168
143.3, 4173
143.3025, 4178
143.305, 4188
143.3075, 4198
143.31, 4123
143.3125, 4214
143.315, 4201
143.3175, 4185
143.32, 4156
143.3225, 4146
143.325, 4148
143.3275, 4059
143.33, 4117
143.3325, 4112
143.335, 4128
143.3375, 4130
143.34, 4146
143.3425, 4143
143.345, 4086
143.3475, 4155
143.35, 4138
143.3525, 4153
143.355, 4158
143.3575, 4181
143.36, 4188
143.3625, 4137
143.365, 4235
143.3675, 4217
143.37, 4208
143.3725, 4206
143.375, 4211
143.3775, 4196
143.38, 4122
143.3825, 4199
143.385, 4185
143.3875, 4180
143.39, 4180
143.3925, 4175
143.395, 4176
143.3975, 4106
143.4, 4208
143.4025, 4183
143.405, 4172
143.4075, 4169
143.41, 4200
143.4125, 4187
143.415, 4143
143.4175, 4169
143.42, 4179
143.4225, 4206
143.425, 4268
143.4275, 4349
143.43, 4396
143.4325, 4376
143.435, 4477
143.4375, 4491
143.44, 4427
143.4425, 4249
143.445, 4047
143.4475, 3804
143.45, 3435
143.4525, 3149
143.455, 2757
143.4575, 2251
143.46, 1922
143.4625, 1827
143.465, 1900
143.4675, 2239
143.47, 2966
143.4725, 3836
143.475, 4509
143.4775, 4807
143.48, 4898
143.4825, 4834
143.485, 4604
143.4875, 4571
143.49, 4541
143.4925, 4516
143.495, 4515
143.4975, 4538
143.5, 4510
143.5025, 4414
143.505, 4511
143.5075, 4516
143.51, 4516
143.5125, 4503
143.515, 4479
143.5175, 4487
143.52, 4402
143.5225, 4457
143.525, 4441
143.5275, 4424
143.53, 4425
143.5325, 4433
143.535, 4433
143.5375, 4371
143.54, 4451
143.5425, 4435
143.545, 4425
143.5475, 4390
143.55, 4432
143.5525, 4416
143.555, 4349
143.5575, 4393
143.56, 4362
143.5625, 4363
143.565, 4340
143.5675, 4342
143.57, 4310
143.5725, 4232
143.575, 4331
143.5775, 4311
143.58, 4292
143.5825, 4312
143.585, 4292
143.5875, 4288
143.59, 4213
143.5925, 4252
143.595, 4249
143.5975, 4228
143.6, 4221
143.6025, 4245
143.605, 4223
143.6075, 4168
143.61, 4251
143.6125, 4240
143.615, 4251
143.6175, 4254
143.62, 4245
143.6225, 4228
143.625, 4162
143.6275, 4225
143.63, 4224
143.6325, 4218
143.635, 4212
143.6375, 4215
143.64, 4196
143.6425, 4158
143.645, 4203
143.6475, 4206
143.65, 4181
143.6525, 4161
143.655, 4207
143.6575, 4186
143.66, 4133
143.6625, 4200
143.665, 4183
143.6675, 4212
143.67, 4224
143.6725, 4227
143.675, 4221
143.6775, 4140
143.68, 4224
143.6825, 4215
143.685, 4201
143.6875, 4220
143.69, 4244
143.6925, 4227
143.695, 4109
143.6975, 4209
143.7, 4198
143.7025, 4192
143.705, 4204
143.7075, 4188
143.71, 4199
143.7125, 4111
143.715, 4196
143.7175, 4194
143.72, 4176
143.7225, 4194
143.725, 4166
143.7275, 4160
143.73, 4090
143.7325, 4160
143.735, 4142
143.7375, 4125
143.74, 4130
143.7425, 4117
143.745, 4117
143.7475, 4047
143.75, 4103
143.7525, 4102
143.755, 4091
143.7575, 4080
143.76, 4086
143.7625, 4089
143.765, 4029
143.7675, 4112
143.77, 4119
143.7725, 4102
143.775, 4094
143.7775, 4088
143.78, 4093
143.7825, 4054
143.785, 4134
143.7875, 4138
143.79, 4155
143.7925, 4151
143.795, 4170
143.7975, 4152
143.8, 4106
143.8025, 4186
143.805, 4186
143.8075, 4164
143.81, 4175
143.8125, 4172
143.815, 4191
143.8175, 4116
143.82, 4184
143.8225, 4201
143.825, 4180
143.8275, 4165
143.83, 4197
143.8325, 4219
143.835, 4132
143.8375, 4193
143.84, 4181
143.8425, 4179
143.845, 4179
143.8475, 4199
143.85, 4194
143.8525, 4129
143.855, 4205
143.8575, 4196
143.86, 4201
143.8625, 4179
143.865, 4158
143.8675, 4148
143.87, 4072
143.8725, 4196
143.875, 4191
143.8775, 4173
143.88, 4189
143.8825, 4181
143.885, 4189
143.8875, 4114
143.89, 4193
143.8925, 4170
143.895, 4178
143.8975, 4181
143.9, 4178
143.9025, 4167
143.905, 4136
143.9075, 4149
143.91, 4169
143.9125, 4155
143.915, 4073
143.9175, 4188
143.92, 4158
143.9225, 4092
143.925, 4138
143.9275, 4150
143.93, 4155
143.9325, 4175
143.935, 4168
143.9375, 4149
143.94, 4028
143.9425, 4178
143.945, 4168
143.9475, 4169
143.95, 4177
143.9525, 4187
143.955, 4182
143.9575, 4106
143.96, 4167
143.9625, 4150
143.965, 4173
143.9675, 4166
143.97, 4176
143.9725, 4175
143.975, 4138
143.9775, 4176
143.98, 4169
143.9825, 4171
143.985, 4181
143.9875, 4206
143.99, 4221
143.9925, 4135
143.995, 4197
143.9975, 4178
144.0, 4174
144.0025, 4179
144.005, 4173
144.0075, 4178
144.01, 4097
144.0125, 4187
144.015, 4186
144.0175, 4164
144.02, 4168
144.0225, 4155
144.025, 4175
144.0275, 4102
144.03, 4177
144.0325, 4173
144.035, 4167
144.0375, 4122
144.04, 4118
144.0425, 4122
144.045, 4057
144.0475, 4162
144.05, 4157
144.0525, 4156
144.055, 4169
144.0575, 4185
144.06, 4168
144.0625, 4077
144.065, 4167
144.0675, 4161
144.07, 4170
144.0725, 4171
144.075, 4176
144.0775, 4182
144.08, 4117
144.0825, 4183
144.085, 4171
144.0875, 4181
144.09, 4176
144.0925, 4179
144.095, 4171
144.0975, 4149
144.1, 4161
144.1025, 4163
144.105, 4175
144.1075, 4179
144.11, 4182
144.1125, 4173
144.115, 4111
144.1175, 4176
144.12, 4178
144.1225, 4175
144.125, 4175
144.1275, 4183
144.13, 4180
144.1325, 4075
144.135, 4176
144.1375, 4193
144.14, 4185
144.1425, 4174
144.145, 4162
144.1475, 4185
144.15, 4125
144.1525, 4167
144.155, 4168
144.1575, 4160
144.16, 4167
144.1625, 4176
144.165, 4181
144.1675, 4124
144.17, 4207
144.1725, 4193
144.175, 4186
144.1775, 4162
144.18, 4170
144.1825, 4187
144.185, 4086
144.1875, 4178
144.19, 4148
144.1925, 4155
144.195, 4136
144.1975, 4170
144.2, 4164
144.2025, 4090
144.205, 4154
144.2075, 4161
144.21, 4144
144.2125, 4148
144.215, 4178
144.2175, 4158
144.22, 4090
144.2225, 4166
144.225, 4157
144.2275, 4155
144.23, 4162
144.2325, 4166
144.235, 4168
144.2375, 4097
144.24, 4187
144.2425, 4165
144.245, 4160
144.2475, 4155
144.25, 4170
144.2525, 4158
144.255, 4067
144.2575, 4167
144.26, 4154
144.2625, 4163
144.265, 4175
144.2675, 4176
144.27, 4169
144.2725, 4089
144.275, 4154
144.2775, 4179
144.28, 4160
144.2825, 4153
144.285, 4151
144.2875, 4145
144.29, 4066
144.2925, 4148
144.295, 4146
144.2975, 4141
144.3, 4154
144.3025, 4177
144.305, 4158
144.3075, 4081
144.31, 4183
144.3125, 4181
144.315, 4155
144.3175, 4147
144.32, 4152
144.3225, 4153
144.325, 4113
144.3275, 4132
144.33, 4148
144.3325, 4152
144.335, 4173
144.3375, 4176
144.34, 4162
144.3425, 4090
144.345, 4167
144.3475, 4152
144.35, 4142
144.3525, 4151
144.355, 4164
144.3575, 4144
144.36, 4078
144.3625, 4147
144.365, 4143
144.3675, 4156
144.37, 4140
144.3725, 4141
144.375, 4127
144.3775, 4102
144.38, 4147
144.3825, 4141
144.385, 4131
144.3875, 4134
144.39, 4152
144.3925, 4143
144.395, 4085
144.3975, 4177
144.4, 4168
144.4025, 4157
144.405, 4161
144.4075, 4194
144.41, 4193
144.4125, 4067
144.415, 4186
144.4175, 4192
144.42, 4165
144.4225, 4151
144.425, 4166
144.4275, 4162
144.43, 4109
144.4325, 4160
144.435, 4171
144.4375, 4171
144.44, 4172
144.4425, 4172
144.445, 4182
144.4475, 4115
144.45, 4162
144.4525, 4126
144.455, 4133
144.4575, 4113
144.46, 4092
144.4625, 4047
144.465, 3989
144.4675, 4074
144.47, 4051
144.4725, 4075
144.475, 4080
144.4775, 4094
144.48, 4120
144.4825, 4066
144.485, 4149
144.4875, 4146
144.49, 4151
144.4925, 4170
144.495, 4181
144.4975, 4174
144.5, 4144
144.5025, 4193
144.505, 4187
144.5075, 4211
144.51, 4197
144.5125, 4203
144.515, 4204
144.5175, 4139
144.52, 4207
144.5225, 4201
144.525, 4221
144.5275, 4213
144.53, 4234
144.5325, 4233
144.535, 4156
144.5375, 4224
144.54, 4206
144.5425, 4199
144.545, 4199
144.5475, 4218
144.55, 4197
144.5525, 4175
144.555, 4201
144.5575, 4202
144.56, 4213
144.5625, 4240
144.565, 4311
144.5675, 4354
144.57, 4320
144.5725, 4420
144.575, 4442
144.5775, 4432
144.58, 4355
144.5825, 4170
144.585, 3967
144.5875, 3649
144.59, 3443
144.5925, 3117
144.595, 2743
144.5975, 2242
144.6, 1971
144.6025, 1838
144.605, 1897
144.6075, 2300
144.61, 2994
144.6125, 3857
144.615, 4495
144.6175, 4807
144.62, 4884
144.6225, 4765
144.625, 4708
144.6275, 4613
144.63, 4534
144.6325, 4523
144.635, 4490
144.6375, 4456
144.64, 4407
144.6425, 4484
144.645, 4473
144.6475, 4482
144.65, 4479
144.6525, 4484
144.655, 4468
144.6575, 4323
144.66, 4439
144.6625, 4442
144.665, 4443
144.6675, 4435
144.67, 4410
144.6725, 4422
144.675, 4337
144.6775, 4422
144.68, 4411
144.6825, 4392
144.685, 4376
144.6875, 4379
144.69, 4355
144.6925, 4271
144.695, 4327
144.6975, 4340
144.7, 4333
144.7025, 4346
144.705, 4347
144.7075, 4314
144.71, 4240
144.7125, 4304
144.715, 4303
144.7175, 4291
144.72, 4283
144.7225, 4305
144.725, 4273
144.7275, 4222
144.73, 4262
144.7325, 4242
144.735, 4227
144.7375, 4246
144.74, 4247
144.7425, 4199
144.745, 4125
144.7475, 4201
144.75, 4201
144.7525, 4198
144.755, 4207
144.7575, 4214
144.76, 4219
144.7625, 4146
144.765, 4209
144.7675, 4223
144.77, 4227
144.7725, 4206
144.775, 4222
144.7775, 4210
144.78, 4136
144.7825, 4213
144.785, 4206
144.7875, 4201
144.79, 4204
144.7925, 4189
144.795, 4192
144.7975, 4130
144.8, 4218
144.8025, 4218
144.805, 4219
144.8075, 4206
144.81, 4198
144.8125, 4203
144.815, 4131
144.8175, 4190
144.82, 4167
144.8225, 4160
144.825, 4136
144.8275, 4158
144.83, 4164
144.8325, 4094
144.835, 4197
144.8375, 4197
144.84, 4187
144.8425, 4185
144.845, 4171
144.8475, 4169
144.85, 4112
144.8525, 4147
144.855, 4174
144.8575, 4171
144.86, 4157
144.8625, 4141
144.865, 4172
144.8675, 4076
144.87, 4148
144.8725, 4131
144.875, 4150
144.8775, 4135
144.88, 4139
144.8825, 4126
144.885, 4001
144.8875, 4105
144.89, 4109
144.8925, 4100
144.895, 4110
144.8975, 4120
144.9, 4122
144.9025, 4104
144.905, 4165
144.9075, 4149
144.91, 4130
144.9125, 4153
144.915, 4149
144.9175, 4127
144.92, 4143
144.9225, 4182
144.925, 4181
144.9275, 4190
144.93, 4146
144.9325, 4199
144.935, 4218
144.9375, 4100
144.94, 4231
144.9425, 4220
144.945, 4230
144.9475, 4225
144.95, 4231
144.9525, 4219
144.955, 4165
144.9575, 4253
144.96, 4243
144.9625, 4248
144.965, 4247
144.9675, 4264
144.97, 4250
144.9725, 4172
144.975, 4266
144.9775, 4261
144.98, 4261
144.9825, 4266
144.985, 4252
144.9875, 4244
144.99, 4157
144.9925, 4225
144.995, 4226
144.9975, 4199
145.0, 4208
145.0025, 4213
145.005, 4203
145.0075, 4146
145.01, 4203
145.0125, 4210
145.015, 4202
145.0175, 4173
145.02, 4193
145.0225, 4184
145.025, 4128
145.0275, 4204
145.03, 4204
145.0325, 4192
145.035, 4197
145.0375, 4206
145.04, 4198
145.0425, 4052
145.045, 4195
145.0475, 4195
145.05, 4185
145.0525, 4154
145.055, 4185
145.0575, 4177
145.06, 4115
145.0625, 4188
145.065, 4191
145.0675, 4192
145.07, 4196
145.0725, 4215
145.075, 4181
145.0775, 4151
145.08, 4197
145.0825, 4200
145.085, 4192
145.0875, 4198
145.09, 4208
145.0925, 4215
145.095, 4085
145.0975, 4202
145.1, 4214
145.1025, 4164
145.105, 4161
145.1075, 4177
145.11, 4185
145.1125, 4116
145.115, 4197
145.1175, 4198
145.12, 4207
145.1225, 4173
145.125, 4166
145.1275, 4187
145.13, 4142
145.1325, 4173
145.135, 4181
145.1375, 4178
145.14, 4178
145.1425, 4209
145.145, 4195
145.1475, 4094
145.15, 4204
145.1525, 4179
145.155, 4191
145.1575, 4189
145.16, 4215
145.1625, 4194
145.165, 4110
145.1675, 4174
145.17, 4192
145.1725, 4193
145.175, 4177
145.1775, 4199
145.18, 4204
145.1825, 4122
145.185, 4191
145.1875, 4187
145.19, 4170
145.1925, 4188
145.195, 4173
145.1975, 4144
145.2, 4072
145.2025, 4151
145.205, 4170
145.2075, 4149
145.21, 4152
145.2125, 4170
145.215, 4159
145.2175, 4050
145.22, 4211
145.2225, 4203
145.225, 4156
145.2275, 4147
145.23, 4181
145.2325, 4176
145.235, 4069
145.2375, 4189
145.24, 4192
145.2425, 4173
145.245, 4173
145.2475, 4193
145.25, 4192
145.2525, 4128
145.255, 4222
145.2575, 4164
145.26, 4151
145.2625, 4153
145.265, 4185
145.2675, 4193
145.27, 4098
145.2725, 4164
145.275, 4173
145.2775, 4167
145.28, 4176
145.2825, 4193
145.285, 4194
145.2875, 4115
145.29, 4186
145.2925, 4179
145.295, 4173
145.2975, 4164
145.3, 4188
145.3025, 4182
145.305, 4148
145.3075, 4162
145.31, 4158
145.3125, 4138
145.315, 4156
145.3175, 4170
145.32, 4186
145.3225, 4107
145.325, 4196
145.3275, 4192
145.33, 4196
145.3325, 4194
145.335, 4204
145.3375, 4179
145.34, 4047
145.3425, 4184
145.345, 4177
145.3475, 4158
145.35, 4116
145.3525, 4168
145.355, 4180
145.3575, 4085
145.36, 4184
145.3625, 4170
145.365, 4165
145.3675, 4160
145.37, 4152
145.3725, 4157
145.375, 4075
145.3775, 4150
145.38, 4169
145.3825, 4164
145.385, 4135
145.3875, 4186
145.39, 4181
145.3925, 4113
145.395, 4188
145.3975, 4224
145.4, 4188
145.4025, 4169
145.405, 4176
145.4075, 4180
145.41, 4074
145.4125, 4182
145.415, 4186
145.4175, 4204
145.42, 4181
145.4225, 4189
145.425, 4193
145.4275, 4116
145.43, 4187
145.4325, 4184
145.435, 4173
145.4375, 4173
145.44, 4194
145.4425, 4175
145.445, 4093
145.4475, 4167
145.45, 4170
145.4525, 4185
145.455, 4179
145.4575, 4204
145.46, 4201
145.4625, 4139
145.465, 4230
145.4675, 4184
145.47, 4152
145.4725, 4149
145.475, 4142
145.4775, 4101
145.48, 4025
145.4825, 4087
145.485, 4097
145.4875, 4082
145.49, 4073
145.4925, 4119
145.495, 4133
145.4975, 4077
145.5, 4159
145.5025, 4156
145.505, 4165
145.5075, 4143
145.51, 4143
145.5125, 4174
145.515, 4101
145.5175, 4196
145.52, 4176
145.5225, 4173
145.525, 4166
145.5275, 4178
145.53, 4184
145.5325, 4120
145.535, 4174
145.5375, 4166
145.54, 4178
145.5425, 4176
145.545, 4169
145.5475, 4169
145.55, 4091
145.5525, 4168
145.555, 4173
145.5575, 4162
145.56, 4186
145.5625, 4185
145.565, 4174
145.5675, 4092
145.57, 4165
145.5725, 4168
145.575, 4185
145.5775, 4199
145.58, 4277
145.5825, 4335
145.585, 4300
145.5875, 4398
145.59, 4430
145.5925, 4409
145.595, 4326
145.5975, 4186
145.6, 3945
145.6025, 3616
145.605, 3407
145.6075, 3102
145.61, 2727
145.6125, 2258
145.615, 1986
145.6175, 1820
145.62, 1852
145.6225, 2314
145.625, 2972
145.6275, 3898
145.63, 4638
145.6325, 4967
145.635, 5009
145.6375, 4888
145.64, 4790
145.6425, 4654
145.645, 4580
145.6475, 4542
145.65, 4534
145.6525, 4481
145.655, 4388
145.6575, 4456
145.66, 4480
145.6625, 4476
145.665, 4465
145.6675, 4512
145.67, 4482
145.6725, 4389
145.675, 4449
145.6775, 4458
145.68, 4431
145.6825, 4397
145.685, 4413
145.6875, 4393
145.69, 4323
145.6925, 4363
145.695, 4370
145.6975, 4358
145.7, 4347
145.7025, 4330
145.705, 4331
145.7075, 4199
145.71, 4335
145.7125, 4339
145.715, 4294
145.7175, 4289
145.72, 4298
145.7225, 4283
145.725, 4221
145.7275, 4321
145.73, 4282
145.7325, 4270
145.735, 4164
145.7375, 4270
145.74, 4226
145.7425, 4162
145.745, 4239
145.7475, 4250
145.75, 4222
145.7525, 4226
145.755, 4218
145.7575, 4215
145.76, 4160
145.7625, 4200
145.765, 4192
145.7675, 4201
145.77, 4188
145.7725, 4199
145.775, 4202
145.7775, 4155
145.78, 4219
145.7825, 4207
145.785, 4197
145.7875, 4183
145.79, 4218
145.7925, 4183
145.795, 4114
145.7975, 4192
145.8, 4189
145.8025, 4172
145.805, 4190
145.8075, 4199
145.81, 4178
145.8125, 4065
145.815, 4195
145.8175, 4172
145.82, 4185
145.8225, 4184
145.825, 4173
145.8275, 4173
145.83, 4119
145.8325, 4173
145.835, 4170
145.8375, 4153
145.84, 4158
145.8425, 4155
145.845, 4155
145.8475, 4071
145.85, 4130
145.8525, 4127
145.855, 4134
145.8575, 4123
145.86, 4153
145.8625, 4177
145.865, 4096
145.8675, 4174
145.87, 4167
145.8725, 4154
145.875, 4152
145.8775, 4153
145.88, 4157
145.8825, 4083
145.885, 4141
145.8875, 4136
145.89, 4122
145.8925, 4135
145.895, 4118
145.8975, 4133
145.9, 4044
145.9025, 4143
145.905, 4125
145.9075, 4137
145.91, 4113
145.9125, 4143
145.915, 4163
145.9175, 4083
145.92, 4175
145.9225, 4159
145.925, 4148
145.9275, 4125
145.93, 4179
145.9325, 4188
145.935, 4099
145.9375, 4202
145.94, 4203
145.9425, 4205
145.945, 4234
145.9475, 4222
145.95, 4205
145.9525, 4101
145.955, 4200
145.9575, 4211
145.96, 4227
145.9625, 4227
145.965, 4246
145.9675, 4225
145.97, 4140
145.9725, 4233
145.975, 4230
145.9775, 4240
145.98, 4238
145.9825, 4237
145.985, 4230
145.9875, 4171
145.99, 4235
145.9925, 4227
145.995, 4241
145.9975, 4241
146.0, 4250
146.0025, 4195
146.005, 4188
146.0075, 4215
146.01, 4201
146.0125, 4204
146.015, 4202
146.0175, 4205
146.02, 4177
146.0225, 4129
146.025, 4197
146.0275, 4195
146.03, 4190
146.0325, 4175
146.035, 4189
146.0375, 4190
146.04, 4129
146.0425, 4186
146.045, 4198
146.0475, 4193
146.05, 4186
146.0525, 4209
146.055, 4212
146.0575, 4145
146.06, 4214
146.0625, 4201
146.065, 4187
146.0675, 4168
146.07, 4158
146.0725, 4186
146.075, 4127
146.0775, 4194
146.08, 4204
146.0825, 4184
146.085, 4174
146.0875, 4195
146.09, 4169
146.0925, 4088
146.095, 4187
146.0975, 4182
146.1, 4171
146.1025, 4168
146.105, 4152
146.1075, 4162
146.11, 4099
146.1125, 4190
146.115, 4202
146.1175, 4176
146.12, 4185
146.1225, 4190
146.125, 4170
146.1275, 4146
146.13, 4171
146.1325, 4177
146.135, 4176
146.1375, 4169
146.14, 4183
146.1425, 4180
146.145, 4099
146.1475, 4177
146.15, 4177
146.1525, 4193
146.155, 4170
146.1575, 4173
146.16, 4195
146.1625, 4114
146.165, 4191
146.1675, 4194
146.17, 4173
146.1725, 4191
146.175, 4189
146.1775, 4194
146.18, 4104
146.1825, 4194
146.185, 4216
146.1875, 4185
146.19, 4153
146.1925, 4166
146.195, 4180
146.1975, 4133
146.2, 4196
146.2025, 4189
146.205, 4177
146.2075, 4157
146.21, 4219
146.2125, 4209
146.215, 4128
146.2175, 4200
146.22, 4210
146.2225, 4189
146.225, 4166
146.2275, 4167
146.23, 4174
146.2325, 4088
146.235, 4167
146.2375, 4174
146.24, 4169
146.2425, 4168
146.245, 4156
146.2475, 4161
146.25, 4117
146.2525, 4171
146.255, 4178
146.2575, 4191
146.26, 4197
146.2625, 4191
146.265, 4169
146.2675, 4060
146.27, 4178
146.2725, 4179
146.275, 4170
146.2775, 4174
146.28, 4183
146.2825, 4181
146.285, 4098
146.2875, 4191
146.29, 4183
146.2925, 4171
146.295, 4179
146.2975, 4152
146.3, 4180
146.3025, 4125
146.305, 4166
146.3075, 4171
146.31, 4162
146.3125, 4157
146.315, 4191
146.3175, 4157
146.32, 4091
146.3225, 4166
146.325, 4167
146.3275, 4163
146.33, 4144
146.3325, 4144
146.335, 4178
146.3375, 4103
146.34, 4178
146.3425, 4162
146.345, 4176
146.3475, 4173
146.35, 4168
146.3525, 4163
146.355, 4142
146.3575, 4174
146.36, 4179
146.3625, 4164
146.365, 4177
146.3675, 4175
146.37, 4161
146.3725, 4089
146.375, 4168
146.3775, 4165
146.38, 4153
146.3825, 4149
146.385, 4161
146.3875, 4162
146.39, 4089
146.3925, 4170
146.395, 4154
146.3975, 4152
146.4, 4145
146.4025, 4158
146.405, 4161
146.4075, 4099
146.41, 4168
146.4125, 4176
146.415, 4185
146.4175, 4184
146.42, 4200
146.4225, 4191
146.425, 4098
146.4275, 4173
146.43, 4151
146.4325, 4153
146.435, 4167
146.4375, 4157
146.44, 4164
146.4425, 4089
146.445, 4180
146.4475, 4167
146.45, 4169
146.4525, 4184
146.455, 4170
146.4575, 4181
146.46, 4103
146.4625, 4195
146.465, 4196
146.4675, 4168
146.47, 4174
146.4725, 4190
146.475, 4184
146.4775, 4104
146.48, 4193
146.4825, 4173
146.485, 4183
146.4875, 4180
146.49, 4201
146.4925, 4177
146.495, 4107
146.4975, 4189
146.5, 4172
146.5025, 4200
146.505, 4199
146.5075, 4187
146.51, 4180
146.5125, 4099
146.515, 4168
146.5175, 4161
146.52, 4148
146.5225, 4145
146.525, 4163
146.5275, 4147
146.53, 4116
146.5325, 4155
146.535, 4147
146.5375, 4155
146.54, 4149
146.5425, 4143
146.545, 4158
146.5475, 4087
146.55, 4177
146.5525, 4170
146.555, 4171
146.5575, 4170
146.56, 4171
146.5625, 4155
146.565, 4105
146.5675, 4197
146.57, 4181
146.5725, 4164
146.575, 4105
146.5775, 4151
146.58, 4111
146.5825, 4024
146.585, 4078
146.5875, 4062
146.59, 4092
146.5925, 4136
146.595, 4135
146.5975, 4158
146.6, 4070
146.6025, 4170
146.605, 4170
146.6075, 4192
146.61, 4197
146.6125, 4203
146.615, 4150
146.6175, 4085
146.62, 4171
146.6225, 4172
146.625, 4160
146.6275, 4148
146.63, 4155
146.6325, 4149
146.635, 4063
146.6375, 4166
146.64, 4173
146.6425, 4168
146.645, 4174
146.6475, 4166
146.65, 4147
146.6525, 4092
146.655, 4176
146.6575, 4151
146.66, 4152
146.6625, 4151
146.665, 4168
146.6675, 4172
146.67, 4086
146.6725, 4188
146.675, 4226
146.6775, 4302
146.68, 4380
146.6825, 4406
146.685, 4438
146.6875, 4388
146.69, 4497
146.6925, 4374
146.695, 4204
146.6975, 3987
146.7, 3720
146.7025, 3389
146.705, 3028
146.7075, 2655
146.71, 2145
146.7125, 1868
146.715, 1836
146.7175, 1880
146.72, 2331
146.7225, 3054
146.725, 3974
146.7275, 4566
146.73, 4858
146.7325, 4886
146.735, 4790
146.7375, 4635
146.74, 4461
146.7425, 4531
146.745, 4537
146.7475, 4508
146.75, 4509
146.7525, 4517
146.755, 4525
146.7575, 4450
146.76, 4522
146.7625, 4515
146.765, 4508
146.7675, 4497
146.77, 4509
146.7725, 4491
146.775, 4379
146.7775, 4464
146.78, 4456
146.7825, 4442
146.785, 4411
146.7875, 4449
146.79, 4425
146.7925, 4354
146.795, 4399
146.7975, 4421
146.8, 4389
146.8025, 4364
146.805, 4400
146.8075, 4376
146.81, 4285
146.8125, 4370
146.815, 4357
146.8175, 4331
146.82, 4315
146.8225, 4317
146.825, 4315
146.8275, 4233
146.83, 4299
146.8325, 4313
146.835, 4284
146.8375, 4277
146.84, 4284
146.8425, 4282
146.845, 4228
146.8475, 4290
146.85, 4254
146.8525, 4249
146.855, 4257
146.8575, 4273
146.86, 4248
146.8625, 4168
146.865, 4266
146.8675, 4268
146.87, 4246
146.8725, 4236
146.875, 4245
146.8775, 4239
146.88, 4196
146.8825, 4204
146.885, 4207
146.8875, 4219
146.89, 4209
146.8925, 4233
146.895, 4208
146.8975, 4110
146.9, 4199
146.9025, 4193
146.905, 4202
146.9075, 4212
146.91, 4207
146.9125, 4231
146.915, 4148
146.9175, 4213
146.92, 4232
146.9225, 4220
146.925, 4194
146.9275, 4228
146.93, 4210
146.9325, 4143
146.935, 4230
146.9375, 4221
146.94, 4228
146.9425, 4209
146.945, 4217
146.9475, 4216
146.95, 4140
146.9525, 4222
146.955, 4241
146.9575, 4235
146.96, 4237
146.9625, 4259
146.965, 4243
146.9675, 4158
146.97, 4222
146.9725, 4233
146.975, 4206
146.9775, 4185
146.98, 4187
146.9825, 4160
146.985, 4053
146.9875, 4160
146.99, 4171
146.9925, 4166
146.995, 4149
146.9975, 4133
147.0, 4135
147.0025, 4109
147.005, 4107
147.0075, 4078
147.01, 4064
147.0125, 4038
147.015, 4064
147.0175, 4079
147.02, 3997
147.0225, 4110
147.025, 4103
147.0275, 4133
147.03, 4141
147.0325, 4137
147.035, 4129
147.0375, 4073
147.04, 4167
147.0425, 4171
147.045, 4154
147.0475, 4166
147.05, 4153
147.0525, 4169
147.055, 4130
147.0575, 4191
147.06, 4207
147.0625, 4213
147.065, 4197
147.0675, 4190
147.07, 4192
147.0725, 4082
147.075, 4220
147.0775, 4217
147.08, 4194
147.0825, 4206
147.085, 4193
147.0875, 4158
147.09, 4103
147.0925, 4173
147.095, 4160
147.0975, 4190
147.1, 4154
147.1025, 4201
147.105, 4205
147.1075, 4122
147.11, 4189
147.1125, 4192
147.115, 4203
147.1175, 4189
147.12, 4181
147.1225, 4162
147.125, 4096
147.1275, 4176
147.13, 4180
147.1325, 4180
147.135, 4166
147.1375, 4156
147.14, 4144
147.1425, 4016
147.145, 4157
147.1475, 4160
147.15, 4139
147.1525, 4133
147.155, 4174
147.1575, 4185
147.16, 4088
147.1625, 4174
147.165, 4160
147.1675, 4151
147.17, 4148
147.1725, 4125
147.175, 4133
147.1775, 4075
147.18, 4142
147.1825, 4156
147.185, 4143
147.1875, 4163
147.19, 4170
147.1925, 4141
147.195, 4063
147.1975, 4148
147.2, 4151
147.2025, 4167
147.205, 4180
147.2075, 4170
147.21, 4157
147.2125, 4087
147.215, 4182
147.2175, 4203
147.22, 4169
147.2225, 4143
147.225, 4177
147.2275, 4171
147.23, 4085
147.2325, 4174
147.235, 4178
147.2375, 4180
147.24, 4170
147.2425, 4174
147.245, 4153
147.2475, 4063
147.25, 4135
147.2525, 4140
147.255, 4142
147.2575, 4167
147.26, 4177
147.2625, 4160
147.265, 4072
147.2675, 4144
147.27, 4122
147.2725, 4154
147.275, 4144
147.2775, 4159
147.28, 4170
147.2825, 4101
147.285, 4162
147.2875, 4159
147.29, 4166
147.2925, 4144
147.295, 4181
147.2975, 4170
147.3, 4123
147.3025, 4159
147.305, 4156
147.3075, 4163
147.31, 4181
147.3125, 4191
147.315, 4181
147.3175, 4119
147.32, 4171
147.3225, 4173
147.325, 4163
147.3275, 4163
147.33, 4150
147.3325, 4146
147.335, 4089
147.3375, 4189
147.34, 4199
147.3425, 4194
147.345, 4196
147.3475, 4176
147.35, 4191
147.3525, 4119
147.355, 4196
147.3575, 4178
147.36, 4176
147.3625, 4177
147.365, 4192
147.3675, 4175
147.37, 4099
147.3725, 4171
147.375, 4170
147.3775, 4172
147.38, 4165
147.3825, 4185
147.385, 4169
147.3875, 4104
147.39, 4178
147.3925, 4185
147.395, 4192
147.3975, 4181
147.4, 4181
147.4025, 4167
147.405, 4115
147.4075, 4168
147.41, 4136
147.4125, 4139
147.415, 4153
147.4175, 4168
147.42, 4179
147.4225, 4121
147.425, 4171
147.4275, 4149
147.43, 4157
147.4325, 4138
147.435, 4165
147.4375, 4170
147.44, 4082
147.4425, 4154
147.445, 4160
147.4475, 4165
147.45, 4162
147.4525, 4184
147.455, 4164
147.4575, 4119
147.46, 4204
147.4625, 4185
147.465, 4179
147.4675, 4181
147.47, 4192
147.4725, 4193
147.475, 4119
147.4775, 4194
147.48, 4194
147.4825, 4164
147.485, 4181
147.4875, 4186
147.49, 4193
147.4925, 4092
147.495, 4181
147.4975, 4172
147.5, 4170
147.5025, 4185
147.505, 4162
147.5075, 4158
147.51, 4100
147.5125, 4170
147.515, 4153
147.5175, 4173
147.52, 4174
147.5225, 4177
147.525, 4177
147.5275, 4098
147.53, 4158
147.5325, 4156
147.535, 4166
147.5375, 4155
147.54, 4154
147.5425, 4168
147.545, 4133
147.5475, 4172
147.55, 4177
147.5525, 4162
147.555, 4161
147.5575, 4161
147.56, 4182
147.5625, 4089
147.565, 4164
147.5675, 4163
147.57, 4169
147.5725, 4167
147.575, 4184
147.5775, 4178
147.58, 4114
147.5825, 4197
147.585, 4190
147.5875, 4179
147.59, 4191
147.5925, 4194
147.595, 4173
147.5975, 4153
147.6, 4188
147.6025, 4173
147.605, 4174
147.6075, 4176
147.61, 4163
147.6125, 4174
147.615, 4095
147.6175, 4193
147.62, 4186
147.6225, 4155
147.625, 4158
147.6275, 4133
147.63, 4152
147.6325, 4068
147.635, 4168
147.6375, 4156
147.64, 4133
147.6425, 4125
147.645, 4169
147.6475, 4160
147.65, 4090
147.6525, 4162
147.655, 4142
147.6575, 4160
147.66, 4163
147.6625, 4187
147.665, 4187
147.6675, 4118
147.67, 4195
147.6725, 4193
147.675, 4186
147.6775, 4166
147.68, 4173
147.6825, 4155
147.685, 4069
147.6875, 4124
147.69, 4090
147.6925, 4071
147.695, 4066
147.6975, 4099
147.7, 4118
147.7025, 4035
147.705, 4143
147.7075, 4143
147.71, 4156
147.7125, 4164
147.715, 4156
147.7175, 4163
147.72, 4104
147.7225, 4196
147.725, 4202
147.7275, 4205
147.73, 4183
147.7325, 4192
147.735, 4184
147.7375, 4091
147.74, 4181
147.7425, 4175
147.745, 4163
147.7475, 4176
147.75, 4196
147.7525, 4203
147.755, 4120
147.7575, 4195
147.76, 4178
147.7625, 4167
147.765, 4186
147.7675, 4187
147.77, 4202
147.7725, 4183
147.775, 4213
147.7775, 4182
147.78, 4144
147.7825, 4168
147.785, 4204
147.7875, 4206
147.79, 4169
147.7925, 4343
147.795, 4390
147.7975, 4419
147.8, 4459
147.8025, 4482
147.805, 4387
147.8075, 4200
147.81, 3997
147.8125, 3767
147.815, 3430
147.8175, 3127
147.82, 2797
147.8225, 2301
147.825, 1961
147.8275, 1872
147.83, 1982
147.8325, 2307
147.835, 2985
147.8375, 3863
147.84, 4524
147.8425, 4778
147.845, 4963
147.8475, 4921
147.85, 4792
147.8525, 4667
147.855, 4580
147.8575, 4562
147.86, 4458
147.8625, 4503
147.865, 4493
147.8675, 4486
147.87, 4502
147.8725, 4529
147.875, 4488
147.8775, 4421
147.88, 4503
147.8825, 4488
147.885, 4471
147.8875, 4454
147.89, 4452
147.8925, 4450
147.895, 4382
147.8975, 4441
147.9, 4443
147.9025, 4414
147.905, 4399
147.9075, 4409
147.91, 4385
147.9125, 4280
147.915, 4348
147.9175, 4341
147.92, 4351
147.9225, 4338
147.925, 4331
147.9275, 4336
147.93, 4218
147.9325, 4363
147.935, 4347
147.9375, 4323
147.94, 4319
147.9425, 4293
147.945, 4289
147.9475, 4255
147.95, 4271
147.9525, 4272
147.955, 4251
147.9575, 4239
147.96, 4261
147.9625, 4252
147.965, 4183
147.9675, 4251
147.97, 4232
147.9725, 4237
147.975, 4232
147.9775, 4236
147.98, 4238
147.9825, 4146
147.985, 4249
147.9875, 4234
147.99, 4217
147.9925, 4221
147.995, 4219
147.9975, 4217
148.0, 4140
148.0025, 4243
148.005, 4227
148.0075, 4223
148.01, 4196
148.0125, 4216
148.015, 4208
148.0175, 4110
148.02, 4190
148.0225, 4207
148.025, 4181
148.0275, 4189
148.03, 4200
148.0325, 4188
148.035, 4109
148.0375, 4205
148.04, 4197
148.0425, 4197
148.045, 4188
148.0475, 4199
148.05, 4185
148.0525, 4118
148.055, 4176
148.0575, 4157
148.06, 4141
148.0625, 4141
148.065, 4132
148.0675, 4130
148.07, 4049
148.0725, 4138
148.075, 4153
148.0775, 4144
148.08, 4143
148.0825, 4140
148.085, 4128
148.0875, 4026
148.09, 4168
148.0925, 4150
148.095, 4159
148.0975, 4155
148.1, 4165
148.1025, 4164
148.105, 4086
148.1075, 4159
148.11, 4134
148.1125, 4130
148.115, 4111
148.1175, 4132
148.12, 4125
148.1225, 4088
148.125, 4135
148.1275, 4151
148.13, 4151
148.1325, 4177
148.135, 4174
148.1375, 4158
148.14, 4095
148.1425, 4152
148.145, 4160
148.1475, 4180
148.15, 4176
148.1525, 4200
148.155, 4207
148.1575, 4147
148.16, 4219
148.1625, 4202
148.165, 4209
148.1675, 4234
148.17, 4256
148.1725, 4241
148.175, 4160
148.1775, 4218
148.18, 4208
148.1825, 4192
148.185, 4202
148.1875, 4208
148.19, 4232
148.1925, 4158
148.195, 4233
148.1975, 4246
148.2, 4242
148.2025, 4234
148.205, 4206
148.2075, 4207
148.21, 4147
148.2125, 4241
148.215, 4216
148.2175, 4204
148.22, 4208
148.2225, 4213
148.225, 4204
148.2275, 4131
148.23, 4219
148.2325, 4229
148.235, 4217
148.2375, 4219
148.24, 4204
148.2425, 4199
148.245, 4122
148.2475, 4221
148.25, 4207
148.2525, 4207
148.255, 4201
148.2575, 4215
148.26, 4233
148.2625, 4148
148.265, 4246
148.2675, 4212
148.27, 4208
148.2725, 4215
148.275, 4183
148.2775, 4186
148.28, 4132
148.2825, 4197
148.285, 4182
148.2875, 4177
148.29, 4164
148.2925, 4172
148.295, 4163
148.2975, 4126
148.3, 4154
148.3025, 4128
148.305, 4143
148.3075, 4131
148.31, 4154
148.3125, 4158
148.315, 4101
148.3175, 4169
148.32, 4184
148.3225, 4173
148.325, 4190
148.3275, 4181
148.33, 4160
148.3325, 4079
148.335, 4164
148.3375, 4173
148.34, 4173
148.3425, 4198
148.345, 4183
148.3475, 4168
148.35, 4143
148.3525, 4201
148.355, 4188
148.3575, 4188
148.36, 4170
148.3625, 4190
148.365, 4197
148.3675, 4114
148.37, 4176
148.3725, 4187
148.375, 4181
148.3775, 4154
148.38, 4167
148.3825, 4165
148.385, 4100
148.3875, 4179
148.39, 4176
148.3925, 4188
148.395, 4204
148.3975, 4189
148.4, 4174
148.4025, 4115
148.405, 4202
148.4075, 4202
148.41, 4186
148.4125, 4195
148.415, 4209
148.4175, 4189
148.42, 4102
148.4225, 4191
148.425, 4214
148.4275, 4197
148.43, 4186
148.4325, 4185
148.435, 4162
148.4375, 4081
148.44, 4165
148.4425, 4204
148.445, 4212
148.4475, 4205
148.45, 4208
148.4525, 4171
148.455, 4078
148.4575, 4137
148.46, 4148
148.4625, 4169
148.465, 4159
148.4675, 4182
148.47, 4182
148.4725, 4131
148.475, 4172
148.4775, 4177
148.48, 4188
148.4825, 4170
148.485, 4161
148.4875, 4169
148.49, 4094
148.4925, 4191
148.495, 4207
148.4975, 4190
148.5, 4190
148.5025, 4202
148.505, 4172
148.5075, 4044
148.51, 4196
148.5125, 4193
148.515, 4190
148.5175, 4181
148.52, 4204
148.5225, 4181
148.525, 4093
148.5275, 4172
148.53, 4192
148.5325, 4171
148.535, 4162
148.5375, 4173
148.54, 4165
148.5425, 4119
148.545, 4203
148.5475, 4191
148.55, 4173
148.5525, 4191
148.555, 4196
148.5575, 4175
148.56, 4076
148.5625, 4127
148.565, 4126
148.5675, 4143
148.57, 4152
148.5725, 4147
148.575, 4145
148.5775, 4087
148.58, 4181
148.5825, 4178
148.585, 4186
148.5875, 4180
148.59, 4182
148.5925, 4166
148.595, 4077
148.5975, 4140
148.6, 4129
148.6025, 4131
148.605, 4122
148.6075, 4170
148.61, 4171
148.6125, 4098
148.615, 4167
148.6175, 4176
148.62, 4153
148.6225, 4157
148.625, 4185
148.6275, 4181
148.63, 4099
148.6325, 4191
148.635, 4171
148.6375, 4168
148.64, 4177
148.6425, 4174
148.645, 4163
148.6475, 4085
148.65, 4159
148.6525, 4162
148.655, 4159
148.6575, 4171
148.66, 4191
148.6625, 4180
148.665, 4111
148.6675, 4180
148.67, 4157
148.6725, 4176
148.675, 4170
148.6775, 4177
148.68, 4191
148.6825, 4084
148.685, 4190
148.6875, 4184
148.69, 4183
148.6925, 4184
148.695, 4182
148.6975, 4159
148.7, 4108
148.7025, 4159
148.705, 4168
148.7075, 4178
148.71, 4174
148.7125, 4168
148.715, 4188
148.7175, 4117
148.72, 4216
148.7225, 4207
148.725, 4155
148.7275, 4143
148.73, 4135
148.7325, 4128
148.735, 4043
148.7375, 4094
148.74, 4066
148.7425, 4080
148.745, 4122
148.7475, 4154
148.75, 4147
148.7525, 4092
148.755, 4149
148.7575, 4157
148.76, 4162
148.7625, 4151
148.765, 4156
148.7675, 4155
148.77, 4082
148.7725, 4174
148.775, 4196
148.7775, 4199
148.78, 4174
148.7825, 4175
148.785, 4171
148.7875, 4120
148.79, 4183
148.7925, 4175
148.795, 4160
148.7975, 4169
148.8, 4193
148.8025, 4176
148.805, 4084
148.8075, 4186
148.81, 4180
148.8125, 4173
148.815, 4209
148.8175, 4188
148.82, 4178
148.8225, 4112
148.825, 4174
148.8275, 4185
148.83, 4181
148.8325, 4234
148.835, 4320
148.8375, 4372
148.84, 4307
148.8425, 4460
148.845, 4455
148.8475, 4412
148.85, 4251
148.8525, 4067
148.855, 3836
148.8575, 3487
148.86, 3323
148.8625, 2909
148.865, 2454
148.8675, 2065
148.87, 1884
148.8725, 1867
148.875, 2082
148.8775, 2585
148.88, 3452
148.8825, 4373
148.885, 4859
148.8875, 5042
148.89, 5025
148.8925, 4822
148.895, 4785
148.8975, 4663
148.9, 4592
148.9025, 4584
148.905, 4526
148.9075, 4498
148.91, 4401
148.9125, 4501
148.915, 4492
148.9175, 4464
148.92, 4489
148.9225, 4471
148.925, 4479
148.9275, 4377
148.93, 4462
148.9325, 4429
148.935, 4412
148.9375, 4388
148.94, 4390
148.9425, 4389
148.945, 4314
148.9475, 4387
148.95, 4385
148.9525, 4375
148.955, 4335
148.9575, 4332
148.96, 4331
148.9625, 4248
148.965, 4333
148.9675, 4325
148.97, 4327
148.9725, 4321
148.975, 4332
148.9775, 4316
148.98, 4217
148.9825, 4300
148.985, 4281
148.9875, 4279
148.99, 4243
148.9925, 4239
148.995, 4224
148.9975, 4179
149.0, 4213
149.0025, 4217
149.005, 4210
149.0075, 4199
149.01, 4212
149.0125, 4212
149.015, 4136
149.0175, 4207
149.02, 4198
149.0225, 4180
149.025, 4185
149.0275, 4222
149.03, 4212
149.0325, 4127
149.035, 4186
149.0375, 4197
149.04, 4219
149.0425, 4192
149.045, 4215
149.0475, 4209
149.05, 4160
149.0525, 4202
149.055, 4179
149.0575, 4168
149.06, 4192
149.0625, 4196
149.065, 4214
149.0675, 4116
149.07, 4201
149.0725, 4205
149.075, 4209
149.0775, 4191
149.08, 4176
149.0825, 4172
149.085, 4088
149.0875, 4172
149.09, 4178
149.0925, 4160
149.095, 4159
149.0975, 4177
149.1, 4183
149.1025, 4088
149.105, 4148
149.1075, 4153
149.11, 4131
149.1125, 4132
149.115, 4129
149.1175, 4129
149.12, 4094
149.1225, 4122
149.125, 4132
149.1275, 4139
149.13, 4147
149.1325, 4156
149.135, 4165
149.1375, 4088
149.14, 4151
149.1425, 4156
149.145, 4147
149.1475, 4128
149.15, 4122
149.1525, 4133
149.155, 4050
149.1575, 4140
149.16, 4132
149.1625, 4127
149.165, 4109
149.1675, 4131
149.17, 4135
149.1725, 4098
149.175, 4140
149.1775, 4153
149.18, 4158
149.1825, 4164
149.185, 4195
149.1875, 4182
149.19, 4101
149.1925, 4187
149.195, 4198
149.1975, 4199
149.2, 4201
149.2025, 4203
149.205, 4209
149.2075, 4144
149.21, 4249
149.2125, 4217
149.215, 4205
149.2175, 4233
149.22, 4229
149.2225, 4202
149.225, 4121
149.2275, 4215
149.23, 4223
149.2325, 4226
149.235, 4202
149.2375, 4205
149.24, 4215
149.2425, 4150
149.245, 4218
149.2475, 4239
149.25, 4234
149.2525, 4228
149.255, 4202
149.2575, 4201
149.26, 4135
149.2625, 4198
149.265, 4204
149.2675, 4195
149.27, 4197
149.2725, 4198
149.275, 4192
149.2775, 4112
149.28, 4189
149.2825, 4153
149.285, 4160
149.2875, 4138
149.29, 4188
149.2925, 4172
149.295, 4115
149.2975, 4164
149.3, 4143
149.3025, 4164
149.305, 4147
149.3075, 4152
149.31, 4170
149.3125, 4107
149.315, 4197
149.3175, 4185
149.32, 4185
149.3225, 4146
149.325, 4150
149.3275, 4166
149.33, 4071
149.3325, 4155
149.335, 4162
149.3375, 4175
149.34, 4187
149.3425, 4159
149.345, 4165
149.3475, 4076
149.35, 4182
149.3525, 4181
149.355, 4169
149.3575, 4184
149.36, 4213
149.3625, 4210
149.365, 4082
149.3675, 4212
149.37, 4186
149.3725, 4168
149.375, 4156
149.3775, 4173
149.38, 4180
149.3825, 4095
149.385, 4184
149.3875, 4181
149.39, 4182
149.3925, 4188
149.395, 4200
149.3975, 4206
149.4, 4110
149.4025, 4200
149.405, 4211
149.4075, 4216
149.41, 4216
149.4125, 4209
149.415, 4188
149.4175, 4118
149.42, 4206
149.4225, 4209
149.425, 4211
149.4275, 4205
149.43, 4206
149.4325, 4179
149.435, 4095
149.4375, 4175
149.44, 4163
149.4425, 4156
149.445, 4167
149.4475, 4172
149.45, 4162
149.4525, 4086
149.455, 4166
149.4575, 4152
149.46, 4136
149.4625, 4126
149.465, 4134
149.4675, 4140
149.47, 4110
149.4725, 4158
149.475, 4147
149.4775, 4129
149.48, 4130
149.4825, 4163
149.485, 4156
149.4875, 4030
149.49, 4161
149.4925, 4154
149.495, 4143
149.4975, 4131
149.5, 4152
149.5025, 4141
149.505, 4069
149.5075, 4177
149.51, 4177
149.5125, 4150
149.515, 4135
149.5175, 4147
149.52, 4161
149.5225, 4045
149.525, 4151
149.5275, 4140
149.53, 4146
149.5325, 4159
149.535, 4166
149.5375, 4153
149.54, 4066
149.5425, 4160
149.545, 4153
149.5475, 4158
149.55, 4143
149.5525, 4171
149.555, 4167
149.5575, 4080
149.56, 4157
149.5625, 4160
149.565, 4149
149.5675, 4177
149.57, 4174
149.5725, 4181
149.575, 4111
149.5775, 4185
149.58, 4180
149.5825, 4145
149.585, 4150
149.5875, 4175
149.59, 4199
149.5925, 4143
149.595, 4185
149.5975, 4171
149.6, 4161
149.6025, 4146
149.605, 4158
149.6075, 4182
149.61, 4101
149.6125, 4176
149.615, 4172
149.6175, 4152
149.62, 4150
149.6225, 4167
149.625, 4152
149.6275, 4075
149.63, 4191
149.6325, 4187
149.635, 4163
149.6375, 4144
149.64, 4165
149.6425, 4146
149.645, 4078
149.6475, 4173
149.65, 4155
149.6525, 4156
149.655, 4158
149.6575, 4151
149.66, 4146
149.6625, 4070
149.665, 4168
149.6675, 4160
149.67, 4164
149.6725, 4166
149.675, 4171
149.6775, 4159
149.68, 4144
149.6825, 4159
149.685, 4173
149.6875, 4166
149.69, 4147
149.6925, 4155
149.695, 4177
149.6975, 4092
149.7, 4176
149.7025, 4176
149.705, 4170
149.7075, 4183
149.71, 4182
149.7125, 4193
149.715, 4131
149.7175, 4185
149.72, 4190
149.7225, 4181
149.725, 4187
149.7275, 4197
149.73, 4151
149.7325, 4040
149.735, 4161
149.7375, 4164
149.74, 4146
149.7425, 4163
149.745, 4199
149.7475, 4170
149.75, 4100
149.7525, 4177
149.755, 4160
149.7575, 4146
149.76, 4123
149.7625, 4152
149.765, 4173
149.7675, 4159
149.77, 4185
149.7725, 4178
149.775, 4160
149.7775, 4175
149.78, 4169
149.7825, 4152
149.785, 4098
149.7875, 4155
149.79, 4155
149.7925, 4159
149.795, 4153
149.7975, 4162
149.8, 4151
149.8025, 4076
149.805, 4174
149.8075, 4175
149.81, 4174
149.8125, 4179
149.815, 4188
149.8175, 4178
149.82, 4098
149.8225, 4190
149.825, 4203
149.8275, 4186
149.83, 4198
149.8325, 4176
149.835, 4162
149.8375, 4064
149.84, 4154
149.8425, 4159
149.845, 4153
149.8475, 4141
149.85, 4165
149.8525, 4179
149.855, 4094
149.8575, 4191
149.86, 4185
149.8625, 4171
149.865, 4167
149.8675, 4186
149.87, 4156
149.8725, 4099
149.875, 4187
149.8775, 4160
149.88, 4155
149.8825, 4159
149.885, 4156
149.8875, 4150
149.89, 4066
149.8925, 4158
149.895, 4172
149.8975, 4160
149.9, 4139
149.9025, 4162
149.905, 4142
149.9075, 4072
149.91, 4134
149.9125, 4101
149.915, 4071
149.9175, 4067
149.92, 4084
149.9225, 4107
149.925, 4047
149.9275, 4142
149.93, 4159
149.9325, 4169
149.935, 4158
149.9375, 4161
149.94, 4145
149.9425, 4110
149.945, 4155
149.9475, 4160
149.95, 4174
149.9525, 4175
149.955, 4176
149.9575, 4147
149.96, 4070
149.9625, 4141
149.965, 4152
149.9675, 4168
149.97, 4158
149.9725, 4150
149.975, 4147
149.9775, 4079
149.98, 4174
149.9825, 4172
149.985, 4171
149.9875, 4171
149.99, 4199
149.9925, 4175
149.995, 4090
149.9975, 4180
150.0, 4173
150.0025, 4160
150.005, 4163
150.0075, 4164
150.01, 4158
150.0125, 4133
150.015, 4317
150.0175, 4356
150.02, 4385
150.0225, 4458
150.025, 4477
150.0275, 4430
150.03, 4222
150.0325, 4091
150.035, 3854
150.0375, 3544
150.04, 3250
150.0425, 2885
150.045, 2404
150.0475, 1906
150.05, 1764
150.0525, 1801
150.055, 2022
150.0575, 2686
150.06, 3537
150.0625, 4284
150.065, 4638
150.0675, 4878
150.07, 4834
150.0725, 4699
150.075, 4584
150.0775, 4538
150.08, 4529
150.0825, 4417
150.085, 4508
150.0875, 4493
150.09, 4486
150.0925, 4496
150.095, 4513
150.0975, 4536
150.1, 4449
150.1025, 4503
150.105, 4533
150.1075, 4493
150.11, 4483
150.1125, 4492
150.115, 4439
150.1175, 4399
150.12, 4439
150.1225, 4449
150.125, 4422
150.1275, 4412
150.13, 4405
150.1325, 4403
150.135, 4336
150.1375, 4399
150.14, 4386
150.1425, 4358
150.145, 4385
150.1475, 4378
150.15, 4359
150.1525, 4287
150.155, 4356
150.1575, 4323
150.16, 4319
150.1625, 4307
150.165, 4300
150.1675, 4287
150.17, 4228
150.1725, 4312
150.175, 4296
150.1775, 4298
150.18, 4277
150.1825, 4275
150.185, 4276
150.1875, 4210
150.19, 4267
150.1925, 4277
150.195, 4276
150.1975, 4265
150.2, 4269
150.2025, 4266
150.205, 4186
150.2075, 4262
150.21, 4259
150.2125, 4235
150.215, 4226
150.2175, 4236
150.22, 4202
150.2225, 4147
150.225, 4241
150.2275, 4207
150.23, 4205
150.2325, 4205
150.235, 4219
150.2375, 4198
150.24, 4139
150.2425, 4218
150.245, 4195
150.2475, 4207
150.25, 4224
150.2525, 4236
150.255, 4217
150.2575, 4135
150.26, 4196
150.2625, 4204
150.265, 4200
150.2675, 4233
150.27, 4237
150.2725, 4229
150.275, 4122
150.2775, 4217
150.28, 4201
150.2825, 4199
150.285, 4195
150.2875, 4218
150.29, 4199
150.2925, 4161
150.295, 4197
150.2975, 4196
150.3, 4206
150.3025, 4191
150.305, 4182
150.3075, 4183
150.31, 4132
150.3125, 4205
150.315, 4191
150.3175, 4204
150.32, 4190
150.3225, 4222
150.325, 4198
150.3275, 4121
150.33, 4179
150.3325, 4175
150.335, 4148
150.3375, 4104
150.34, 4129
150.3425, 4099
150.345, 4082
150.3475, 4128
150.35, 4114
150.3525, 4140
150.355, 4116
150.3575, 4134
150.36, 4118
150.3625, 4051
150.365, 4134
150.3675, 4138
150.37, 4166
150.3725, 4158
150.375, 4149
150.3775, 4152
150.38, 4093
150.3825, 4152
150.385, 4148
150.3875, 4154
150.39, 4144
150.3925, 4154
150.395, 4178
150.3975, 4097
150.4, 4165
150.4025, 4166
150.405, 4159
150.4075, 4161
150.41, 4180
150.4125, 4196
150.415, 4109
150.4175, 4175
150.42, 4166
150.4225, 4164
150.425, 4159
150.4275, 4168
150.43, 4172
150.4325, 4110
150.435, 4196
150.4375, 4200
150.44, 4166
150.4425, 4191
150.445, 4211
150.4475, 4179
150.45, 4058
150.4525, 4182
150.455, 4200
150.4575, 4194
150.46, 4182
150.4625, 4186
150.465, 4166
150.4675, 4117
150.47, 4165
150.4725, 4147
150.475, 4158
150.4775, 4147
150.48, 4150
150.4825, 4144
150.485, 4076
150.4875, 4184
150.49, 4149
150.4925, 4146
150.495, 4163
150.4975, 4163
150.5, 4158
150.5025, 4092
150.505, 4190
150.5075, 4170
150.51, 4168
150.5125, 4178
150.515, 4163
150.5175, 4171
150.52, 4088
150.5225, 4168
150.525, 4149
150.5275, 4170
150.53, 4196
150.5325, 4198
150.535, 4156
150.5375, 4075
150.54, 4167
150.5425, 4145
150.545, 4118
150.5475, 4128
150.55, 4172
150.5525, 4171
150.555, 4093
150.5575, 4176
150.56, 4183
150.5625, 4157
150.565, 4177
150.5675, 4186
150.57, 4161
150.5725, 4097
150.575, 4186
150.5775, 4163
150.58, 4164
150.5825, 4167
150.585, 4185
150.5875, 4171
150.59, 4104
150.5925, 4201
150.595, 4175
150.5975, 4164
150.6, 4148
150.6025, 4165
150.605, 4178
150.6075, 4073
150.61, 4149
150.6125, 4144
150.615, 4171
150.6175, 4164
150.62, 4168
150.6225, 4175
150.625, 4097
150.6275, 4175
150.63, 4162
150.6325, 4173
150.635, 4189
150.6375, 4198
150.64, 4179
150.6425, 4143
150.645, 4185
150.6475, 4208
150.65, 4176
150.6525, 4173
150.655, 4195
150.6575, 4186
150.66, 4115
150.6625, 4189
150.665, 4180
150.6675, 4195
150.67, 4195
150.6725, 4200
150.675, 4194
150.6775, 4115
150.68, 4205
150.6825, 4173
150.685, 4139
150.6875, 4149
150.69, 4164
150.6925, 4174
150.695, 4118
150.6975, 4191
150.7, 4182
150.7025, 4169
150.705, 4175
150.7075, 4160
150.71, 4186
150.7125, 4098
150.715, 4165
150.7175, 4164
150.72, 4171
150.7225, 4171
150.725, 4193
150.7275, 4172
150.73, 4101
150.7325, 4193
150.735, 4164
150.7375, 4154
150.74, 4160
150.7425, 4161
150.745, 4171
150.7475, 4088
150.75, 4164
150.7525, 4162
150.755, 4163
150.7575, 4173
150.76, 4187
150.7625, 4190
150.765, 4098
150.7675, 4201
150.77, 4193
150.7725, 4183
150.775, 4162
150.7775, 4169
150.78, 4189
150.7825, 4110
150.785, 4199
150.7875, 4199
150.79, 4189
150.7925, 4192
150.795, 4180
150.7975, 4177
150.8, 4097
150.8025, 4161
150.805, 4146
150.8075, 4173
150.81, 4177
150.8125, 4189
150.815, 4181
150.8175, 4119
150.82, 4130
150.8225, 4115
150.825, 4130
150.8275, 4141
150.83, 4152
150.8325, 4142
150.835, 4077
150.8375, 4154
150.84, 4140
150.8425, 4161
150.845, 4148
150.8475, 4148
150.85, 4164
150.8525, 4080
150.855, 4171
150.8575, 4147
150.86, 4149
150.8625, 4154
150.865, 4186
150.8675, 4175
150.87, 4132
150.8725, 4186
150.875, 4197
150.8775, 4173
150.88, 4157
150.8825, 4151
150.885, 4177
150.8875, 4088
150.89, 4170
150.8925, 4184
150.895, 4150
150.8975, 4167
150.9, 4159
150.9025, 4156
150.905, 4097
150.9075, 4161
150.91, 4175
150.9125, 4173
150.915, 4167
150.9175, 4193
150.92, 4160
150.9225, 4097
150.925, 4185
150.9275, 4182
150.93, 4192
150.9325, 4191
150.935, 4191
150.9375, 4185
150.94, 4095
150.9425, 4187
150.945, 4189
150.9475, 4177
150.95, 4154
150.9525, 4166
150.955, 4160
150.9575, 4080
150.96, 4164
150.9625, 4147
150.965, 4140
150.9675, 4149
150.97, 4157
150.9725, 4156
150.975, 4064
150.9775, 4167
150.98, 4177
150.9825, 4140
150.985, 4157
150.9875, 4159
150.99, 4153
150.9925, 4071
150.995, 4153
150.9975, 4148
151.0, 4163
151.0025, 4145
151.005, 4148
151.0075, 4156
151.01, 4070
151.0125, 4181
151.015, 4170
151.0175, 4165
151.02, 4168
151.0225, 4155
151.025, 4165
151.0275, 4074
151.03, 4147
151.0325, 4156
151.035, 4156
151.0375, 4149
151.04, 4157
151.0425, 4158
151.045, 4117
151.0475, 4161
151.05, 4130
151.0525, 4148
151.055, 4157
151.0575, 4181
151.06, 4188
151.0625, 4112
151.065, 4185
151.0675, 4130
151.07, 4120
151.0725, 4083
151.075, 4071
151.0775, 4092
151.08, 3986
151.0825, 4115
151.085, 4121
151.0875, 4135
151.09, 4138
151.0925, 4185
151.095, 4174
151.0975, 4091
151.1, 4200
151.1025, 4200
151.105, 4188
151.1075, 4220
151.11, 4215
151.1125, 4209
151.115, 4126
151.1175, 4190
151.12, 4186
151.1225, 4187
151.125, 4189
151.1275, 4180
151.13, 4193
151.1325, 4121
151.135, 4209
151.1375, 4223
151.14, 4229
151.1425, 4201
151.145, 4189
151.1475, 4191
151.15, 4106
151.1525, 4205
151.155, 4215
151.1575, 4213
151.16, 4201
151.1625, 4213
151.165, 4205
151.1675, 4131
151.17, 4243
151.1725, 4275
151.175, 4342
151.1775, 4388
151.18, 4429
151.1825, 4460
151.185, 4401
151.1875, 4404
151.19, 4263
151.1925, 4081
151.195, 3883
151.1975, 3597
151.2, 3330
151.2025, 2860
151.205, 2489
151.2075, 2110
151.21, 1942
151.2125, 1927
151.215, 2172
151.2175, 2640
151.22, 3461
151.2225, 4365
151.225, 4816
151.2275, 4985
151.23, 4992
151.2325, 4886
151.235, 4718
151.2375, 4540
151.24, 4572
151.2425, 4565
151.245, 4506
151.2475, 4477
151.25, 4482
151.2525, 4499
151.255, 4435
151.2575, 4528
151.26, 4519
151.2625, 4501
151.265, 4477
151.2675, 4470
151.27, 4443
151.2725, 4360
151.275, 4443
151.2775, 4445
151.28, 4429
151.2825, 4418
151.285, 4419
151.2875, 4395
151.29, 4326
151.2925, 4401
151.295, 4378
151.2975, 4341
151.3, 4330
151.3025, 4330
151.305, 4343
151.3075, 4229
151.31, 4357
151.3125, 4328
151.315, 4307
151.3175, 4293
151.32, 4273
151.3225, 4256
151.325, 4185
151.3275, 4272
151.33, 4286
151.3325, 4266
151.335, 4265
151.3375, 4266
151.34, 4251
151.3425, 4159
151.345, 4245
151.3475, 4231
151.35, 4249
151.3525, 4222
151.355, 4207
151.3575, 4195
151.36, 4123
151.3625, 4201
151.365, 4216
151.3675, 4189
151.37, 4204
151.3725, 4210
151.375, 4212
151.3775, 4113
151.38, 4223
151.3825, 4218
151.385, 4202
151.3875, 4195
151.39, 4206
151.3925, 4199
151.395, 4144
151.3975, 4204
151.4, 4185
151.4025, 4187
151.405, 4176
151.4075, 4179
151.41, 4183
151.4125, 4124
151.415, 4188
151.4175, 4188
151.42, 4202
151.4225, 4206
151.425, 4207
151.4275, 4192
151.43, 4093
151.4325, 4208
151.435, 4182
151.4375, 4198
151.44, 4185
151.4425, 4191
151.445, 4195
151.4475, 4151
151.45, 4185
151.4525, 4185
151.455, 4191
151.4575, 4203
151.46, 4183
151.4625, 4165
151.465, 4096
151.4675, 4191
151.47, 4183
151.4725, 4172
151.475, 4169
151.4775, 4145
151.48, 4153
151.4825, 4068
151.485, 4136
151.4875, 4123
151.49, 4115
151.4925, 4104
151.495, 4118
151.4975, 4112
151.5, 4084
151.5025, 4110
151.505, 4121
151.5075, 4148
151.51, 4147
151.5125, 4147
151.515, 4169
151.5175, 4094
151.52, 4166
151.5225, 4185
151.525, 4158
151.5275, 4182
151.53, 4199
151.5325, 4227
151.535, 4150
151.5375, 4226
151.54, 4231
151.5425, 4237
151.545, 4228
151.5475, 4244
151.55, 4240
151.5525, 4141
151.555, 4244
151.5575, 4228
151.56, 4245
151.5625, 4260
151.565, 4250
151.5675, 4246
151.57, 4170
151.5725, 4257
151.575, 4237
151.5775, 4260
151.58, 4248
151.5825, 4256
151.585, 4253
151.5875, 4171
151.59, 4246
151.5925, 4218
151.595, 4236
151.5975, 4202
151.6, 4237
151.6025, 4225
151.605, 4151
151.6075, 4264
151.61, 4231
151.6125, 4214
151.615, 4217
151.6175, 4211
151.62, 4195
151.6225, 4126
151.625, 4238
151.6275, 4224
151.63, 4202
151.6325, 4225
151.635, 4223
151.6375, 4227
151.64, 4117
151.6425, 4180
151.645, 4192
151.6475, 4175
151.65, 4157
151.6525, 4178
151.655, 4199
151.6575, 4111
151.66, 4201
151.6625, 4210
151.665, 4186
151.6675, 4151
151.67, 4185
151.6725, 4161
151.675, 4134
151.6775, 4194
151.68, 4183
151.6825, 4179
151.685, 4178
151.6875, 4190
151.69, 4195
151.6925, 4115
151.695, 4192
151.6975, 4197
151.7, 4176
151.7025, 4182
151.705, 4212
151.7075, 4191
151.71, 4115
151.7125, 4197
151.715, 4201
151.7175, 4196
151.72, 4165
151.7225, 4180
151.725, 4191
151.7275, 4150
151.73, 4199
151.7325, 4192
151.735, 4186
151.7375, 4147
151.74, 4186
151.7425, 4178
151.745, 4116
151.7475, 4191
151.75, 4193
151.7525, 4198
151.755, 4208
151.7575, 4194
151.76, 4201
151.7625, 4113
151.765, 4202
151.7675, 4212
151.77, 4217
151.7725, 4194
151.775, 4198
151.7775, 4191
151.78, 4126
151.7825, 4207
151.785, 4197
151.7875, 4207
151.79, 4211
151.7925, 4195
151.795, 4199
151.7975, 4121
151.8, 4192
151.8025, 4176
151.805, 4176
151.8075, 4156
151.81, 4170
151.8125, 4151
151.815, 4093
151.8175, 4193
151.82, 4184
151.8225, 4181
151.825, 4194
151.8275, 4203
151.83, 4186
151.8325, 4093
151.835, 4144
151.8375, 4153
151.84, 4154
151.8425, 4146
151.845, 4182
151.8475, 4173
151.85, 4146
151.8525, 4199
151.855, 4185
151.8575, 4184
151.86, 4176
151.8625, 4169
151.865, 4179
151.8675, 4088
151.87, 4177
151.8725, 4164
151.875, 4161
151.8775, 4183
151.88, 4179
151.8825, 4188
151.885, 4091
151.8875, 4196
151.89, 4196
151.8925, 4164
151.895, 4155
151.8975, 4178
151.9, 4155
151.9025, 4121
151.905, 4167
151.9075, 4160
151.91, 4159
151.9125, 4169
151.915, 4175
151.9175, 4172
151.92, 4092
151.9225, 4184
151.925, 4178
151.9275, 4160
151.93, 4167
151.9325, 4171
151.935, 4155
151.9375, 4099
151.94, 4165
151.9425, 4155
151.945, 4175
151.9475, 4163
151.95, 4162
151.9525, 4148
151.955, 4091
151.9575, 4149
151.96, 4128
151.9625, 4129
151.965, 4139
151.9675, 4149
151.97, 4161
151.9725, 4089
151.975, 4165
151.9775, 4145
151.98, 4164
151.9825, 4135
151.985, 4159
151.9875, 4168
151.99, 4075
151.9925, 4163
151.995, 4144
151.9975, 4138
152.0, 4142
152.0025, 4155
152.005, 4146
152.0075, 4052
152.01, 4148
152.0125, 4154
152.015, 4140
152.0175, 4152
152.02, 4157
152.0225, 4150
152.025, 4121
152.0275, 4156
152.03, 4160
152.0325, 4137
152.035, 4143
152.0375, 4154
152.04, 4167
152.0425, 4074
152.045, 4192
152.0475, 4195
152.05, 4175
152.0525, 4147
152.055, 4162
152.0575, 4172
152.06, 4095
152.0625, 4170
152.065, 4147
152.0675, 4167
152.07, 4161
152.0725, 4161
152.075, 4182
152.0775, 4096
152.08, 4170
152.0825, 4143
152.085, 4139
152.0875, 4148
152.09, 4146
152.0925, 4133
152.095, 4057
152.0975, 4168
152.1, 4171
152.1025, 4179
152.105, 4130
152.1075, 4173
152.11, 4166
152.1125, 4046
152.115, 4105
152.1175, 4055
152.12, 4068
152.1225, 4083
152.125, 4105
152.1275, 4125
152.13, 4057
152.1325, 4142
152.135, 4166
152.1375, 4164
152.14, 4182
152.1425, 4174
152.145, 4188
152.1475, 4095
152.15, 4203
152.1525, 4204
152.155, 4199
152.1575, 4203
152.16, 4213
152.1625, 4196
152.165, 4118
152.1675, 4204
152.17, 4192
152.1725, 4187
152.175, 4197
152.1775, 4215
152.18, 4194
152.1825, 4119
152.185, 4187
152.1875, 4178
152.19, 4185
152.1925, 4201
152.195, 4193
152.1975, 4202
152.2, 4101
152.2025, 4195
152.205, 4187
152.2075, 4212
152.21, 4207
152.2125, 4235
152.215, 4311
152.2175, 4311
152.22, 4448
152.2225, 4433
152.225, 4453
152.2275, 4474
152.23, 4367
152.2325, 4224
152.235, 3900
152.2375, 3708
152.24, 3437
152.2425, 3081
152.245, 2678
152.2475, 2181
152.25, 1860
152.2525, 1726
152.255, 1878
152.2575, 2305
152.26, 3078
152.2625, 3984
152.265, 4608
152.2675, 4887
152.27, 4920
152.2725, 4828
152.275, 4684
152.2775, 4617
152.28, 4523
152.2825, 4581
152.285, 4535
152.2875, 4436
152.29, 4506
152.2925, 4505
152.295, 4513
152.2975, 4479
152.3, 4491
152.3025, 4492
152.305, 4423
152.3075, 4484
152.31, 4469
152.3125, 4457
152.315, 4431
152.3175, 4445
152.32, 4433
152.3225, 4374
152.325, 4422
152.3275, 4416
152.33, 4418
152.3325, 4406
152.335, 4387
152.3375, 4358
152.34, 4337
152.3425, 4354
152.345, 4335
152.3475, 4317
152.35, 4301
152.3525, 4342
152.355, 4328
152.3575, 4244
152.36, 4303
152.3625, 4290
152.365, 4274
152.3675, 4246
152.37, 4267
152.3725, 4247
152.375, 4161
152.3775, 4240
152.38, 4238
152.3825, 4228
152.385, 4251
152.3875, 4229
152.39, 4232
152.3925, 4155
152.395, 4231
152.3975, 4219
152.4, 4198
152.4025, 4187
152.405, 4215
152.4075, 4199
152.41, 4097
152.4125, 4217
152.415, 4186
152.4175, 4193
152.42, 4182
152.4225, 4196
152.425, 4187
152.4275, 4096
152.43, 4191
152.4325, 4208
152.435, 4185
152.4375, 4186
152.44, 4195
152.4425, 4177
152.445, 4130
152.4475, 4167
152.45, 4159
152.4525, 4174
152.455, 4162
152.4575, 4180
152.46, 4175
152.4625, 4085
152.465, 4179
152.4675, 4184
152.47, 4184
152.4725, 4198
152.475, 4199
152.4775, 4178
152.48, 4107
152.4825, 4151
152.485, 4126
152.4875, 4121
152.49, 4113
152.4925, 4153
152.495, 4164
152.4975, 4084
152.5, 4178
152.5025, 4172
152.505, 4168
152.5075, 4176
152.51, 4180
152.5125, 4190
152.515, 4094
152.5175, 4180
152.52, 4176
152.5225, 4176
152.525, 4168
152.5275, 4140
152.53, 4139
152.5325, 4037
152.535, 4111
152.5375, 4080
152.54, 4087
152.5425, 4074
152.545, 4087
152.5475, 4084
152.55, 4006
152.5525, 4087
152.555, 4091
152.5575, 4098
152.56, 4102
152.5625, 4122
152.565, 4120
152.5675, 4047
152.57, 4129
152.5725, 4131
152.575, 4138
152.5775, 4140
152.58, 4185
152.5825, 4167
152.585, 4092
152.5875, 4195
152.59, 4199
152.5925, 4192
152.595, 4192
152.5975, 4182
152.6, 4198
152.6025, 4086
152.605, 4219
152.6075, 4228
152.61, 4222
152.6125, 4197
152.615, 4209
152.6175, 4221
152.62, 4156
152.6225, 4218
152.625, 4211
152.6275, 4216
152.63, 4215
152.6325, 4223
152.635, 4200
152.6375, 4138
152.64, 4218
152.6425, 4203
152.645, 4217
152.6475, 4212
152.65, 4232
152.6525, 4196
152.655, 4117
152.6575, 4209
152.66, 4216
152.6625, 4187
152.665, 4197
152.6675, 4209
152.67, 4221
152.6725, 4165
152.675, 4223
152.6775, 4196
152.68, 4197
152.6825, 4175
152.685, 4196
152.6875, 4195
152.69, 4118
152.6925, 4211
152.695, 4200
152.6975, 4217
152.7, 4206
152.7025, 4205
152.705, 4190
152.7075, 4122
152.71, 4209
152.7125, 4198
152.715, 4181
152.7175, 4184
152.72, 4186
152.7225, 4156
152.725, 4095
152.7275, 4193
152.73, 4185
152.7325, 4161
152.735, 4167
152.7375, 4158
152.74, 4160
152.7425, 4075
152.745, 4169
152.7475, 4162
152.75, 4172
152.7525, 4168
152.755, 4175
152.7575, 4174
152.76, 4079
152.7625, 4166
152.765, 4169
152.7675, 4180
152.77, 4186
152.7725, 4202
152.775, 4203
152.7775, 4157
152.78, 4182
152.7825, 4185
152.785, 4159
152.7875, 4160
152.79, 4173
152.7925, 4156
152.795, 4075
152.7975, 4141
152.8, 4157
152.8025, 4147
152.805, 4144
152.8075, 4155
152.81, 4164
152.8125, 4128
152.815, 4132
152.8175, 4145
152.82, 4130
152.8225, 4115
152.825, 4181
152.8275, 4178
152.83, 4108
152.8325, 4193
152.835, 4185
152.8375, 4176
152.84, 4157
152.8425, 4191
152.845, 4183
152.8475, 4137
152.85, 4189
152.8525, 4192
152.855, 4192
152.8575, 4158
152.86, 4182
152.8625, 4158
152.865, 4062
152.8675, 4147
152.87, 4166
152.8725, 4183
152.875, 4187
152.8775, 4182
152.88, 4166
152.8825, 4089
152.885, 4171
152.8875, 4138
152.89, 4139
152.8925, 4145
152.895, 4150
152.8975, 4159
152.9, 4116
152.9025, 4166
152.905, 4166
152.9075, 4170
152.91, 4170
152.9125, 4184
152.915, 4194
152.9175, 4071
152.92, 4165
152.9225, 4176
152.925, 4155
152.9275, 4171
152.93, 4184
152.9325, 4196
152.935, 4092
152.9375, 4167
152.94, 4157
152.9425, 4144
152.945, 4168
152.9475, 4180
152.95, 4167
152.9525, 4095
152.955, 4169
152.9575, 4185
152.96, 4173
152.9625, 4168
152.965, 4165
152.9675, 4157
152.97, 4084
152.9725, 4156
152.975, 4143
152.9775, 4147
152.98, 4149
152.9825, 4149
152.985, 4170
152.9875, 4076
152.99, 4176
152.9925, 4161
152.995, 4156
152.9975, 4182
153.0, 4182
153.0025, 4161
153.005, 4082
153.0075, 4172
153.01, 4173
153.0125, 4190
153.015, 4151
153.0175, 4163
153.02, 4152
153.0225, 4126
153.025, 4171
153.0275, 4160
153.03, 4161
153.0325, 4146
153.035, 4165
153.0375, 4179
153.04, 4069
153.0425, 4146
153.045, 4147
153.0475, 4140
153.05, 4140
153.0525, 4146
153.055, 4149
153.0575, 4063
153.06, 4159
153.0625, 4160
153.065, 4158
153.0675, 4155
153.07, 4170
153.0725, 4174
153.075, 4095
153.0775, 4177
153.08, 4178
153.0825, 4167
153.085, 4124
153.0875, 4143
153.09, 4148
153.0925, 4073
153.095, 4145
153.0975, 4148
153.1, 4138
153.1025, 4146
153.105, 4164
153.1075, 4157
153.11, 4062
153.1125, 4149
153.115, 4145
153.1175, 4126
153.12, 4120
153.1225, 4143
153.125, 4143
153.1275, 4052
153.13, 4147
153.1325, 4141
153.135, 4134
153.1375, 4157
153.14, 4170
153.1425, 4176
153.145, 4081
153.1475, 4176
153.15, 4188
153.1525, 4192
153.155, 4175
153.1575, 4192
153.16, 4184
153.1625, 4060
153.165, 4194
153.1675, 4182
153.17, 4171
153.1725, 4174
153.175, 4169
153.1775, 4176
153.18, 4109
153.1825, 4209
153.185, 4190
153.1875, 4182
153.19, 4167
153.1925, 4163
153.195, 4174
153.1975, 4161
153.2, 4160
153.2025, 4134
153.205, 4088
153.2075, 4037
153.21, 4065
153.2125, 4076
153.215, 3997
153.2175, 4096
153.22, 4112
153.2225, 4118
153.225, 4098
153.2275, 4152
153.23, 4176
153.2325, 4073
153.235, 4153
153.2375, 4131
153.24, 4146
153.2425, 4144
153.245, 4168
153.2475, 4159
153.25, 4124
153.2525, 4157
153.255, 4156
153.2575, 4161
153.26, 4158
153.2625, 4174
153.265, 4196
153.2675, 4094
153.27, 4187
153.2725, 4196
153.275, 4181
153.2775, 4173
153.28, 4178
153.2825, 4176
153.285, 4081
153.2875, 4177
153.29, 4198
153.2925, 4187
153.295, 4183
153.2975, 4191
153.3, 4177
153.3025, 4079
153.305, 4229
153.3075, 4251
153.31, 4304
153.3125, 4383
153.315, 4383
153.3175, 4426
153.32, 4370
153.3225, 4474
153.325, 4372
153.3275, 4192
153.33, 3982
153.3325, 3729
153.335, 3409
153.3375, 2961
153.34, 2647
153.3425, 2165
153.345, 1903
153.3475, 1813
153.35, 1934
153.3525, 2372
153.355, 3118
153.3575, 4067
153.36, 4622
153.3625, 4885
153.365, 4929
153.3675, 4863
153.37, 4706
153.3725, 4555
153.375, 4547
153.3775, 4555
153.38, 4537
153.3825, 4522
153.385, 4530
153.3875, 4527
153.39, 4453
153.3925, 4542
153.395, 4534
153.3975, 4504
153.4, 4502
153.4025, 4477
153.405, 4477
153.4075, 4395
153.41, 4461
153.4125, 4436
153.415, 4412
153.4175, 4434
153.42, 4421
153.4225, 4412
153.425, 4345
153.4275, 4401
153.43, 4380
153.4325, 4348
153.435, 4348
153.4375, 4370
153.44, 4342
153.4425, 4275
153.445, 4362
153.4475, 4347
153.45, 4345
153.4525, 4330
153.455, 4355
153.4575, 4333
153.46, 4245
153.4625, 4334
153.465, 4328
153.4675, 4302
153.47, 4286
153.4725, 4309
153.475, 4274
153.4775, 4178
153.48, 4264
153.4825, 4230
153.485, 4250
153.4875, 4238
153.49, 4239
153.4925, 4231
153.495, 4161
153.4975, 4251
153.5, 4226
153.5025, 4236
153.505, 4205
153.5075, 4234
153.51, 4241
153.5125, 4160
153.515, 4237
153.5175, 4230
153.52, 4186
153.5225, 4180
153.525, 4189
153.5275, 4206
153.53, 4135
153.5325, 4193
153.535, 4187
153.5375, 4172
153.54, 4152
153.5425, 4162
153.545, 4161
153.5475, 4134
153.55, 4185
153.5525, 4192
153.555, 4176
153.5575, 4184
153.56, 4194
153.5625, 4181
153.565, 4115
153.5675, 4184
153.57, 4203
153.5725, 4199
153.575, 4150
153.5775, 4221
153.58, 4196
153.5825, 4089
153.585, 4198
153.5875, 4186
153.59, 4190
153.5925, 4167
153.595, 4185
153.5975, 4187
153.6, 4084
153.6025, 4177
153.605, 4147
153.6075, 4171
153.61, 4162
153.6125, 4167
153.615, 4175
153.6175, 4107
153.62, 4169
153.6225, 4140
153.625, 4132
153.6275, 4103
153.63, 4073
153.6325, 4094
153.635, 4031
153.6375, 4107
153.64, 4119
153.6425, 4128
153.645, 4129
153.6475, 4127
153.65, 4127
153.6525, 4063
153.655, 4174
153.6575, 4192
153.66, 4178
153.6625, 4165
153.665, 4203
153.6675, 4210
153.67, 4179
153.6725, 4212
153.675, 4224
153.6775, 4233
153.68, 4235
153.6825, 4243
153.685, 4248
153.6875, 4176
153.69, 4253
153.6925, 4253
153.695, 4251
153.6975, 4234
153.7, 4234
153.7025, 4238
153.705, 4156
153.7075, 4247
153.71, 4232
153.7125, 4235
153.715, 4246
153.7175, 4254
153.72, 4244
153.7225, 4221
153.725, 4269
153.7275, 4267
153.73, 4260
153.7325, 4244
153.735, 4251
153.7375, 4219
153.74, 4120
153.7425, 4205
153.745, 4221
153.7475, 4208
153.75, 4211
153.7525, 4216
153.755, 4219
153.7575, 4141
153.76, 4218
153.7625, 4210
153.765, 4205
153.7675, 4199
153.77, 4192
153.7725, 4158
153.775, 4079
153.7775, 4199
153.78, 4188
153.7825, 4177
153.785, 4188
153.7875, 4209
153.79, 4187
153.7925, 4102
153.795, 4205
153.7975, 4183
153.8, 4187
153.8025, 4194
153.805, 4184
153.8075, 4193
153.81, 4081
153.8125, 4205
153.815, 4183
153.8175, 4171
153.82, 4178
153.8225, 4176
153.825, 4195
153.8275, 4096
153.83, 4165
153.8325, 4155
153.835, 4169
153.8375, 4152
153.84, 4162
153.8425, 4153
153.845, 4167
153.8475, 4205
153.85, 4214
153.8525, 4187
153.855, 4183
153.8575, 4215
153.86, 4204
153.8625, 4146
153.865, 4227
153.8675, 4219
153.87, 4225
153.8725, 4222
153.875, 4198
153.8775, 4202
153.88, 4122
153.8825, 4205
153.885, 4207
153.8875, 4205
153.89, 4207
153.8925, 4231
153.895, 4212
153.8975, 4131
153.9, 4213
153.9025, 4212
153.905, 4226
153.9075, 4200
153.91, 4190
153.9125, 4186
153.915, 4103
153.9175, 4182
153.92, 4169
153.9225, 4165
153.925, 4164
153.9275, 4157
153.93, 4161
153.9325, 4088
153.935, 4158
153.9375, 4165
153.94, 4167
153.9425, 4139
153.945, 4171
153.9475, 4183
153.95, 4079
153.9525, 4155
153.955, 4157
153.9575, 4158
153.96, 4187
153.9625, 4178
153.965, 4191
153.9675, 4133
153.97, 4192
153.9725, 4164
153.975, 4141
153.9775, 4147
153.98, 4185
153.9825, 4168
153.985, 4092
153.9875, 4170
153.99, 4165
153.9925, 4156
153.995, 4150
153.9975, 4167
154.0, 4161
154.0025, 4089
154.005, 4188
154.0075, 4161
154.01, 4172
154.0125, 4145
154.015, 4138
154.0175, 4125
154.02, 4097
154.0225, 4142
154.025, 4158
154.0275, 4144
154.03, 4159
154.0325, 4167
154.035, 4156
154.0375, 4089
154.04, 4173
154.0425, 4162
154.045, 4148
154.0475, 4157
154.05, 4174
154.0525, 4187
154.055, 4090
154.0575, 4163
154.06, 4151
154.0625, 4152
154.065, 4174
154.0675, 4177
154.07, 4182
154.0725, 4093
154.075, 4164
154.0775, 4175
154.08, 4144
154.0825, 4134
154.085, 4122
154.0875, 4133
154.09, 4054
154.0925, 4146
154.095, 4130
154.0975, 4124
154.1, 4143
154.1025, 4159
154.105, 4171
154.1075, 4097
154.11, 4181
154.1125, 4173
154.115, 4165
154.1175, 4172
154.12, 4183
154.1225, 4163
154.125, 4088
154.1275, 4166
154.13, 4157
154.1325, 4146
154.135, 4148
154.1375, 4168
154.14, 4164
154.1425, 4113
154.145, 4165
154.1475, 4168
154.15, 4161
154.1525, 4157
154.155, 4171
154.1575, 4160
154.16, 4069
154.1625, 4141
154.165, 4159
154.1675, 4160
154.17, 4173
154.1725, 4174
154.175, 4167
154.1775, 4093
154.18, 4177
154.1825, 4143
154.185, 4141
154.1875, 4148
154.19, 4158
154.1925, 4136
154.195, 4058
154.1975, 4138
154.2, 4146
154.2025, 4154
154.205, 4154
154.2075, 4134
154.21, 4119
154.2125, 4032
154.215, 4128
154.2175, 4141
154.22, 4167
154.2225, 4152
154.225, 4207
154.2275, 4168
154.23, 4092
154.2325, 4173
154.235, 4174
154.2375, 4181
154.24, 4177
154.2425, 4187
154.245, 4168
154.2475, 4076
154.25, 4175
154.2525, 4183
154.255, 4179
154.2575, 4168
154.26, 4171
154.2625, 4193
154.265, 4137
154.2675, 4146
154.27, 4161
154.2725, 4167
154.275, 4154
154.2775, 4119
154.28, 4098
154.2825, 3989
154.285, 4071
154.2875, 4115
154.29, 4126
154.2925, 4134
154.295, 4142
154.2975, 4139
154.3, 4083
154.3025, 4168
154.305, 4140
154.3075, 4133
154.31, 4149
154.3125, 4186
154.315, 4184
154.3175, 4156
154.32, 4211
154.3225, 4215
154.325, 4201
154.3275, 4186
154.33, 4191
154.3325, 4177
154.335, 4056
154.3375, 4185
154.34, 4189
154.3425, 4177
154.345, 4170
154.3475, 4179
154.35, 4196
154.3525, 4136
154.355, 4187
154.3575, 4183
154.36, 4165
154.3625, 4177
154.365, 4196
154.3675, 4190
154.37, 4105
154.3725, 4191
154.375, 4172
154.3775, 4188
154.38, 4200
154.3825, 4253
154.385, 4324
154.3875, 4303
154.39, 4422
154.3925, 4454
154.395, 4456
154.3975, 4383
154.4, 4210
154.4025, 3999
154.405, 3674
154.4075, 3451
154.41, 3175
154.4125, 2760
154.415, 2298
154.4175, 2006
154.42, 1804
154.4225, 1811
154.425, 2158
154.4275, 2805
154.43, 3691
154.4325, 4477
154.435, 4866
154.4375, 4953
154.44, 4837
154.4425, 4787
154.445, 4659
154.4475, 4564
154.45, 4529
154.4525, 4506
154.455, 4486
154.4575, 4391
154.46, 4473
154.4625, 4472
154.465, 4475
154.4675, 4481
154.47, 4501
154.4725, 4482
154.475, 4396
154.4775, 4462
154.48, 4454
154.4825, 4436
154.485, 4418
154.4875, 4442
154.49, 4434
154.4925, 4391
154.495, 4425
154.4975, 4373
154.5, 4348
154.5025, 4360
154.505, 4339
154.5075, 4355
154.51, 4241
154.5125, 4377
154.515, 4347
154.5175, 4330
154.52, 4326
154.5225, 4319
154.525, 4314
154.5275, 4235
154.53, 4311
154.5325, 4304
154.535, 4270
154.5375, 4276
154.54, 4281
154.5425, 4268
154.545, 4185
154.5475, 4264
154.55, 4242
154.5525, 4238
154.555, 4239
154.5575, 4270
154.56, 4252
154.5625, 4160
154.565, 4240
154.5675, 4229
154.57, 4236
154.5725, 4223
154.575, 4215
154.5775, 4218
154.58, 4142
154.5825, 4239
154.585, 4234
154.5875, 4216
154.59, 4211
154.5925, 4217
154.595, 4226
154.5975, 4131
154.6, 4230
154.6025, 4223
154.605, 4202
154.6075, 4220
154.61, 4213
154.6125, 4203
154.615, 4118
154.6175, 4221
154.62, 4222
154.6225, 4218
154.625, 4221
154.6275, 4231
154.63, 4227
154.6325, 4140
154.635, 4185
154.6375, 4192
154.64, 4202
154.6425, 4165
154.645, 4222
154.6475, 4212
154.65, 4128
154.6525, 4213
154.655, 4209
154.6575, 4165
154.66, 4187
154.6625, 4200
154.665, 4194
154.6675, 4170
154.67, 4225
154.6725, 4206
154.675, 4187
154.6775, 4186
154.68, 4201
154.6825, 4201
154.685, 4099
154.6875, 4184
154.69, 4163
154.6925, 4169
154.695, 4141
154.6975, 4161
154.7, 4148
154.7025, 4072
154.705, 4148
154.7075, 4159
154.71, 4139
154.7125, 4145
154.715, 4150
154.7175, 4120
154.72, 4050
154.7225, 4146
154.725, 4176
154.7275, 4169
154.73, 4170
154.7325, 4166
154.735, 4181
154.7375, 4098
154.74, 4168
154.7425, 4168
154.745, 4183
154.7475, 4173
154.75, 4199
154.7525, 4196
154.755, 4118
154.7575, 4219
154.76, 4220
154.7625, 4241
154.765, 4173
154.7675, 4218
154.77, 4226
154.7725, 4158
154.775, 4200
154.7775, 4196
154.78, 4210
154.7825, 4207
154.785, 4225
154.7875, 4219
154.79, 4163
154.7925, 4187
154.795, 4178
154.7975, 4186
154.8, 4179
154.8025, 4197
154.805, 4190
154.8075, 4077
154.81, 4180
154.8125, 4194
154.815, 4185
154.8175, 4158
154.82, 4184
154.8225, 4175
154.825, 4096
154.8275, 4186
154.83, 4167
154.8325, 4184
154.835, 4181
154.8375, 4198
154.84, 4174
154.8425, 4147
154.845, 4185
154.8475, 4185
154.85, 4175
154.8525, 4159
154.855, 4171
154.8575, 4175
154.86, 4085
154.8625, 4160
154.865, 4138
154.8675, 4150
154.87, 4156
154.8725, 4144
154.875, 4155
154.8775, 4070
154.88, 4163
154.8825, 4158
154.885, 4166
154.8875, 4159
154.89, 4179
154.8925, 4182
154.895, 4094
154.8975, 4160
154.9, 4136
154.9025, 4145
154.905, 4113
154.9075, 4130
154.91, 4133
154.9125, 4048
154.915, 4141
154.9175, 4157
154.92, 4174
154.9225, 4162
154.925, 4159
154.9275, 4159
154.93, 4079
154.9325, 4162
154.935, 4179
154.9375, 4175
154.94, 4167
154.9425, 4176
154.945, 4169
154.9475, 4065
154.95, 4190
154.9525, 4167
154.955, 4166
154.9575, 4165
154.96, 4184
154.9625, 4177
154.965, 4099
154.9675, 4199
154.97, 4189
154.9725, 4204
154.975, 4160
154.9775, 4197
154.98, 4184
154.9825, 4092
154.985, 4172
154.9875, 4184
154.99, 4172
154.9925, 4154
154.995, 4161
154.9975, 4147
155.0, 4075
155.0025, 4165
155.005, 4171
155.0075, 4165
155.01, 4180
155.0125, 4182
155.015, 4166
155.0175, 4093
155.02, 4151
155.0225, 4136
155.025, 4161
155.0275, 4154
155.03, 4169
155.0325, 4149
155.035, 4077
155.0375, 4187
155.04, 4186
155.0425, 4162
155.045, 4159
155.0475, 4164
155.05, 4173
155.0525, 4083
155.055, 4162
155.0575, 4158
155.06, 4160
155.0625, 4150
155.065, 4188
155.0675, 4185
155.07, 4137
155.0725, 4178
155.075, 4177
155.0775, 4165
155.08, 4170
155.0825, 4183
155.085, 4162
155.0875, 4063
155.09, 4180
155.0925, 4174
155.095, 4161
155.0975, 4158
155.1, 4160
155.1025, 4153
155.105, 4069
155.1075, 4168
155.11, 4163
155.1125, 4152
155.115, 4138
155.1175, 4165
155.12, 4167
155.1225, 4046
155.125, 4174
155.1275, 4153
155.13, 4157
155.1325, 4180
155.135, 4173
155.1375, 4166
155.14, 4074
155.1425, 4163
155.145, 4166
155.1475, 4160
155.15, 4154
155.1525, 4143
155.155, 4159
155.1575, 4078
155.16, 4156
155.1625, 4144
155.165, 4154
155.1675, 4130
155.17, 4187
155.1725, 4186
155.175, 4062
155.1775, 4179
155.18, 4189
155.1825, 4180
155.185, 4168
155.1875, 4169
155.19, 4169
155.1925, 4106
155.195, 4173
155.1975, 4171
155.2, 4157
155.2025, 4151
155.205, 4180
155.2075, 4162
155.21, 4089
155.2125, 4160
155.215, 4175
155.2175, 4157
155.22, 4183
155.2225, 4177
155.225, 4154
155.2275, 4067
155.23, 4173
155.2325, 4153
155.235, 4139
155.2375, 4150
155.24, 4144
155.2425, 4152
155.245, 4135
155.2475, 4158
155.25, 4145
155.2525, 4150
155.255, 4154
155.2575, 4197
155.26, 4167
155.2625, 4103
155.265, 4188
155.2675, 4190
155.27, 4184
155.2725, 4168
155.275, 4159
155.2775, 4142
155.28, 4034
155.2825, 4122
155.285, 4138
155.2875, 4143
155.29, 4120
155.2925, 4156
155.295, 4136
155.2975, 4041
155.3, 4124
155.3025, 4126
155.305, 4143
155.3075, 4125
155.31, 4141
155.3125, 4142
155.315, 4053
155.3175, 4150
155.32, 4133
155.3225, 4161
155.325, 4168
155.3275, 4158
155.33, 4170
155.3325, 4088
155.335, 4173
155.3375, 4164
155.34, 4175
155.3425, 4162
155.345, 4152
155.3475, 4157
155.35, 4048
155.3525, 4133
155.355, 4152
155.3575, 4155
155.36, 4150
155.3625, 4149
155.365, 4141
155.3675, 4071
155.37, 4165
155.3725, 4151
155.375, 4162
155.3775, 4145
155.38, 4197
155.3825, 4179
155.385, 4084
155.3875, 4177
155.39, 4186
155.3925, 4174
155.395, 4163
155.3975, 4161
155.4, 4158
155.4025, 4075
155.405, 4156
155.4075, 4167
155.41, 4158
155.4125, 4144
155.415, 4166
155.4175, 4165
155.42, 4114
155.4225, 4143
155.425, 4131
155.4275, 4157
155.43, 4131
155.4325, 4144
155.435, 4154
155.4375, 4039
155.44, 4151
155.4425, 4161
155.445, 4155
155.4475, 4040
155.45, 4178
155.4525, 4165
155.455, 4068
155.4575, 4131
155.46, 4058
155.4625, 4068
155.465, 4081
155.4675, 4117
155.47, 4109
155.4725, 4027
155.475, 4117
155.4775, 4122
155.48, 4125
155.4825, 4155
155.485, 4177
155.4875, 4159
155.49, 4077
155.4925, 4194
155.495, 4163
155.4975, 4168
155.5, 4170
155.5025, 4184
155.505, 4173
155.5075, 4101
155.51, 4173
155.5125, 4156
155.515, 4152
155.5175, 4144
155.52, 4211
155.5225, 4194
155.525, 4097
155.5275, 4200
155.53, 4202
155.5325, 4204
155.535, 4186
155.5375, 4181
155.54, 4180
155.5425, 4110
155.545, 4200
155.5475, 4200
155.55, 4195
155.5525, 4166
155.555, 4176
155.5575, 4180
155.56, 4123
155.5625, 4281
155.565, 4361
155.5675, 4435
155.57, 4453
155.5725, 4471
155.575, 4486
155.5775, 4324
155.58, 4287
155.5825, 4078
155.585, 3805
155.5875, 3464
155.59, 3189
155.5925, 2793
155.595, 2218
155.5975, 1916
155.6, 1770
155.6025, 1835
155.605, 2163
155.6075, 2904
155.61, 3778
155.6125, 4359
155.615, 4793
155.6175, 4884
155.62, 4806
155.6225, 4686
155.625, 4588
155.6275, 4543
155.63, 4423
155.6325, 4533
155.635, 4510
155.6375, 4508
155.64, 4507
155.6425, 4508
155.645, 4518
155.6475, 4491
155.65, 4532
155.6525, 4514
155.655, 4516
155.6575, 4513
155.66, 4484
155.6625, 4489
155.665, 4374
155.6675, 4475
155.67, 4481
155.6725, 4457
155.675, 4424
155.6775, 4437
155.68, 4427
155.6825, 4330
155.685, 4421
155.6875, 4405
155.69, 4371
155.6925, 4376
155.695, 4393
155.6975, 4374
155.7, 4246
155.7025, 4344
155.705, 4347
155.7075, 4337
155.71, 4353
155.7125, 4338
155.715, 4342
155.7175, 4232
155.72, 4312
155.7225, 4300
155.725, 4271
155.7275, 4264
155.73, 4269
155.7325, 4253
155.735, 4121
155.7375, 4253
155.74, 4241
155.7425, 4236
155.745, 4242
155.7475, 4258
155.75, 4222
155.7525, 4136
155.755, 4225
155.7575, 4226
155.76, 4218
155.7625, 4223
155.765, 4213
155.7675, 4193
155.77, 4113
155.7725, 4197
155.775, 4213
155.7775, 4206
155.78, 4198
155.7825, 4221
155.785, 4213
155.7875, 4121
155.79, 4214
155.7925, 4186
155.795, 4184
155.7975, 4170
155.8, 4190
155.8025, 4181
155.805, 4068
155.8075, 4202
155.81, 4171
155.8125, 4174
155.815, 4183
155.8175, 4200
155.82, 4180
155.8225, 4086
155.825, 4168
155.8275, 4178
155.83, 4175
155.8325, 4168
155.835, 4181
155.8375, 4172
155.84, 4105
155.8425, 4186
155.845, 4158
155.8475, 4153
155.85, 4183
155.8525, 4186
155.855, 4181
155.8575, 4083
155.86, 4175
155.8625, 4144
155.865, 4165
155.8675, 4160
155.87, 4144
155.8725, 4145
155.875, 4049
155.8775, 4118
155.88, 4117
155.8825, 4094
155.885, 4101
155.8875, 4113
155.89, 4098
155.8925, 4012
155.895, 4109
155.8975, 4134
155.9, 4110
155.9025, 4117
155.905, 4149
155.9075, 4136
155.91, 4056
155.9125, 4145
155.915, 4128
155.9175, 4132
155.92, 4140
155.9225, 4175
155.925, 4181
155.9275, 4088
155.93, 4185
155.9325, 4201
155.935, 4184
155.9375, 4190
155.94, 4215
155.9425, 4219
155.945, 4163
155.9475, 4238
155.95, 4224
155.9525, 4240
155.955, 4206
155.9575, 4236
155.96, 4217
155.9625, 4135
155.965, 4211
155.9675, 4211
155.97, 4239
155.9725, 4227
155.975, 4228
155.9775, 4197
155.98, 4125
155.9825, 4224
155.985, 4221
155.9875, 4228
155.99, 4217
155.9925, 4201
155.995, 4208
155.9975, 4112
156.0, 4212
156.0025, 4220
156.005, 4201
156.0075, 4222
156.01, 4229
156.0125, 4195
156.015, 4109
156.0175, 4204
156.02, 4205
156.0225, 4200
156.025, 4192
156.0275, 4201
156.03, 4201
156.0325, 4080
156.035, 4175
156.0375, 4191
156.04, 4194
156.0425, 4189
156.045, 4194
156.0475, 4184
156.05, 4091
156.0525, 4181
156.055, 4176
156.0575, 4179
156.06, 4163
156.0625, 4171
156.065, 4168
156.0675, 4089
156.07, 4172
156.0725, 4171
156.075, 4178
156.0775, 4200
156.08, 4182
156.0825, 4169
156.085, 4075
156.0875, 4156
156.09, 4164
156.0925, 4148
156.095, 4149
156.0975, 4169
156.1, 4177
156.1025, 4080
156.105, 4207
156.1075, 4194
156.11, 4182
156.1125, 4162
156.115, 4173
156.1175, 4146
156.12, 4094
156.1225, 4143
156.125, 4150
156.1275, 4131
156.13, 4149
156.1325, 4162
156.135, 4145
156.1375, 4049
156.14, 4153
156.1425, 4160
156.145, 4144
156.1475, 4149
156.15, 4175
156.1525, 4172
156.155, 4074
156.1575, 4180
156.16, 4172
156.1625, 4181
156.165, 4178
156.1675, 4191
156.17, 4179
156.1725, 4080
156.175, 4179
156.1775, 4173
156.18, 4155
156.1825, 4165
156.185, 4162
156.1875, 4159
156.19, 4086
156.1925, 4171
156.195, 4183
156.1975, 4185
156.2, 4170
156.2025, 4182
156.205, 4177
156.2075, 4083
156.21, 4142
156.2125, 4171
156.215, 4165
156.2175, 4179
156.22, 4169
156.2225, 4166
156.225, 4062
156.2275, 4142
156.23, 4155
156.2325, 4162
156.235, 4154
156.2375, 4163
156.24, 4157
156.2425, 4075
156.245, 4165
156.2475, 4174
156.25, 4189
156.2525, 4166
156.255, 4177
156.2575, 4168
156.26, 4082
156.2625, 4180
156.265, 4184
156.2675, 4149
156.27, 4151
156.2725, 4184
156.275, 4183
156.2775, 4060
156.28, 4161
156.2825, 4179
156.285, 4173
156.2875, 4170
156.29, 4173
156.2925, 4192
156.295, 4164
156.2975, 4183
156.3, 4177
156.3025, 4164
156.305, 4134
156.3075, 4178
156.31, 4176
156.3125, 4103
156.315, 4192
156.3175, 4178
156.32, 4157
156.3225, 4157
156.325, 4187
156.3275, 4175
156.33, 4075
156.3325, 4167
156.335, 4154
156.3375, 4139
156.34, 4157
156.3425, 4155
156.345, 4169
156.3475, 4137
156.35, 4184
156.3525, 4167
156.355, 4182
156.3575, 4178
156.36, 4174
156.3625, 4159
156.365, 4073
156.3675, 4178
156.37, 4180
156.3725, 4178
156.375, 4183
156.3775, 4184
156.38, 4193
156.3825, 4107
156.385, 4191
156.3875, 4198
156.39, 4179
156.3925, 4161
156.395, 4205
156.3975, 4183
156.4, 4097
156.4025, 4189
156.405, 4194
156.4075, 4204
156.41, 4210
156.4125, 4191
156.415, 4172
156.4175, 4115
156.42, 4195
156.4225, 4194
156.425, 4207
156.4275, 4202
156.43, 4192
156.4325, 4171
156.435, 4090
156.4375, 4177
156.44, 4170
156.4425, 4178
156.445, 4170
156.4475, 4184
156.45, 4196
156.4525, 4090
156.455, 4181
156.4575, 4185
156.46, 4166
156.4625, 4193
156.465, 4213
156.4675, 4201
156.47, 4157
156.4725, 4208
156.475, 4198
156.4775, 4172
156.48, 4159
156.4825, 4155
156.485, 4151
156.4875, 4076
156.49, 4199
156.4925, 4183
156.495, 4166
156.4975, 4167
156.5, 4189
156.5025, 4179
156.505, 4085
156.5075, 4178
156.51, 4194
156.5125, 4156
156.515, 4142
156.5175, 4162
156.52, 4183
156.5225, 4085
156.525, 4188
156.5275, 4171
156.53, 4170
156.5325, 4161
156.535, 4154
156.5375, 4175
156.54, 4098
156.5425, 4167
156.545, 4148
156.5475, 4144
156.55, 4139
156.5525, 4172
156.555, 4160
156.5575, 4085
156.56, 4159
156.5625, 4141
156.565, 4111
156.5675, 4069
156.57, 4081
156.5725, 4100
156.575, 4007
156.5775, 4088
156.58, 4100
156.5825, 4121
156.585, 4101
156.5875, 4134
156.59, 4147
156.5925, 4066
156.595, 4187
156.5975, 4177
156.6, 4173
156.6025, 4159
156.605, 4176
156.6075, 4193
156.61, 4080
156.6125, 4191
156.615, 4174
156.6175, 4156
156.62, 4174
156.6225, 4204
156.625, 4160
156.6275, 4100
156.63, 4195
156.6325, 4192
156.635, 4189
156.6375, 4192
156.64, 4227
156.6425, 4209
156.645, 4181
156.6475, 4246
156.65, 4238
156.6525, 4213
156.655, 4226
156.6575, 4237
156.66, 4216
156.6625, 4134
156.665, 4228
156.6675, 4235
156.67, 4290
156.6725, 4365
156.675, 4395
156.6775, 4420
156.68, 4356
156.6825, 4439
156.685, 4335
156.6875, 4153
156.69, 3940
156.6925, 3683
156.695, 3382
156.6975, 3025
156.7, 2720
156.7025, 2244
156.705, 2001
156.7075, 1848
156.71, 1992
156.7125, 2360
156.715, 3033
156.7175, 4084
156.72, 4732
156.7225, 4967
156.725, 4974
156.7275, 4947
156.73, 4801
156.7325, 4595
156.735, 4602
156.7375, 4578
156.74, 4511
156.7425, 4470
156.745, 4495
156.7475, 4465
156.75, 4405
156.7525, 4512
156.755, 4510
156.7575, 4511
156.76, 4480
156.7625, 4468
156.765, 4467
156.7675, 4367
156.77, 4456
156.7725, 4423
156.775, 4401
156.7775, 4425
156.78, 4447
156.7825, 4428
156.785, 4326
156.7875, 4395
156.79, 4397
156.7925, 4367
156.795, 4364
156.7975, 4377
156.8, 4350
156.8025, 4276
156.805, 4375
156.8075, 4353
156.81, 4337
156.8125, 4319
156.815, 4313
156.8175, 4305
156.82, 4191
156.8225, 4279
156.825, 4276
156.8275, 4263
156.83, 4251
156.8325, 4273
156.835, 4276
156.8375, 4174
156.84, 4266
156.8425, 4271
156.845, 4235
156.8475, 4220
156.85, 4217
156.8525, 4214
156.855, 4134
156.8575, 4206
156.86, 4229
156.8625, 4214
156.865, 4203
156.8675, 4215
156.87, 4201
156.8725, 4077
156.875, 4212
156.8775, 4222
156.88, 4206
156.8825, 4214
156.885, 4202
156.8875, 4206
156.89, 4104
156.8925, 4212
156.895, 4207
156.8975, 4209
156.9, 4205
156.9025, 4212
156.905, 4197
156.9075, 4104
156.91, 4210
156.9125, 4210
156.915, 4203
156.9175, 4194
156.92, 4184
156.9225, 4167
156.925, 4065
156.9275, 4184
156.93, 4207
156.9325, 4197
156.935, 4191
156.9375, 4182
156.94, 4175
156.9425, 4094
156.945, 4204
156.9475, 4181
156.95, 4145
156.9525, 4159
156.955, 4175
156.9575, 4185
156.96, 4077
156.9625, 4198
156.965, 4198
156.9675, 4172
156.97, 4143
156.9725, 4158
156.975, 4144
156.9775, 4079
156.98, 4162
156.9825, 4156
156.985, 4151
156.9875, 4160
156.99, 4158
156.9925, 4167
156.995, 4077
156.9975, 4159
157.0, 4151
157.0025, 4137
157.005, 4135
157.0075, 4151
157.01, 4139
157.0125, 4089
157.015, 4180
157.0175, 4185
157.02, 4186
157.0225, 4166
157.025, 4184
157.0275, 4184
157.03, 4093
157.0325, 4186
157.035, 4213
157.0375, 4188
157.04, 4183
157.0425, 4212
157.045, 4186
157.0475, 4098
157.05, 4210
157.0525, 4217
157.055, 4222
157.0575, 4214
157.06, 4225
157.0625, 4210
157.065, 4115
157.0675, 4212
157.07, 4197
157.0725, 4189
157.075, 4198
157.0775, 4200
157.08, 4198
157.0825, 4128
157.085, 4230
157.0875, 4200
157.09, 4206
157.0925, 4191
157.095, 4204
157.0975, 4198
157.1, 4085
157.1025, 4187
157.105, 4188
157.1075, 4170
157.11, 4158
157.1125, 4195
157.115, 4182
157.1175, 4143
157.12, 4183
157.1225, 4186
157.125, 4174
157.1275, 4143
157.13, 4189
157.1325, 4174
157.135, 4084
157.1375, 4162
157.14, 4167
157.1425, 4165
157.145, 4185
157.1475, 4186
157.15, 4172
157.1525, 4088
157.155, 4168
157.1575, 4163
157.16, 4156
157.1625, 4160
157.165, 4184
157.1675, 4162
157.17, 4130
157.1725, 4165
157.175, 4164
157.1775, 4168
157.18, 4170
157.1825, 4153
157.185, 4156
157.1875, 4077
157.19, 4173
157.1925, 4169
157.195, 4164
157.1975, 4163
157.2, 4148
157.2025, 4153
157.205, 4078
157.2075, 4169
157.21, 4170
157.2125, 4172
157.215, 4169
157.2175, 4176
157.22, 4167
157.2225, 4101
157.225, 4186
157.2275, 4184
157.23, 4186
157.2325, 4169
157.235, 4158
157.2375, 4170
157.24, 4075
157.2425, 4178
157.245, 4170
157.2475, 4163
157.25, 4162
157.2525, 4170
157.255, 4190
157.2575, 4081
157.26, 4188
157.2625, 4205
157.265, 4210
157.2675, 4198
157.27, 4193
157.2725, 4186
157.275, 4053
157.2775, 4176
157.28, 4183
157.2825, 4170
157.285, 4159
157.2875, 4178
157.29, 4142
157.2925, 4076
157.295, 4187
157.2975, 4172
157.3, 4176
157.3025, 4168
157.305, 4191
157.3075, 4204
157.31, 4105
157.3125, 4180
157.315, 4167
157.3175, 4163
157.32, 4200
157.3225, 4196
157.325, 4164
157.3275, 4048
157.33, 4184
157.3325, 4178
157.335, 4162
157.3375, 4182
157.34, 4180
157.3425, 4156
157.345, 4118
157.3475, 4188
157.35, 4199
157.3525, 4175
157.355, 4170
157.3575, 4184
157.36, 4173
157.3625, 4100
157.365, 4159
157.3675, 4178
157.37, 4178
157.3725, 4181
157.375, 4164
157.3775, 4148
157.38, 4087
157.3825, 4178
157.385, 4182
157.3875, 4173
157.39, 4171
157.3925, 4186
157.395, 4194
157.3975, 4108
157.4, 4183
157.4025, 4167
157.405, 4152
157.4075, 4155
157.41, 4143
157.4125, 4154
157.415, 4074
157.4175, 4182
157.42, 4180
157.4225, 4156
157.425, 4154
157.4275, 4173
157.43, 4178
157.4325, 4088
157.435, 4174
157.4375, 4170
157.44, 4170
157.4425, 4141
157.445, 4151
157.4475, 4144
157.45, 4161
157.4525, 4165
157.455, 4157
157.4575, 4161
157.46, 4181
157.4625, 4165
157.465, 4150
157.4675, 4082
157.47, 4166
157.4725, 4159
157.475, 4154
157.4775, 4158
157.48, 4161
157.4825, 4175
157.485, 4074
157.4875, 4153
157.49, 4138
157.4925, 4126
157.495, 4118
157.4975, 4122
157.5, 4126
157.5025, 4064
157.505, 4163
157.5075, 4158
157.51, 4145
157.5125, 4164
157.515, 4158
157.5175, 4145
157.52, 4013
157.5225, 4135
157.525, 4126
157.5275, 4133
157.53, 4146
157.5325, 4144
157.535, 4149
157.5375, 4067
157.54, 4135
157.5425, 4119
157.545, 4154
157.5475, 4157
157.55, 4159
157.5525, 4166
157.555, 4072
157.5575, 4172
157.56, 4178
157.5625, 4178
157.565, 4195
157.5675, 4204
157.57, 4180
157.5725, 4107
157.575, 4179
157.5775, 4164
157.58, 4199
157.5825, 4185
157.585, 4171
157.5875, 4170
157.59, 4065
157.5925, 4160
157.595, 4154
157.5975, 4148
157.6, 4159
157.6025, 4172
157.605, 4147
157.6075, 4070
157.61, 4154
157.6125, 4166
157.615, 4160
157.6175, 4157
157.62, 4167
157.6225, 4176
157.625, 4083
157.6275, 4169
157.63, 4170
157.6325, 4167
157.635, 4165
157.6375, 4163
157.64, 4157
157.6425, 4065
157.645, 4192
157.6475, 4167
157.65, 4156
157.6525, 4145
157.655, 4131
157.6575, 4115
157.66, 4015
157.6625, 4056
157.665, 4071
157.6675, 4081
157.67, 4091
157.6725, 4111
157.675, 4113
157.6775, 4037
157.68, 4175
157.6825, 4186
157.685, 4177
157.6875, 4156
157.69, 4177
157.6925, 4159
157.695, 4090
157.6975, 4182
157.7, 4202
157.7025, 4210
157.705, 4175
157.7075, 4162
157.71, 4170
157.7125, 4089
157.715, 4176
157.7175, 4179
157.72, 4197
157.7225, 4191
157.725, 4186
157.7275, 4173
157.73, 4109
157.7325, 4199
157.735, 4176
157.7375, 4188
157.74, 4186
157.7425, 4220
157.745, 4215
157.7475, 4123
157.75, 4226
157.7525, 4213
157.755, 4210
157.7575, 4227
157.76, 4217
157.7625, 4226
157.765, 4231
157.7675, 4406
157.77, 4428
157.7725, 4457
157.775, 4480
157.7775, 4501
157.78, 4391
157.7825, 4114
157.785, 4011
157.7875, 3719
157.79, 3402
157.7925, 3039
157.795, 2628
157.7975, 2111
157.8, 1751
157.8025, 1782
157.805, 1853
157.8075, 2359
157.81, 3143
157.8125, 4002
157.815, 4594
157.8175, 4825
157.82, 4902
157.8225, 4781
157.825, 4650
157.8275, 4542
157.83, 4531
157.8325, 4525
157.835, 4412
157.8375, 4497
157.84, 4494
157.8425, 4526
157.845, 4512
157.8475, 4542
157.85, 4517
157.8525, 4422
157.855, 4500
157.8575, 4484
157.86, 4480
157.8625, 4479
157.865, 4467
157.8675, 4453
157.87, 4397
157.8725, 4444
157.875, 4430
157.8775, 4416
157.88, 4422
157.8825, 4426
157.885, 4394
157.8875, 4303
157.89, 4384
157.8925, 4370
157.895, 4376
157.8975, 4357
157.9, 4355
157.9025, 4340
157.905, 4253
157.9075, 4348
157.91, 4330
157.9125, 4313
157.915, 4306
157.9175, 4311
157.92, 4323
157.9225, 4236
157.925, 4337
157.9275, 4320
157.93, 4310
157.9325, 4309
157.935, 4291
157.9375, 4281
157.94, 4190
157.9425, 4253
157.945, 4248
157.9475, 4254
157.95, 4232
157.9525, 4242
157.955, 4218
157.9575, 4141
157.96, 4233
157.9625, 4232
157.965, 4207
157.9675, 4183
157.97, 4211
157.9725, 4194
157.975, 4084
157.9775, 4216
157.98, 4231
157.9825, 4204
157.985, 4215
157.9875, 4220
157.99, 4206
157.9925, 4117
157.995, 4218
157.9975, 4214
158.0, 4225
158.0025, 4202
158.005, 4224
158.0075, 4218
158.01, 4140
158.0125, 4202
158.015, 4215
158.0175, 4216
158.02, 4217
158.0225, 4213
158.025, 4210
158.0275, 4191
158.03, 4204
158.0325, 4202
158.035, 4191
158.0375, 4090
158.04, 4238
158.0425, 4221
158.045, 4166
158.0475, 4198
158.05, 4199
158.0525, 4205
158.055, 4184
158.0575, 4191
158.06, 4185
158.0625, 4092
158.065, 4169
158.0675, 4175
158.07, 4158
158.0725, 4156
158.075, 4140
158.0775, 4123
158.08, 4035
158.0825, 4125
158.085, 4117
158.0875, 4101
158.09, 4092
158.0925, 4106
158.095, 4094
158.0975, 4043
158.1, 4082
158.1025, 4085
158.105, 4074
158.1075, 4072
158.11, 4107
158.1125, 4106
158.115, 4021
158.1175, 4102
158.12, 4142
158.1225, 4142
158.125, 4154
158.1275, 4175
158.13, 4175
158.1325, 4095
158.135, 4195
158.1375, 4188
158.14, 4186
158.1425, 4188
158.145, 4189
158.1475, 4183
158.15, 4105
158.1525, 4169
158.155, 4169
158.1575, 4181
158.16, 4183
158.1625, 4185
158.165, 4199
158.1675, 4130
158.17, 4179
158.1725, 4162
158.175, 4152
158.1775, 4151
158.18, 4164
158.1825, 4179
158.185, 4111
158.1875, 4208
158.19, 4201
158.1925, 4222
158.195, 4207
158.1975, 4203
158.2, 4206
158.2025, 4095
158.205, 4196
158.2075, 4194
158.21, 4199
158.2125, 4194
158.215, 4179
158.2175, 4196
158.22, 4105
158.2225, 4200
158.225, 4153
158.2275, 4152
158.23, 4105
158.2325, 4170
158.235, 4140
158.2375, 4054
158.24, 4155
158.2425, 4161
158.245, 4162
158.2475, 4162
158.25, 4168
158.2525, 4152
158.255, 4062
158.2575, 4141
158.26, 4146
158.2625, 4143
158.265, 4166
158.2675, 4186
158.27, 4175
158.2725, 4135
158.275, 4147
158.2775, 4154
158.28, 4148
158.2825, 4121
158.285, 4141
158.2875, 4137
158.29, 4046
158.2925, 4121
158.295, 4151
158.2975, 4146
158.3, 4149
158.3025, 4156
158.305, 4150
158.3075, 4062
158.31, 4160
158.3125, 4138
158.315, 4164
158.3175, 4152
158.32, 4167
158.3225, 4153
158.325, 4130
158.3275, 4186
158.33, 4186
158.3325, 4178
158.335, 4141
158.3375, 4177
158.34, 4180
158.3425, 4102
158.345, 4176
158.3475, 4175
158.35, 4194
158.3525, 4186
158.355, 4176
158.3575, 4161
158.36, 4100
158.3625, 4206
158.365, 4153
158.3675, 4153
158.37, 4154
158.3725, 4150
158.375, 4152
158.3775, 4069
158.38, 4177
158.3825, 4194
158.385, 4206
158.3875, 4172
158.39, 4168
158.3925, 4176
158.395, 4052
158.3975, 4155
158.4, 4151
158.4025, 4161
158.405, 4161
158.4075, 4178
158.41, 4164
158.4125, 4097
158.415, 4188
158.4175, 4171
158.42, 4167
158.4225, 4153
158.425, 4168
158.4275, 4159
158.43, 4080
158.4325, 4176
158.435, 4176
158.4375, 4174
158.44, 4167
158.4425, 4183
158.445, 4154
158.4475, 4132
158.45, 4167
158.4525, 4160
158.455, 4154
158.4575, 4169
158.46, 4200
158.4625, 4171
158.465, 4095
158.4675, 4198
158.47, 4177
158.4725, 4180
158.475, 4153
158.4775, 4168
158.48, 4172
158.4825, 4043
158.485, 4164
158.4875, 4152
158.49, 4143
158.4925, 4137
158.495, 4153
158.4975, 4154
158.5, 4108
158.5025, 4153
158.505, 4166
158.5075, 4163
158.51, 4172
158.5125, 4183
158.515, 4171
158.5175, 4067
158.52, 4175
158.5225, 4178
158.525, 4202
158.5275, 4188
158.53, 4181
158.5325, 4170
158.535, 4095
158.5375, 4190
158.54, 4188
158.5425, 4200
158.545, 4180
158.5475, 4205
158.55, 4185
158.5525, 4093
158.555, 4192
158.5575, 4146
158.56, 4140
158.5625, 4144
158.565, 4163
158.5675, 4176
158.57, 4076
158.5725, 4167
158.575, 4178
158.5775, 4162
158.58, 4170
158.5825, 4195
158.585, 4186
158.5875, 4110
158.59, 4201
158.5925, 4186
158.595, 4184
158.5975, 4174
158.6, 4187
158.6025, 4186
158.605, 4082
158.6075, 4187
158.61, 4195
158.6125, 4181
158.615, 4169
158.6175, 4195
158.62, 4193
158.6225, 4143
158.625, 4188
158.6275, 4182
158.63, 4185
158.6325, 4168
158.635, 4177
158.6375, 4153
158.64, 4059
158.6425, 4179
158.645, 4176
158.6475, 4154
158.65, 4170
158.6525, 4184
158.655, 4164
158.6575, 4063
158.66, 4158
158.6625, 4154
158.665, 4166
158.6675, 4167
158.67, 4167
158.6725, 4158
158.675, 4125
158.6775, 4142
158.68, 4135
158.6825, 4121
158.685, 4111
158.6875, 4150
158.69, 4152
158.6925, 4059
158.695, 4162
158.6975, 4166
158.7, 4176
158.7025, 4152
158.705, 4150
158.7075, 4132
158.71, 4085
158.7125, 4161
158.715, 4151
158.7175, 4145
158.72, 4144
158.7225, 4171
158.725, 4168
158.7275, 4090
158.73, 4191
158.7325, 4165
158.735, 4153
158.7375, 4159
158.74, 4149
158.7425, 4161
158.745, 4125
158.7475, 4157
158.75, 4182
158.7525, 4191
158.755, 4170
158.7575, 4140
158.76, 4113
158.7625, 3991
158.765, 4097
158.7675, 4098
158.77, 4084
158.7725, 4081
158.775, 4080
158.7775, 4111
158.78, 4008
158.7825, 4107
158.785, 4123
158.7875, 4111
158.79, 4137
158.7925, 4143
158.795, 4153
158.7975, 4080
158.8, 4170
158.8025, 4168
158.805, 4158
158.8075, 4202
158.81, 4177
158.8125, 4159
158.815, 4135
158.8175, 4169
158.82, 4172
158.8225, 4164
158.825, 4126
158.8275, 4174
158.83, 4205
158.8325, 4088
158.835, 4188
158.8375, 4191
158.84, 4189
158.8425, 4184
158.845, 4180
158.8475, 4198
158.85, 4152
158.8525, 4202
158.855, 4189
158.8575, 4187
158.86, 4175
158.8625, 4202
158.865, 4281
158.8675, 4241
158.87, 4378
158.8725, 4391
158.875, 4424
158.8775, 4446
158.88, 4386
158.8825, 4205
158.885, 3937
158.8875, 3808
158.89, 3510
158.8925, 3263
158.895, 2858
158.8975, 2366
158.9, 2048
158.9025, 1801
158.905, 1936
158.9075, 2216
158.91, 2797
158.9125, 3694
158.915, 4540
158.9175, 4916
158.92, 4950
158.9225, 4997
158.925, 4848
158.9275, 4711
158.93, 4634
158.9325, 4572
158.935, 4541
158.9375, 4417
158.94, 4489
158.9425, 4477
158.945, 4495
158.9475, 4494
158.95, 4509
158.9525, 4497
158.955, 4400
158.9575, 4493
158.96, 4482
158.9625, 4470
158.965, 4458
158.9675, 4443
158.97, 4422
158.9725, 4306
158.975, 4411
158.9775, 4407
158.98, 4400
158.9825, 4406
158.985, 4402
158.9875, 4388
158.99, 4294
158.9925, 4383
158.995, 4358
158.9975, 4339
159.0, 4364
159.0025, 4347
159.005, 4312
159.0075, 4214
159.01, 4330
159.0125, 4309
159.015, 4285
159.0175, 4272
159.02, 4284
159.0225, 4256
159.025, 4220
159.0275, 4256
159.03, 4259
159.0325, 4262
159.035, 4252
159.0375, 4259
159.04, 4253
159.0425, 4169
159.045, 4269
159.0475, 4248
159.05, 4231
159.0525, 4228
159.055, 4217
159.0575, 4215
159.06, 4115
159.0625, 4214
159.065, 4195
159.0675, 4192
159.07, 4187
159.0725, 4174
159.075, 4196
159.0775, 4103
159.08, 4177
159.0825, 4173
159.085, 4184
159.0875, 4192
159.09, 4198
159.0925, 4187
159.095, 4101
159.0975, 4185
159.1, 4164
159.1025, 4162
159.105, 4173
159.1075, 4183
159.11, 4173
159.1125, 4080
159.115, 4177
159.1175, 4168
159.12, 4173
159.1225, 4167
159.125, 4183
159.1275, 4181
159.13, 4083
159.1325, 4175
159.135, 4177
159.1375, 4172
159.14, 4173
159.1425, 4185
159.145, 4173
159.1475, 4067
159.15, 4190
159.1525, 4177
159.155, 4172
159.1575, 4148
159.16, 4164
159.1625, 4151
159.165, 4061
159.1675, 4147
159.17, 4128
159.1725, 4129
159.175, 4155
159.1775, 4151
159.18, 4143
159.1825, 4055
159.185, 4164
159.1875, 4159
159.19, 4147
159.1925, 4149
159.195, 4152
159.1975, 4148
159.2, 4075
159.2025, 4176
159.205, 4198
159.2075, 4199
159.21, 4207
159.2125, 4196
159.215, 4196
159.2175, 4106
159.22, 4235
159.2225, 4231
159.225, 4230
159.2275, 4225
159.23, 4205
159.2325, 4216
159.235, 4123
159.2375, 4244
159.24, 4235
159.2425, 4253
159.245, 4245
159.2475, 4273
159.25, 4241
159.2525, 4204
159.255, 4248
159.2575, 4226
159.26, 4220
159.2625, 4224
159.265, 4212
159.2675, 4234
159.27, 4140
159.2725, 4226
159.275, 4199
159.2775, 4222
159.28, 4243
159.2825, 4233
159.285, 4219
159.2875, 4101
159.29, 4216
159.2925, 4242
159.295, 4210
159.2975, 4172
159.3, 4185
159.3025, 4192
159.305, 4173
159.3075, 4208
159.31, 4189
159.3125, 4209
159.315, 4198
159.3175, 4208
159.32, 4195
159.3225, 4090
159.325, 4186
159.3275, 4182
159.33, 4175
159.3325, 4172
159.335, 4178
159.3375, 4172
159.34, 4092
159.3425, 4199
159.345, 4195
159.3475, 4172
159.35, 4174
159.3525, 4184
159.355, 4174
159.3575, 4075
159.36, 4175
159.3625, 4169
159.365, 4167
159.3675, 4193
159.37, 4181
159.3725, 4176
159.375, 4085
159.3775, 4194
159.38, 4192
159.3825, 4175
159.385, 4168
159.3875, 4181
159.39, 4161
159.3925, 4064
159.395, 4146
159.3975, 4157
159.4, 4186
159.4025, 4189
159.405, 4209
159.4075, 4207
159.41, 4102
159.4125, 4198
159.415, 4190
159.4175, 4189
159.42, 4202
159.4225, 4212
159.425, 4189
159.4275, 4168
159.43, 4217
159.4325, 4215
159.435, 4207
159.4375, 4187
159.44, 4190
159.4425, 4191
159.445, 4116
159.4475, 4212
159.45, 4190
159.4525, 4181
159.455, 4158
159.4575, 4174
159.46, 4173
159.4625, 4092
159.465, 4191
159.4675, 4195
159.47, 4176
159.4725, 4171
159.475, 4184
159.4775, 4172
159.48, 4059
159.4825, 4157
159.485, 4140
159.4875, 4162
159.49, 4150
159.4925, 4145
159.495, 4157
159.4975, 4082
159.5, 4167
159.5025, 4168
159.505, 4165
159.5075, 4148
159.51, 4177
159.5125, 4169
159.515, 4080
159.5175, 4159
159.52, 4159
159.5225, 4151
159.525, 4137
159.5275, 4125
159.53, 4115
159.5325, 4034
159.535, 4136
159.5375, 4120
159.54, 4134
159.5425, 4147
159.545, 4168
159.5475, 4160
159.55, 4075
159.5525, 4163
159.555, 4163
159.5575, 4168
159.56, 4177
159.5625, 4156
159.565, 4159
159.5675, 4073
159.57, 4136
159.5725, 4159
159.575, 4171
159.5775, 4156
159.58, 4172
159.5825, 4145
159.585, 4062
159.5875, 4181
159.59, 4159
159.5925, 4149
159.595, 4136
159.5975, 4159
159.6, 4159
159.6025, 4124
159.605, 4183
159.6075, 4179
159.61, 4162
159.6125, 4160
159.615, 4162
159.6175, 4127
159.62, 4042
159.6225, 4157
159.625, 4163
159.6275, 4137
159.63, 4131
159.6325, 4127
159.635, 4147
159.6375, 4049
159.64, 4157
159.6425, 4178
159.645, 4156
159.6475, 4142
159.65, 4141
159.6525, 4148
159.655, 4103
159.6575, 4148
159.66, 4164
159.6625, 4156
159.665, 4174
159.6675, 4181
159.67, 4185
159.6725, 4071
159.675, 4184
159.6775, 4171
159.68, 4159
159.6825, 4123
159.685, 4187
159.6875, 4175
159.69, 4095
159.6925, 4177
159.695, 4178
159.6975, 4200
159.7, 4189
159.7025, 4177
159.705, 4164
159.7075, 4085
159.71, 4172
159.7125, 4148
159.715, 4160
159.7175, 4167
159.72, 4161
159.7225, 4135
159.725, 4066
159.7275, 4172
159.73, 4167
159.7325, 4159
159.735, 4161
159.7375, 4167
159.74, 4145
159.7425, 4073
159.745, 4153
159.7475, 4169
159.75, 4184
159.7525, 4180
159.755, 4173
159.7575, 4145
159.76, 4075
159.7625, 4186
159.765, 4166
159.7675, 4159
159.77, 4142
159.7725, 4164
159.775, 4167
159.7775, 4125
159.78, 4169
159.7825, 4173
159.785, 4158
159.7875, 4161
159.79, 4186
159.7925, 4180
159.795, 4083
159.7975, 4178
159.8, 4180
159.8025, 4175
159.805, 4171
159.8075, 4154
159.81, 4142
159.8125, 4079
159.815, 4168
159.8175, 4166
159.82, 4157
159.8225, 4159
159.825, 4178
159.8275, 4183
159.83, 4135
159.8325, 4187
159.835, 4179
159.8375, 4161
159.84, 4146
159.8425, 4165
159.845, 4167
159.8475, 4090
159.85, 4174
159.8525, 4183
159.855, 4166
159.8575, 4160
159.86, 4160
159.8625, 4138
159.865, 4013
159.8675, 4052
159.87, 4042
159.8725, 4060
159.875, 4066
159.8775, 4108
159.88, 4121
159.8825, 4041
159.885, 4138
159.8875, 4138
159.89, 4132
159.8925, 4129
159.895, 4150
159.8975, 4181
159.9, 4110
159.9025, 4212
159.905, 4201
159.9075, 4202
159.91, 4196
159.9125, 4203
159.915, 4194
159.9175, 4097
159.92, 4191
159.9225, 4182
159.925, 4198
159.9275, 4191
159.93, 4186
159.9325, 4181
159.935, 4084
159.9375, 4177
159.94, 4189
159.9425, 4183
159.945, 4163
159.9475, 4185
159.95, 4176
159.9525, 4138
159.955, 4172
159.9575, 4179
159.96, 4176
159.9625, 4159
159.965, 4193
159.9675, 4217
159.97, 4176
159.9725, 4342
159.975, 4398
159.9775, 4410
159.98, 4467
159.9825, 4499
159.985, 4467
159.9875, 4232
159.99, 4142
159.9925, 3889
159.995, 3565
159.9975, 3251
160.0, 2871
160.0025, 2367
160.005, 1867
160.0075, 1718
160.01, 1763
160.0125, 2003
160.015, 2686
160.0175, 3553
160.02, 4308
160.0225, 4671
160.025, 4907
160.0275, 4849
160.03, 4721
160.0325, 4616
160.035, 4569
160.0375, 4569
160.04, 4470
160.0425, 4543
160.045, 4506
160.0475, 4518
160.05, 4495
160.0525, 4552
160.055, 4520
160.0575, 4434
160.06, 4505
160.0625, 4501
160.065, 4500
160.0675, 4505
160.07, 4484
160.0725, 4475
160.075, 4359
160.0775, 4449
160.08, 4448
160.0825, 4426
160.085, 4431
160.0875, 4454
160.09, 4445
160.0925, 4324
160.095, 4412
160.0975, 4405
160.1, 4384
160.1025, 4377
160.105, 4381
160.1075, 4385
160.11, 4276
160.1125, 4356
160.115, 4337
160.1175, 4326
160.12, 4316
160.1225, 4338
160.125, 4343
160.1275, 4295
160.13, 4319
160.1325, 4301
160.135, 4283
160.1375, 4294
160.14, 4273
160.1425, 4284
160.145, 4171
160.1475, 4266
160.15, 4243
160.1525, 4229
160.155, 4229
160.1575, 4245
160.16, 4231
160.1625, 4146
160.165, 4230
160.1675, 4235
160.17, 4236
160.1725, 4211
160.175, 4238
160.1775, 4242
160.18, 4122
160.1825, 4217
160.185, 4202
160.1875, 4203
160.19, 4199
160.1925, 4241
160.195, 4217
160.1975, 4125
160.2, 4202
160.2025, 4205
160.205, 4180
160.2075, 4182
160.21, 4194
160.2125, 4199
160.215, 4102
160.2175, 4226
160.22, 4221
160.2225, 4221
160.225, 4212
160.2275, 4218
160.23, 4208
160.2325, 4147
160.235, 4235
160.2375, 4211
160.24, 4196
160.2425, 4202
160.245, 4219
160.2475, 4213
160.25, 4108
160.2525, 4201
160.255, 4204
160.2575, 4208
160.26, 4189
160.2625, 4193
160.265, 4190
160.2675, 4102
160.27, 4187
160.2725, 4186
160.275, 4180
160.2775, 4164
160.28, 4164
160.2825, 4161
160.285, 4070
160.2875, 4161
160.29, 4146
160.2925, 4137
160.295, 4110
160.2975, 4070
160.3, 4079
160.3025, 3996
160.305, 4094
160.3075, 4098
160.31, 4108
160.3125, 4084
160.315, 4116
160.3175, 4122
160.32, 4043
160.3225, 4140
160.325, 4117
160.3275, 4127
160.33, 4154
160.3325, 4170
160.335, 4184
160.3375, 4066
160.34, 4176
160.3425, 4197
160.345, 4186
160.3475, 4181
160.35, 4179
160.3525, 4188
160.355, 4136
160.3575, 4187
160.36, 4191
160.3625, 4198
160.365, 4218
160.3675, 4227
160.37, 4213
160.3725, 4108
160.375, 4193
160.3775, 4176
160.38, 4183
160.3825, 4200
160.385, 4196
160.3875, 4197
160.39, 4175
160.3925, 4198
160.395, 4186
160.3975, 4162
160.4, 4135
160.4025, 4183
160.405, 4178
160.4075, 4127
160.41, 4172
160.4125, 4179
160.415, 4156
160.4175, 4163
160.42, 4178
160.4225, 4184
160.425, 4093
160.4275, 4197
160.43, 4180
160.4325, 4177
160.435, 4179
160.4375, 4192
160.44, 4170
160.4425, 4061
160.445, 4195
160.4475, 4182
160.45, 4169
160.4525, 4159
160.455, 4183
160.4575, 4180
160.46, 4112
160.4625, 4191
160.465, 4172
160.4675, 4201
160.47, 4191
160.4725, 4174
160.475, 4164
160.4775, 4085
160.48, 4162
160.4825, 4160
160.485, 4155
160.4875, 4150
160.49, 4157
160.4925, 4163
160.495, 4065
160.4975, 4155
160.5, 4149
160.5025, 4164
160.505, 4175
160.5075, 4151
160.51, 4143
160.5125, 4082
160.515, 4174
160.5175, 4178
160.52, 4160
160.5225, 4171
160.525, 4187
160.5275, 4158
160.53, 4134
160.5325, 4206
160.535, 4196
160.5375, 4180
160.54, 4176
160.5425, 4168
160.545, 4158
160.5475, 4066
160.55, 4182
160.5525, 4201
160.555, 4180
160.5575, 4171
160.56, 4183
160.5625, 4189
160.565, 4066
160.5675, 4172
160.57, 4161
160.5725, 4174
160.575, 4147
160.5775, 4145
160.58, 4131
160.5825, 4111
160.585, 4172
160.5875, 4174
160.59, 4162
160.5925, 4169
160.595, 4165
160.5975, 4162
160.6, 4049
160.6025, 4173
160.605, 4183
160.6075, 4182
160.61, 4181
160.6125, 4183
160.615, 4173
160.6175, 4083
160.62, 4155
160.6225, 4188
160.625, 4196
160.6275, 4201
160.63, 4179
160.6325, 4141
160.635, 4066
160.6375, 4177
160.64, 4159
160.6425, 4154
160.645, 4167
160.6475, 4161
160.65, 4158
160.6525, 4054
160.655, 4157
160.6575, 4145
160.66, 4144
160.6625, 4123
160.665, 4141
160.6675, 4134
160.67, 4053
160.6725, 4165
160.675, 4170
160.6775, 4178
160.68, 4169
160.6825, 4195
160.685, 4191
160.6875, 4114
160.69, 4200
160.6925, 4212
160.695, 4183
160.6975, 4168
160.7, 4178
160.7025, 4153
160.705, 4075
160.7075, 4182
160.71, 4158
160.7125, 4149
160.715, 4140
160.7175, 4164
160.72, 4149
160.7225, 4056
160.725, 4184
160.7275, 4181
160.73, 4156
160.7325, 4153
160.735, 4168
160.7375, 4164
160.74, 4091
160.7425, 4191
160.745, 4179
160.7475, 4167
160.75, 4156
160.7525, 4175
160.755, 4177
160.7575, 4115
160.76, 4140
160.7625, 4164
160.765, 4180
160.7675, 4190
160.77, 4171
160.7725, 4192
160.775, 4067
160.7775, 4144
160.78, 4128
160.7825, 4131
160.785, 4145
160.7875, 4161
160.79, 4135
160.7925, 4040
160.795, 4149
160.7975, 4138
160.8, 4154
160.8025, 4143
160.805, 4144
160.8075, 4150
160.81, 4109
160.8125, 4153
160.815, 4142
160.8175, 4158
160.82, 4170
160.8225, 4190
160.825, 4197
160.8275, 4098
160.83, 4208
160.8325, 4205
160.835, 4193
160.8375, 4175
160.84, 4169
160.8425, 4163
160.845, 4101
160.8475, 4190
160.85, 4196
160.8525, 4201
160.855, 4193
160.8575, 4179
160.86, 4153
160.8625, 4070
160.865, 4183
160.8675, 4165
160.87, 4175
160.8725, 4188
160.875, 4170
160.8775, 4164
160.88, 4073
160.8825, 4174
160.885, 4169
160.8875, 4194
160.89, 4156
160.8925, 4155
160.895, 4161
160.8975, 4074
160.9, 4155
160.9025, 4167
160.905, 4160
160.9075, 4169
160.91, 4170
160.9125, 4170
160.915, 4070
160.9175, 4200
160.92, 4209
160.9225, 4195
160.925, 4181
160.9275, 4185
160.93, 4203
160.9325, 4157
160.935, 4193
160.9375, 4195
160.94, 4183
160.9425, 4151
160.945, 4161
160.9475, 4164
160.95, 4085
160.9525, 4207
160.955, 4188
160.9575, 4170
160.96, 4209
160.9625, 4220
160.965, 4224
160.9675, 4128
160.97, 4211
160.9725, 4200
160.975, 4197
160.9775, 4166
160.98, 4191
160.9825, 4193
160.985, 4096
160.9875, 4199
160.99, 4190
160.9925, 4196
160.995, 4201
160.9975, 4207
161.0, 4193
161.0025, 4108
161.005, 4238
161.0075, 4227
161.01, 4214
161.0125, 4219
161.015, 4216
161.0175, 4174
161.02, 4031
161.0225, 4119
161.025, 4106
161.0275, 4099
161.03, 4107
161.0325, 4155
161.035, 4162
161.0375, 4074
161.04, 4186
161.0425, 4180
161.045, 4178
161.0475, 4184
161.05, 4214
161.0525, 4205
161.055, 4139
161.0575, 4246
161.06, 4234
161.0625, 4215
161.065, 4224
161.0675, 4207
161.07, 4217
161.0725, 4135
161.075, 4214
161.0775, 4195
161.08, 4142
161.0825, 4148
161.085, 4202
161.0875, 4180
161.09, 4076
161.0925, 4202
161.095, 4184
161.0975, 4183
161.1, 4126
161.1025, 4179
161.105, 4188
161.1075, 4183
161.11, 4197
161.1125, 4199
161.115, 4190
161.1175, 4168
161.12, 4256
161.1225, 4323
161.125, 4310
161.1275, 4418
161.13, 4466
161.1325, 4469
161.135, 4478
161.1375, 4390
161.14, 4220
161.1425, 3926
161.145, 3776
161.1475, 3480
161.15, 3178
161.1525, 2772
161.155, 2253
161.1575, 2001
161.16, 1793
161.1625, 1983
161.165, 2302
161.1675, 2971
161.17, 3899
161.1725, 4646
161.175, 4903
161.1775, 4967
161.18, 4970
161.1825, 4800
161.185, 4692
161.1875, 4574
161.19, 4592
161.1925, 4563
161.195, 4419
161.1975, 4480
161.2, 4481
161.2025, 4503
161.205, 4515
161.2075, 4535
161.21, 4517
161.2125, 4391
161.215, 4493
161.2175, 4482
161.22, 4467
161.2225, 4470
161.225, 4482
161.2275, 4461
161.23, 4351
161.2325, 4432
161.235, 4404
161.2375, 4396
161.24, 4394
161.2425, 4369
161.245, 4373
161.2475, 4255
161.25, 4355
161.2525, 4337
