260.1575, 4132
260.16, 4182
260.1625, 4179
260.165, 4182
260.1675, 4152
260.17, 4199
260.1725, 4192
260.175, 4189
260.1775, 4217
260.18, 4220
260.1825, 4227
260.185, 4193
260.1875, 4242
260.19, 4219
260.1925, 4224
260.195, 4226
260.1975, 4223
260.2, 4225
260.2025, 4191
260.205, 4221
260.2075, 4199
260.21, 4178
260.2125, 4188
260.215, 4203
260.2175, 4208
260.22, 4216
260.2225, 4211
260.225, 4184
260.2275, 4179
260.23, 4186
260.2325, 4196
260.235, 4194
260.2375, 4160
260.24, 4211
260.2425, 4194
260.245, 4173
260.2475, 4208
260.25, 4209
260.2525, 4190
260.255, 4155
260.2575, 4184
260.26, 4191
260.2625, 4164
260.265, 4188
260.2675, 4170
260.27, 4187
260.2725, 4161
260.275, 4180
260.2775, 4162
260.28, 4132
260.2825, 4167
260.285, 4168
260.2875, 4169
260.29, 4126
260.2925, 4176
260.295, 4168
260.2975, 4137
260.3, 4168
260.3025, 4187
260.305, 4169
260.3075, 4124
260.31, 4159
260.3125, 4157
260.315, 4133
260.3175, 4176
260.32, 4189
260.3225, 4181
260.325, 4157
260.3275, 4197
260.33, 4217
260.3325, 4197
260.335, 4204
260.3375, 4210
260.34, 4208
260.3425, 4201
260.345, 4186
260.3475, 4161
260.35, 4137
260.3525, 4166
260.355, 4179
260.3575, 4194
260.36, 4143
260.3625, 4165
260.365, 4164
260.3675, 4167
260.37, 4190
260.3725, 4210
260.375, 4197
260.3775, 4143
260.38, 4177
260.3825, 4171
260.385, 4154
260.3875, 4170
260.39, 4185
260.3925, 4174
260.395, 4151
260.3975, 4188
260.4, 4186
260.4025, 4182
260.405, 4186
260.4075, 4179
260.41, 4178
260.4125, 4146
260.415, 4163
260.4175, 4163
260.42, 4152
260.4225, 4175
260.425, 4189
260.4275, 4178
260.43, 4111
260.4325, 4152
260.435, 4167
260.4375, 4174
260.44, 4166
260.4425, 4166
260.445, 4162
260.4475, 4027
260.45, 4205
260.4525, 4183
260.455, 4139
260.4575, 4168
260.46, 4169
260.4625, 4156
260.465, 4128
260.4675, 4184
260.47, 4190
260.4725, 4163
260.475, 4144
260.4775, 4161
260.48, 4150
260.4825, 4012
260.485, 4155
260.4875, 4161
260.49, 4145
260.4925, 4144
260.495, 4209
260.4975, 4187
260.5, 4152
260.5025, 4184
260.505, 4167
260.5075, 4121
260.51, 4152
260.5125, 4160
260.515, 4168
260.5175, 4134
260.52, 4182
260.5225, 4180
260.525, 4141
260.5275, 4166
260.53, 4178
260.5325, 4160
260.535, 4134
260.5375, 4180
260.54, 4170
260.5425, 4152
260.545, 4167
260.5475, 4160
260.55, 4170
260.5525, 4117
260.555, 4162
260.5575, 4152
260.56, 4143
260.5625, 4024
260.565, 4199
260.5675, 4190
260.57, 4169
260.5725, 4183
260.575, 4176
260.5775, 4170
260.58, 4196
260.5825, 4173
260.585, 4162
260.5875, 4137
260.59, 4151
260.5925, 4122
260.595, 4141
260.5975, 4195
260.6, 4199
260.6025, 4198
260.605, 4165
260.6075, 4199
260.61, 4151
260.6125, 4129
260.615, 4131
260.6175, 4162
260.62, 4167
260.6225, 4157
260.625, 4185
260.6275, 4179
260.63, 4139
260.6325, 4154
260.635, 4148
260.6375, 4165
260.64, 4131
260.6425, 4172
260.645, 4177
260.6475, 4150
260.65, 4178
260.6525, 4181
260.655, 4164
260.6575, 4118
260.66, 4162
260.6625, 4168
260.665, 4145
260.6675, 4177
260.67, 4167
260.6725, 4179
260.675, 4169
260.6775, 4184
260.68, 4167
260.6825, 4150
260.685, 4190
260.6875, 4197
260.69, 4177
260.6925, 4160
260.695, 4201
260.6975, 4185
260.7, 4152
260.7025, 4175
260.705, 4142
260.7075, 4144
260.71, 4125
260.7125, 4197
260.715, 4186
260.7175, 4151
260.72, 4188
260.7225, 4187
260.725, 4191
260.7275, 4147
260.73, 4186
260.7325, 4179
260.735, 4161
260.7375, 4204
260.74, 4209
260.7425, 4169
260.745, 4128
260.7475, 4195
260.75, 4194
260.7525, 4189
260.755, 4183
260.7575, 4190
260.76, 4195
260.7625, 4167
260.765, 4194
260.7675, 4186
260.77, 4169
260.7725, 4145
260.775, 4162
260.7775, 4181
260.78, 4147
260.7825, 4208
260.785, 4196
260.7875, 4181
260.79, 4154
260.7925, 4133
260.795, 4126
260.7975, 4089
260.8, 4102
260.8025, 4117
260.805, 4136
260.8075, 4167
260.81, 4163
260.8125, 4179
260.815, 4135
260.8175, 4201
260.82, 4212
260.8225, 4193
260.825, 4214
260.8275, 4219
260.83, 4215
260.8325, 4213
260.835, 4250
260.8375, 4244
260.84, 4221
260.8425, 4238
260.845, 4220
260.8475, 4196
260.85, 4170
260.8525, 4187
260.855, 4168
260.8575, 4150
260.86, 4193
260.8625, 4205
260.865, 4189
260.8675, 4158
260.87, 4185
260.8725, 4191
260.875, 4166
260.8775, 4194
260.88, 4177
260.8825, 4184
260.885, 4140
260.8875, 4192
260.89, 4184
260.8925, 4217
260.895, 4305
260.8975, 4343
260.9, 4409
260.9025, 4386
260.905, 4465
260.9075, 4418
260.91, 4237
260.9125, 4040
260.915, 3805
260.9175, 3528
260.92, 3253
260.9225, 2940
260.925, 2519
260.9275, 2075
260.93, 1898
260.9325, 1824
260.935, 2043
260.9375, 2493
260.94, 3368
260.9425, 4326
260.945, 4850
260.9475, 5052
260.95, 5059
260.9525, 4958
260.955, 4769
260.9575, 4682
260.96, 4597
260.9625, 4549
260.965, 4542
260.9675, 4495
260.97, 4505
260.9725, 4455
260.975, 4494
260.9775, 4499
260.98, 4468
260.9825, 4483
260.985, 4474
260.9875, 4432
260.99, 4382
260.9925, 4425
260.995, 4421
260.9975, 4388
261.0, 4386
261.0025, 4377
261.005, 4376
261.0075, 4331
261.01, 4352
261.0125, 4362
261.015, 4320
261.0175, 4338
261.02, 4327
261.0225, 4311
261.025, 4298
261.0275, 4285
261.03, 4285
261.0325, 4300
261.035, 4279
261.0375, 4261
261.04, 4249
261.0425, 4218
261.045, 4249
261.0475, 4257
261.05, 4223
261.0525, 4242
261.055, 4265
261.0575, 4248
261.06, 4190
261.0625, 4214
261.065, 4217
261.0675, 4221
261.07, 4228
261.0725, 4227
261.075, 4214
261.0775, 4216
261.08, 4221
261.0825, 4223
261.085, 4212
261.0875, 4232
261.09, 4225
261.0925, 4241
261.095, 4201
261.0975, 4221
261.1, 4204
261.1025, 4190
261.105, 4194
261.1075, 4210
261.11, 4199
261.1125, 4180
261.115, 4218
261.1175, 4191
261.12, 4157
261.1225, 4151
261.125, 4150
261.1275, 4165
261.13, 4119
261.1325, 4172
261.135, 4175
261.1375, 4143
261.14, 4153
261.1425, 4174
261.145, 4167
261.1475, 4144
261.15, 4176
261.1525, 4160
261.155, 4145
261.1575, 4167
261.16, 4181
261.1625, 4178
261.165, 4148
261.1675, 4183
261.17, 4193
261.1725, 4167
261.175, 4190
261.1775, 4182
261.18, 4185
261.1825, 4153
261.185, 4211
261.1875, 4191
261.19, 4172
261.1925, 4195
261.195, 4193
261.1975, 4200
261.2, 4176
261.2025, 4194
261.205, 4188
261.2075, 4177
261.21, 4206
261.2125, 4181
261.215, 4172
261.2175, 4132
261.22, 4131
261.2225, 4130
261.225, 4108
261.2275, 4155
261.23, 4177
261.2325, 4165
261.235, 4153
261.2375, 4203
261.24, 4188
261.2425, 4189
261.245, 4201
261.2475, 4204
261.25, 4194
261.2525, 4150
261.255, 4207
261.2575, 4196
261.26, 4196
261.2625, 4246
261.265, 4264
261.2675, 4252
261.27, 4211
261.2725, 4239
261.275, 4264
261.2775, 4235
261.28, 4252
261.2825, 4239
261.285, 4260
261.2875, 4217
261.29, 4248
261.2925, 4264
261.295, 4229
261.2975, 4254
261.3, 4245
261.3025, 4228
261.305, 4218
261.3075, 4240
261.31, 4237
261.3125, 4211
261.315, 4237
261.3175, 4242
261.32, 4249
261.3225, 4222
261.325, 4258
261.3275, 4262
261.33, 4249
261.3325, 4253
261.335, 4225
261.3375, 4234
261.34, 4179
261.3425, 4230
261.345, 4206
261.3475, 4202
261.35, 4205
261.3525, 4210
261.355, 4214
261.3575, 4169
261.36, 4218
261.3625, 4201
261.365, 4171
261.3675, 4176
261.37, 4187
261.3725, 4187
261.375, 4159
261.3775, 4202
261.38, 4196
261.3825, 4194
261.385, 4216
261.3875, 4209
261.39, 4220
261.3925, 4172
261.395, 4231
261.3975, 4211
261.4, 4189
261.4025, 4196
261.405, 4212
261.4075, 4196
261.41, 4172
261.4125, 4184
261.415, 4190
261.4175, 4172
261.42, 4177
261.4225, 4197
261.425, 4184
261.4275, 4161
261.43, 4216
261.4325, 4201
261.435, 4162
261.4375, 4180
261.44, 4189
261.4425, 4182
261.445, 4160
261.4475, 4217
261.45, 4219
261.4525, 4185
261.455, 4185
261.4575, 4181
261.46, 4189
261.4625, 4167
261.465, 4202
261.4675, 4192
261.47, 4178
261.4725, 4195
261.475, 4190
261.4775, 4182
261.48, 4147
261.4825, 4189
261.485, 4203
261.4875, 4183
261.49, 4183
261.4925, 4169
261.495, 4163
261.4975, 4131
261.5, 4139
261.5025, 4159
261.505, 4144
261.5075, 4156
261.51, 4151
261.5125, 4167
261.515, 4135
261.5175, 4192
261.52, 4187
261.5225, 4172
261.525, 4200
261.5275, 4202
261.53, 4175
261.5325, 4133
261.535, 4146
261.5375, 4175
261.54, 4169
261.5425, 4191
261.545, 4194
261.5475, 4170
261.55, 4139
261.5525, 4179
261.555, 4152
261.5575, 4157
261.56, 4166
261.5625, 4177
261.565, 4177
261.5675, 4137
261.57, 4184
261.5725, 4190
261.575, 4189
261.5775, 4183
261.58, 4214
261.5825, 4176
261.585, 4007
261.5875, 4170
261.59, 4148
261.5925, 4136
261.595, 4050
261.5975, 4216
261.6, 4202
261.6025, 4155
261.605, 4187
261.6075, 4201
261.61, 4175
261.6125, 4198
261.615, 4190
261.6175, 4172
261.62, 4156
261.6225, 4188
261.625, 4157
261.6275, 4149
261.63, 4153
261.6325, 4173
261.635, 4156
261.6375, 4156
261.64, 4184
261.6425, 4191
261.645, 4174
261.6475, 4170
261.65, 4179
261.6525, 4166
261.655, 4137
261.6575, 4186
261.66, 4186
261.6625, 4140
261.665, 4159
261.6675, 4162
261.67, 4162
261.6725, 4031
261.675, 4177
261.6775, 4160
261.68, 4154
261.6825, 4171
261.685, 4187
261.6875, 4187
261.69, 4128
261.6925, 4162
261.695, 4156
261.6975, 4139
261.7, 4160
261.7025, 4157
261.705, 4132
261.7075, 4114
261.71, 4150
261.7125, 4145
261.715, 4148
261.7175, 4164
261.72, 4173
261.7225, 4159
261.725, 4145
261.7275, 4181
261.73, 4177
261.7325, 4174
261.735, 4181
261.7375, 4172
261.74, 4141
261.7425, 4006
261.745, 4177
261.7475, 4173
261.75, 4123
261.7525, 4176
261.755, 4154
261.7575, 4146
261.76, 4119
261.7625, 4161
261.765, 4153
261.7675, 4135
261.77, 4171
261.7725, 4134
261.775, 4137
261.7775, 4001
261.78, 4168
261.7825, 4160
261.785, 4130
261.7875, 4145
261.79, 4154
261.7925, 4147
261.795, 4116
261.7975, 4163
261.8, 4159
261.8025, 4161
261.805, 4204
261.8075, 4184
261.81, 4173
261.8125, 4012
261.815, 4199
261.8175, 4195
261.82, 4171
261.8225, 4186
261.825, 4173
261.8275, 4154
261.83, 4103
261.8325, 4131
261.835, 4144
261.8375, 4122
261.84, 4109
261.8425, 4100
261.845, 4106
261.8475, 4099
261.85, 4185
261.8525, 4161
261.855, 4166
261.8575, 4170
261.86, 4174
261.8625, 4169
261.865, 3993
261.8675, 4151
261.87, 4155
261.8725, 4149
261.875, 4157
261.8775, 4170
261.88, 4175
261.8825, 4039
261.885, 4159
261.8875, 4169
261.89, 4167
261.8925, 4194
261.895, 4187
261.8975, 4194
261.9, 4154
261.9025, 4175
261.905, 4158
261.9075, 4170
261.91, 4176
261.9125, 4193
261.915, 4186
261.9175, 4145
261.92, 4169
261.9225, 4158
261.925, 4154
261.9275, 4197
261.93, 4235
261.9325, 4271
261.935, 4305
261.9375, 4402
261.94, 4415
261.9425, 4446
261.945, 4484
261.9475, 4467
261.95, 4334
261.9525, 4122
261.955, 3912
261.9575, 3594
261.96, 3270
261.9625, 2874
261.965, 2402
261.9675, 1905
261.97, 1647
261.9725, 1710
261.975, 1887
261.9775, 2498
261.98, 3428
261.9825, 4292
261.985, 4781
261.9875, 4914
261.99, 4917
261.9925, 4801
261.995, 4647
261.9975, 4573
262.0, 4562
262.0025, 4536
262.005, 4488
262.0075, 4534
262.01, 4525
262.0125, 4519
262.015, 4530
262.0175, 4534
262.02, 4521
262.0225, 4523
262.025, 4532
262.0275, 4487
262.03, 4470
262.0325, 4472
262.035, 4465
262.0375, 4443
262.04, 4413
262.0425, 4441
262.045, 4433
262.0475, 4398
262.05, 4426
262.0525, 4413
262.055, 4389
262.0575, 4367
262.06, 4379
262.0625, 4341
262.065, 4345
262.0675, 4336
262.07, 4322
262.0725, 4310
262.075, 4290
262.0775, 4315
262.08, 4299
262.0825, 4284
262.085, 4301
262.0875, 4282
262.09, 4272
262.0925, 4237
262.095, 4274
262.0975, 4306
262.1, 4283
262.1025, 4265
262.105, 4274
262.1075, 4269
262.11, 4117
262.1125, 4263
262.115, 4262
262.1175, 4241
262.12, 4248
262.1225, 4276
262.125, 4255
262.1275, 4191
262.13, 4227
262.1325, 4230
262.135, 4219
262.1375, 4199
262.14, 4193
262.1425, 4211
262.145, 4169
262.1475, 4212
262.15, 4216
262.1525, 4181
262.155, 4186
262.1575, 4188
262.16, 4211
262.1625, 4133
262.165, 4207
262.1675, 4187
262.17, 4181
262.1725, 4180
262.175, 4163
262.1775, 4184
262.18, 4067
262.1825, 4212
262.185, 4211
262.1875, 4200
262.19, 4214
262.1925, 4219
262.195, 4213
262.1975, 4174
262.2, 4201
262.2025, 4205
262.205, 4161
262.2075, 4209
262.21, 4199
262.2125, 4210
262.215, 4064
262.2175, 4230
262.22, 4229
262.2225, 4218
262.225, 4197
262.2275, 4203
262.23, 4184
262.2325, 4152
262.235, 4182
262.2375, 4184
262.24, 4175
262.2425, 4181
262.245, 4146
262.2475, 4120
262.25, 4071
262.2525, 4116
262.255, 4096
262.2575, 4079
262.26, 4084
262.2625, 4071
262.265, 4084
262.2675, 3902
262.27, 4058
262.2725, 4045
262.275, 4048
262.2775, 4080
262.28, 4099
262.2825, 4081
262.285, 4075
262.2875, 4109
262.29, 4111
262.2925, 4109
262.295, 4103
262.2975, 4174
262.3, 4161
262.3025, 4123
262.305, 4191
262.3075, 4184
262.31, 4158
262.3125, 4194
262.315, 4171
262.3175, 4197
262.32, 4147
262.3225, 4202
262.325, 4187
262.3275, 4172
262.33, 4196
262.3325, 4186
262.335, 4194
262.3375, 4159
262.34, 4189
262.3425, 4203
262.345, 4195
262.3475, 4221
262.35, 4235
262.3525, 4214
262.355, 4186
262.3575, 4206
262.36, 4191
262.3625, 4182
262.365, 4196
262.3675, 4211
262.37, 4202
262.3725, 4184
262.375, 4212
262.3775, 4193
262.38, 4182
262.3825, 4203
262.385, 4196
262.3875, 4183
262.39, 4151
262.3925, 4206
262.395, 4186
262.3975, 4173
262.4, 4187
262.4025, 4178
262.405, 4165
262.4075, 4147
262.41, 4184
262.4125, 4169
262.415, 4152
262.4175, 4200
262.42, 4184
262.4225, 4149
262.425, 4136
262.4275, 4165
262.43, 4152
262.4325, 4164
262.435, 4165
262.4375, 4157
262.44, 4163
262.4425, 4143
262.445, 4197
262.4475, 4196
262.45, 4167
262.4525, 4170
262.455, 4179
262.4575, 4170
262.46, 4138
262.4625, 4203
262.465, 4178
262.4675, 4141
262.47, 4170
262.4725, 4191
262.475, 4159
262.4775, 4132
262.48, 4171
262.4825, 4166
262.485, 4158
262.4875, 4165
262.49, 4165
262.4925, 4144
262.495, 4127
262.4975, 4162
262.5, 4145
262.5025, 4140
262.505, 4142
262.5075, 4170
262.51, 4180
262.5125, 4129
262.515, 4176
262.5175, 4169
262.52, 4174
262.5225, 4200
262.525, 4173
262.5275, 4185
262.53, 4153
262.5325, 4180
262.535, 4178
262.5375, 4168
262.54, 4165
262.5425, 4192
262.545, 4179
262.5475, 4168
262.55, 4181
262.5525, 4177
262.555, 4171
262.5575, 4181
262.56, 4187
262.5625, 4197
262.565, 4178
262.5675, 4179
262.57, 4174
262.5725, 4156
262.575, 4154
262.5775, 4172
262.58, 4163
262.5825, 4030
262.585, 4194
262.5875, 4195
262.59, 4170
262.5925, 4196
262.595, 4201
262.5975, 4192
262.6, 4138
262.6025, 4177
262.605, 4172
262.6075, 4137
262.61, 4172
262.6125, 4183
262.615, 4170
262.6175, 4152
262.62, 4169
262.6225, 4152
262.625, 4139
262.6275, 4169
262.63, 4151
262.6325, 4149
262.635, 4156
262.6375, 4159
262.64, 4157
262.6425, 4163
262.645, 4166
262.6475, 4192
262.65, 4162
262.6525, 4139
262.655, 4158
262.6575, 4175
262.66, 4155
262.6625, 4167
262.665, 4185
262.6675, 4145
262.67, 4115
262.6725, 4166
262.675, 4164
262.6775, 4149
262.68, 4180
262.6825, 4188
262.685, 4181
262.6875, 4140
262.69, 4166
262.6925, 4153
262.695, 4133
262.6975, 4154
262.7, 4141
262.7025, 4152
262.705, 4141
262.7075, 4179
262.71, 4145
262.7125, 4125
262.715, 4136
262.7175, 4134
262.72, 4146
262.7225, 4113
262.725, 4142
262.7275, 4175
262.73, 4152
262.7325, 4173
262.735, 4168
262.7375, 4171
262.74, 4145
262.7425, 4182
262.745, 4151
262.7475, 4163
262.75, 4155
262.7525, 4156
262.755, 4158
262.7575, 4115
262.76, 4151
262.7625, 4162
262.765, 4149
262.7675, 4142
262.77, 4151
262.7725, 4167
262.775, 4150
262.7775, 4207
262.78, 4168
262.7825, 4155
262.785, 4164
262.7875, 4166
262.79, 4158
262.7925, 4147
262.795, 4163
262.7975, 4166
262.8, 4166
262.8025, 4184
262.805, 4176
262.8075, 4165
262.81, 4159
262.8125, 4175
262.815, 4171
262.8175, 4155
262.82, 4180
262.8225, 4190
262.825, 4175
262.8275, 4144
262.83, 4185
262.8325, 4173
262.835, 4159
262.8375, 4172
262.84, 4192
262.8425, 4187
262.845, 4160
262.8475, 4177
262.85, 4180
262.8525, 4153
262.855, 4177
262.8575, 4173
262.86, 4175
262.8625, 4131
262.865, 4197
262.8675, 4194
262.87, 4166
262.8725, 4182
262.875, 4177
262.8775, 4165
262.88, 4121
262.8825, 4178
262.885, 4168
262.8875, 4151
262.89, 4178
262.8925, 4173
262.895, 4201
262.8975, 4170
262.9, 4160
262.9025, 4162
262.905, 4161
262.9075, 4168
262.91, 4160
262.9125, 4142
262.915, 4118
262.9175, 4168
262.92, 4157
262.9225, 4130
262.925, 4132
262.9275, 4136
262.93, 4143
262.9325, 4116
262.935, 4163
262.9375, 4158
262.94, 4172
262.9425, 4162
262.945, 4148
262.9475, 4152
262.95, 4145
262.9525, 4177
262.955, 4169
262.9575, 4146
262.96, 4166
262.9625, 4173
262.965, 4160
262.9675, 4123
262.97, 4171
262.9725, 4177
262.975, 4175
262.9775, 4191
262.98, 4180
262.9825, 4172
262.985, 4112
262.9875, 4132
262.99, 4125
262.9925, 4102
262.995, 4113
262.9975, 4091
263.0, 4099
263.0025, 4101
263.005, 4151
263.0075, 4133
263.01, 4121
263.0125, 4142
263.015, 4157
263.0175, 4155
263.02, 4139
263.0225, 4185
263.025, 4204
263.0275, 4176
263.03, 4191
263.0325, 4191
263.035, 4200
263.0375, 4152
263.04, 4169
263.0425, 4179
263.045, 4184
263.0475, 4178
263.05, 4184
263.0525, 4198
263.055, 4141
263.0575, 4188
263.06, 4187
263.0625, 4165
263.065, 4187
263.0675, 4186
263.07, 4193
263.0725, 4167
263.075, 4170
263.0775, 4164
263.08, 4162
263.0825, 4198
263.085, 4198
263.0875, 4203
263.09, 4189
263.0925, 4312
263.095, 4389
263.0975, 4381
263.1, 4455
263.1025, 4468
263.105, 4452
263.1075, 4315
263.11, 4181
263.1125, 3960
263.115, 3640
263.1175, 3377
263.12, 3027
263.1225, 2607
263.125, 2129
263.1275, 1913
263.13, 1828
263.1325, 1994
263.135, 2445
263.1375, 3221
263.14, 4127
263.1425, 4657
263.145, 4946
263.1475, 4994
263.15, 4911
263.1525, 4749
263.155, 4642
263.1575, 4556
263.16, 4482
263.1625, 4516
263.165, 4489
263.1675, 4486
263.17, 4497
263.1725, 4518
263.175, 4512
263.1775, 4473
263.18, 4487
263.1825, 4501
263.185, 4474
263.1875, 4511
263.19, 4518
263.1925, 4462
263.195, 4411
263.1975, 4452
263.2, 4450
263.2025, 4408
263.205, 4409
263.2075, 4434
263.21, 4410
263.2125, 4348
263.215, 4390
263.2175, 4386
263.22, 4364
263.2225, 4380
263.225, 4369
263.2275, 4349
263.23, 4317
263.2325, 4343
263.235, 4333
263.2375, 4303
263.24, 4317
263.2425, 4271
263.245, 4282
263.2475, 4239
263.25, 4290
263.2525, 4281
263.255, 4255
263.2575, 4259
263.26, 4273
263.2625, 4247
263.265, 4208
263.2675, 4232
263.27, 4215
263.2725, 4218
263.275, 4222
263.2775, 4231
263.28, 4212
263.2825, 4175
263.285, 4212
263.2875, 4216
263.29, 4189
263.2925, 4207
263.295, 4192
263.2975, 4197
263.3, 4085
263.3025, 4243
263.305, 4220
263.3075, 4183
263.31, 4197
263.3125, 4188
263.315, 4185
263.3175, 4156
263.32, 4203
263.3225, 4214
263.325, 4186
263.3275, 4179
263.33, 4183
263.3325, 4189
263.335, 4166
263.3375, 4191
263.34, 4188
263.3425, 4187
263.345, 4212
263.3475, 4191
263.35, 4177
263.3525, 4133
263.355, 4175
263.3575, 4178
263.36, 4172
263.3625, 4190
263.365, 4166
263.3675, 4180
263.37, 4137
263.3725, 4182
263.375, 4176
263.3775, 4177
263.38, 4182
263.3825, 4190
263.385, 4195
263.3875, 4153
263.39, 4168
263.3925, 4159
263.395, 4149
263.3975, 4170
263.4, 4185
263.4025, 4179
263.405, 4114
263.4075, 4129
263.41, 4124
263.4125, 4115
263.415, 4126
263.4175, 4130
263.42, 4130
263.4225, 4126
263.425, 4128
263.4275, 4112
263.43, 4080
263.4325, 4130
263.435, 4128
263.4375, 4167
263.44, 4133
263.4425, 4169
263.445, 4161
263.4475, 4153
263.45, 4167
263.4525, 4166
263.455, 4167
263.4575, 4140
263.46, 4184
263.4625, 4207
263.465, 4210
263.4675, 4215
263.47, 4222
263.4725, 4214
263.475, 4194
263.4775, 4230
263.48, 4235
263.4825, 4247
263.485, 4265
263.4875, 4255
263.49, 4262
263.4925, 4250
263.495, 4278
263.4975, 4251
263.5, 4238
263.5025, 4230
263.505, 4241
263.5075, 4239
263.51, 4199
263.5125, 4259
263.515, 4240
263.5175, 4237
263.52, 4225
263.5225, 4243
263.525, 4236
263.5275, 4171
263.53, 4214
263.5325, 4208
263.535, 4188
263.5375, 4198
263.54, 4210
263.5425, 4216
263.545, 4169
263.5475, 4204
263.55, 4190
263.5525, 4159
263.555, 4178
263.5575, 4188
263.56, 4188
263.5625, 4154
263.565, 4210
263.5675, 4199
263.57, 4183
263.5725, 4198
263.575, 4189
263.5775, 4184
263.58, 4147
263.5825, 4193
263.585, 4187
263.5875, 4189
263.59, 4212
263.5925, 4198
263.595, 4225
263.5975, 4197
263.6, 4220
263.6025, 4201
263.605, 4178
263.6075, 4173
263.61, 4176
263.6125, 4167
263.615, 4118
263.6175, 4169
263.62, 4173
263.6225, 4175
263.625, 4190
263.6275, 4192
263.63, 4172
263.6325, 4138
263.635, 4183
263.6375, 4172
263.64, 4182
263.6425, 4211
263.645, 4192
263.6475, 4182
263.65, 4126
263.6525, 4178
263.655, 4188
263.6575, 4179
263.66, 4190
263.6625, 4202
263.665, 4185
263.6675, 4151
263.67, 4194
263.6725, 4200
263.675, 4194
263.6775, 4214
263.68, 4193
263.6825, 4204
263.685, 4160
263.6875, 4210
263.69, 4170
263.6925, 4162
263.695, 4185
263.6975, 4208
263.7, 4174
263.7025, 4144
263.705, 4190
263.7075, 4186
263.71, 4160
263.7125, 4158
263.715, 4179
263.7175, 4147
263.72, 4144
263.7225, 4158
263.725, 4169
263.7275, 4154
263.73, 4180
263.7325, 4171
263.735, 4152
263.7375, 4134
263.74, 4196
263.7425, 4196
263.745, 4146
263.7475, 4178
263.75, 4174
263.7525, 4182
263.755, 4170
263.7575, 4199
263.76, 4192
263.7625, 4184
263.765, 4173
263.7675, 4177
263.77, 4159
263.7725, 4138
263.775, 4155
263.7775, 4141
263.78, 4114
263.7825, 4141
263.785, 4170
263.7875, 4152
263.79, 4129
263.7925, 4186
263.795, 4172
263.7975, 4159
263.8, 4166
263.8025, 4157
263.805, 4165
263.8075, 4150
263.81, 4205
263.8125, 4175
263.815, 4151
263.8175, 4176
263.82, 4169
263.8225, 4167
263.825, 4178
263.8275, 4190
263.83, 4166
263.8325, 4156
263.835, 4179
263.8375, 4206
263.84, 4188
263.8425, 4149
263.845, 4180
263.8475, 4166
263.85, 4150
263.8525, 4169
263.855, 4181
263.8575, 4188
263.86, 4146
263.8625, 4198
263.865, 4173
263.8675, 4143
263.87, 4148
263.8725, 4168
263.875, 4184
263.8775, 4136
263.88, 4205
263.8825, 4183
263.885, 4166
263.8875, 4187
263.89, 4185
263.8925, 4170
263.895, 4149
263.8975, 4184
263.9, 4197
263.9025, 4180
263.905, 4196
263.9075, 4184
263.91, 4186
263.9125, 4148
263.915, 4189
263.9175, 4175
263.92, 4157
263.9225, 4177
263.925, 4173
263.9275, 4170
263.93, 4142
263.9325, 4182
263.935, 4183
263.9375, 4185
263.94, 4187
263.9425, 4188
263.945, 4170
263.9475, 4148
263.95, 4156
263.9525, 4143
263.955, 4161
263.9575, 4189
263.96, 4171
263.9625, 4176
263.965, 4132
263.9675, 4188
263.97, 4166
263.9725, 4148
263.975, 4174
263.9775, 4178
263.98, 4164
263.9825, 4134
263.985, 4175
263.9875, 4181
263.99, 4173
263.9925, 4181
263.995, 4161
263.9975, 4147
264.0, 4101
264.0025, 4142
264.005, 4094
264.0075, 4099
264.01, 4136
264.0125, 4141
264.015, 4152
264.0175, 4114
264.02, 4184
264.0225, 4181
264.025, 4178
264.0275, 4178
264.03, 4168
264.0325, 4174
264.035, 4143
264.0375, 4174
264.04, 4199
264.0425, 4159
264.045, 4175
264.0475, 4163
264.05, 4176
264.0525, 4151
264.055, 4176
264.0575, 4161
264.06, 4176
264.0625, 4177
264.065, 4182
264.0675, 4166
264.07, 4133
264.0725, 4157
264.075, 4156
264.0775, 4145
264.08, 4153
264.0825, 4170
264.085, 4154
264.0875, 4113
264.09, 4165
264.0925, 4168
264.095, 4185
264.0975, 4239
264.1, 4319
264.1025, 4390
264.105, 4367
264.1075, 4450
264.11, 4482
264.1125, 4430
264.115, 4285
264.1175, 4068
264.12, 3811
264.1225, 3504
264.125, 3243
264.1275, 2858
264.13, 2356
264.1325, 1972
264.135, 1779
264.1375, 1801
264.14, 2009
264.1425, 2623
264.145, 3551
264.1475, 4428
264.15, 4880
264.1525, 5040
264.155, 5001
264.1575, 4843
264.16, 4730
264.1625, 4637
264.165, 4560
264.1675, 4550
264.17, 4496
264.1725, 4489
264.175, 4462
264.1775, 4513
264.18, 4496
264.1825, 4524
264.185, 4517
264.1875, 4495
264.19, 4493
264.1925, 4444
264.195, 4465
264.1975, 4457
264.2, 4459
264.2025, 4434
264.205, 4413
264.2075, 4381
264.21, 4360
264.2125, 4392
264.215, 4384
264.2175, 4336
264.22, 4346
264.2225, 4364
264.225, 4353
264.2275, 4295
264.23, 4329
264.2325, 4318
264.235, 4335
264.2375, 4322
264.24, 4322
264.2425, 4318
264.245, 4280
264.2475, 4307
264.25, 4292
264.2525, 4279
264.255, 4276
264.2575, 4280
264.26, 4284
264.2625, 4231
264.265, 4253
264.2675, 4230
264.27, 4202
264.2725, 4224
264.275, 4238
264.2775, 4235
264.28, 4213
264.2825, 4276
264.285, 4262
264.2875, 4246
264.29, 4239
264.2925, 4208
264.295, 4194
264.2975, 4185
264.3, 4197
264.3025, 4183
264.305, 4213
264.3075, 4218
264.31, 4222
264.3125, 4220
264.315, 4162
264.3175, 4219
264.32, 4211
264.3225, 4186
264.325, 4222
264.3275, 4199
264.33, 4186
264.3325, 4166
264.335, 4188
264.3375, 4196
264.34, 4174
264.3425, 4213
264.345, 4200
264.3475, 4185
264.35, 4139
264.3525, 4180
264.355, 4197
264.3575, 4179
264.36, 4199
264.3625, 4201
264.365, 4199
264.3675, 4184
264.37, 4199
264.3725, 4192
264.375, 4156
264.3775, 4198
264.38, 4185
264.3825, 4204
264.385, 4152
264.3875, 4191
264.39, 4178
264.3925, 4155
264.395, 4175
264.3975, 4135
264.4, 4154
264.4025, 4129
264.405, 4170
264.4075, 4164
264.41, 4152
264.4125, 4145
264.415, 4131
264.4175, 4102
264.42, 4069
264.4225, 4092
264.425, 4100
264.4275, 4089
264.43, 4100
264.4325, 4097
264.435, 4113
264.4375, 4078
264.44, 4127
264.4425, 4103
264.445, 4114
264.4475, 4138
264.45, 4155
264.4525, 4189
264.455, 4154
264.4575, 4189
264.46, 4183
264.4625, 4175
264.465, 4168
264.4675, 4184
264.47, 4179
264.4725, 4184
264.475, 4226
264.4775, 4194
264.48, 4203
264.4825, 4221
264.485, 4233
264.4875, 4225
264.49, 4201
264.4925, 4256
264.495, 4243
264.4975, 4244
264.5, 4253
264.5025, 4253
264.505, 4236
264.5075, 4183
264.51, 4222
264.5125, 4228
264.515, 4217
264.5175, 4243
264.52, 4234
264.5225, 4211
264.525, 4202
264.5275, 4183
264.53, 4204
264.5325, 4203
264.535, 4212
264.5375, 4198
264.54, 4191
264.5425, 4157
264.545, 4220
264.5475, 4210
264.55, 4178
264.5525, 4166
264.555, 4178
264.5575, 4178
264.56, 4132
264.5625, 4182
264.565, 4157
264.5675, 4143
264.57, 4164
264.5725, 4157
264.575, 4147
264.5775, 4135
264.58, 4182
264.5825, 4191
264.585, 4186
264.5875, 4203
264.59, 4192
264.5925, 4183
264.595, 4166
264.5975, 4204
264.6, 4186
264.6025, 4187
264.605, 4183
264.6075, 4175
264.61, 4189
264.6125, 4127
264.615, 4178
264.6175, 4194
264.62, 4143
264.6225, 4165
264.625, 4183
264.6275, 4155
264.63, 4119
264.6325, 4154
264.635, 4153
264.6375, 4149
264.64, 4191
264.6425, 4179
264.645, 4180
264.6475, 4148
264.65, 4153
264.6525, 4156
264.655, 4142
264.6575, 4183
264.66, 4153
264.6625, 4184
264.665, 4135
264.6675, 4183
264.67, 4160
264.6725, 4131
264.675, 4148
264.6775, 4167
264.68, 4152
264.6825, 4122
264.685, 4142
264.6875, 4134
264.69, 4126
264.6925, 4144
264.695, 4150
264.6975, 4156
264.7, 4129
264.7025, 4148
264.705, 4167
264.7075, 4146
264.71, 4159
264.7125, 4171
264.715, 4172
264.7175, 4128
264.72, 4159
264.7225, 4185
264.725, 4148
264.7275, 4172
264.73, 4164
264.7325, 4149
264.735, 4111
264.7375, 4144
264.74, 4166
264.7425, 4129
264.745, 4131
264.7475, 4142
264.75, 4138
264.7525, 4123
264.755, 4159
264.7575, 4180
264.76, 4142
264.7625, 4167
264.765, 4159
264.7675, 4148
264.77, 4119
264.7725, 4142
264.775, 4152
264.7775, 4147
264.78, 4140
264.7825, 4153
264.785, 4145
264.7875, 4122
264.79, 4158
264.7925, 4172
264.795, 4144
264.7975, 4148
264.8, 4136
264.8025, 4148
264.805, 4126
264.8075, 4159
264.81, 4147
264.8125, 4154
264.815, 4169
264.8175, 4156
264.82, 4148
264.8225, 4112
264.825, 4160
264.8275, 4117
264.83, 4127
264.8325, 4151
264.835, 4150
264.8375, 4145
264.84, 4120
264.8425, 4157
264.845, 4154
264.8475, 4157
264.85, 4178
264.8525, 4151
264.855, 4164
264.8575, 4131
264.86, 4205
264.8625, 4176
264.865, 4147
264.8675, 4171
264.87, 4187
264.8725, 4169
264.875, 4118
264.8775, 4184
264.88, 4173
264.8825, 4171
264.885, 4160
264.8875, 4174
264.89, 4180
264.8925, 4169
264.895, 4171
264.8975, 4176
264.9, 4180
264.9025, 4186
264.905, 4174
264.9075, 4196
264.91, 4158
264.9125, 4200
264.915, 4168
264.9175, 4136
264.92, 4143
264.9225, 4144
264.925, 4145
264.9275, 4113
264.93, 4160
264.9325, 4152
264.935, 4145
264.9375, 4174
264.94, 4156
264.9425, 4153
264.945, 4130
264.9475, 4162
264.95, 4136
264.9525, 4143
264.955, 4162
264.9575, 4164
264.96, 4171
264.9625, 4112
264.965, 4154
264.9675, 4151
264.97, 4149
264.9725, 4162
264.975, 4156
264.9775, 4162
264.98, 4125
264.9825, 4157
264.985, 4162
264.9875, 4159
264.99, 4178
264.9925, 4184
264.995, 4173
264.9975, 4159
265.0, 4196
265.0025, 4182
265.005, 4161
265.0075, 4166
265.01, 4172
265.0125, 4151
265.015, 4130
265.0175, 4172
265.02, 4172
265.0225, 4176
265.025, 4171
265.0275, 4193
265.03, 4168
265.0325, 4139
265.035, 4176
265.0375, 4169
265.04, 4170
265.0425, 4169
265.045, 4154
265.0475, 4172
265.05, 4133
265.0525, 4191
265.055, 4182
265.0575, 4136
265.06, 4137
265.0625, 4141
265.065, 4152
265.0675, 4112
265.07, 4148
265.0725, 4161
265.075, 4137
265.0775, 4167
265.08, 4156
265.0825, 4143
265.085, 4106
265.0875, 4148
265.09, 4159
265.0925, 4163
265.095, 4168
265.0975, 4182
265.1, 4170
265.1025, 4126
265.105, 4177
265.1075, 4180
265.11, 4167
265.1125, 4185
265.115, 4211
265.1175, 4202
265.12, 4150
265.1225, 4188
265.125, 4185
265.1275, 4134
265.13, 4119
265.1325, 4090
265.135, 4041
265.1375, 4047
265.14, 4091
265.1425, 4099
265.145, 4112
265.1475, 4127
265.15, 4139
265.1525, 4139
265.155, 4126
265.1575, 4125
265.16, 4103
265.1625, 4089
265.165, 4125
265.1675, 4137
265.17, 4129
265.1725, 4117
265.175, 4167
265.1775, 4165
265.18, 4176
265.1825, 4197
265.185, 4192
265.1875, 4197
265.19, 4157
265.1925, 4230
265.195, 4214
265.1975, 4187
265.2, 4192
265.2025, 4190
265.205, 4203
265.2075, 4173
265.21, 4216
265.2125, 4204
265.215, 4179
265.2175, 4193
265.22, 4203
265.2225, 4214
265.225, 4165
265.2275, 4202
265.23, 4200
265.2325, 4201
265.235, 4266
265.2375, 4362
265.24, 4440
265.2425, 4412
265.245, 4478
265.2475, 4485
265.25, 4426
265.2525, 4277
265.255, 4083
265.2575, 3816
265.26, 3435
265.2625, 3168
265.265, 2780
265.2675, 2271
265.27, 1876
265.2725, 1722
265.275, 1762
265.2775, 2007
265.28, 2814
265.2825, 3694
265.285, 4393
265.2875, 4793
265.29, 4911
265.2925, 4823
265.295, 4697
265.2975, 4621
265.3, 4546
265.3025, 4545
265.305, 4570
265.3075, 4549
265.31, 4539
265.3125, 4502
265.315, 4545
265.3175, 4533
265.32, 4534
265.3225, 4536
265.325, 4524
265.3275, 4523
265.33, 4480
265.3325, 4495
265.335, 4473
265.3375, 4466
265.34, 4448
265.3425, 4452
265.345, 4443
265.3475, 4401
265.35, 4428
265.3525, 4423
265.355, 4407
265.3575, 4410
265.36, 4391
265.3625, 4377
265.365, 4340
265.3675, 4388
265.37, 4361
265.3725, 4357
265.375, 4360
265.3775, 4368
265.38, 4349
265.3825, 4313
265.385, 4339
265.3875, 4318
265.39, 4300
265.3925, 4291
265.395, 4300
265.3975, 4300
265.4, 4222
265.4025, 4270
265.405, 4267
265.4075, 4232
265.41, 4251
265.4125, 4264
265.415, 4257
265.4175, 4203
265.42, 4244
265.4225, 4250
265.425, 4211
265.4275, 4188
265.43, 4221
265.4325, 4231
265.435, 4198
265.4375, 4218
265.44, 4228
265.4425, 4204
265.445, 4215
265.4475, 4210
265.45, 4202
265.4525, 4172
265.455, 4196
265.4575, 4199
265.46, 4162
265.4625, 4191
265.465, 4195
265.4675, 4200
265.47, 4151
265.4725, 4164
265.475, 4159
265.4775, 4151
265.48, 4183
265.4825, 4171
265.485, 4171
265.4875, 4155
265.49, 4187
265.4925, 4190
265.495, 4162
265.4975, 4184
265.5, 4179
265.5025, 4164
265.505, 4141
265.5075, 4198
265.51, 4186
265.5125, 4176
265.515, 4188
265.5175, 4173
265.52, 4165
265.5225, 4161
265.525, 4207
265.5275, 4186
265.53, 4191
265.5325, 4162
265.535, 4156
265.5375, 4128
265.54, 4099
265.5425, 4138
265.545, 4140
265.5475, 4116
265.55, 4136
265.5525, 4122
265.555, 4098
265.5575, 4058
265.56, 4109
265.5625, 4112
265.565, 4088
265.5675, 4084
265.57, 4090
265.5725, 4105
265.575, 4059
265.5775, 4086
265.58, 4098
265.5825, 4085
265.585, 4121
265.5875, 4119
265.59, 4109
265.5925, 4119
265.595, 4144
265.5975, 4150
265.6, 4150
265.6025, 4160
265.605, 4170
265.6075, 4177
265.61, 4151
265.6125, 4199
265.615, 4205
265.6175, 4220
265.62, 4216
265.6225, 4228
265.625, 4222
265.6275, 4180
265.63, 4227
265.6325, 4231
265.635, 4223
265.6375, 4216
265.64, 4226
265.6425, 4223
265.645, 4173
265.6475, 4204
265.65, 4218
265.6525, 4190
265.655, 4180
265.6575, 4214
265.66, 4202
265.6625, 4184
265.665, 4197
265.6675, 4171
265.67, 4166
265.6725, 4173
265.675, 4184
265.6775, 4188
265.68, 4150
265.6825, 4174
265.685, 4168
265.6875, 4174
265.69, 4203
265.6925, 4174
265.695, 4193
265.6975, 4158
265.7, 4188
265.7025, 4177
265.705, 4200
265.7075, 4193
265.71, 4185
265.7125, 4169
265.715, 4158
265.7175, 4189
265.72, 4192
265.7225, 4172
265.725, 4181
265.7275, 4173
265.73, 4195
265.7325, 4132
265.735, 4180
265.7375, 4183
265.74, 4156
265.7425, 4176
265.745, 4187
265.7475, 4190
265.75, 4148
265.7525, 4211
265.755, 4172
265.7575, 4171
265.76, 4193
265.7625, 4177
265.765, 4181
265.7675, 4162
265.77, 4187
265.7725, 4170
265.775, 4152
265.7775, 4180
265.78, 4170
265.7825, 4156
265.785, 4118
265.7875, 4149
265.79, 4168
265.7925, 4169
265.795, 4183
265.7975, 4179
265.8, 4161
265.8025, 4119
265.805, 4173
265.8075, 4159
265.81, 4114
265.8125, 4130
265.815, 4158
265.8175, 4170
265.82, 4143
265.8225, 4170
265.825, 4175
265.8275, 4164
265.83, 4167
265.8325, 4159
265.835, 4131
265.8375, 4101
265.84, 4149
265.8425, 4133
265.845, 4146
265.8475, 4176
265.85, 4176
265.8525, 4168
265.855, 4119
265.8575, 4153
265.86, 4150
265.8625, 4152
265.865, 4144
265.8675, 4141
265.87, 4162
265.8725, 3999
265.875, 4172
265.8775, 4180
265.88, 4170
265.8825, 4182
265.885, 4184
265.8875, 4171
265.89, 4164
265.8925, 4175
265.895, 4165
265.8975, 4152
265.9, 4160
265.9025, 4163
265.905, 4124
265.9075, 4119
265.91, 4187
265.9125, 4204
265.915, 4196
265.9175, 4215
265.92, 4200
265.9225, 4209
265.925, 4136
265.9275, 4167
265.93, 4174
265.9325, 4166
265.935, 4164
265.9375, 4150
265.94, 4163
265.9425, 4110
265.945, 4178
265.9475, 4172
265.95, 4182
265.9525, 4197
265.955, 4179
265.9575, 4165
265.96, 4125
265.9625, 4147
265.965, 4142
265.9675, 4138
265.97, 4156
265.9725, 4155
265.975, 4160
265.9775, 4143
265.98, 4180
265.9825, 4172
265.985, 4180
265.9875, 4200
265.99, 4200
265.9925, 4203
265.995, 4140
265.9975, 4184
266.0, 4192
266.0025, 4180
266.005, 4172
266.0075, 4214
266.01, 4182
266.0125, 4151
266.015, 4167
266.0175, 4187
266.02, 4191
266.0225, 4221
266.025, 4204
266.0275, 4203
266.03, 4152
266.0325, 4208
266.035, 4211
266.0375, 4191
266.04, 4180
266.0425, 4187
266.045, 4202
266.0475, 4160
266.05, 4209
266.0525, 4197
266.055, 4162
266.0575, 4184
266.06, 4193
266.0625, 4183
266.065, 4144
266.0675, 4190
266.07, 4187
266.0725, 4179
266.075, 4176
266.0775, 4168
266.08, 4178
266.0825, 4149
266.085, 4190
266.0875, 4185
266.09, 4161
266.0925, 4186
266.095, 4189
266.0975, 4168
266.1, 4118
266.1025, 4163
266.105, 4171
266.1075, 4151
266.11, 4152
266.1125, 4183
266.115, 4191
266.1175, 4152
266.12, 4196
266.1225, 4173
266.125, 4142
266.1275, 4184
266.13, 4190
266.1325, 4176
266.135, 4139
266.1375, 4205
266.14, 4189
266.1425, 4184
266.145, 4169
266.1475, 4159
266.15, 4140
266.1525, 4103
266.155, 4149
266.1575, 4165
266.16, 4158
266.1625, 4170
266.165, 4171
266.1675, 4151
266.17, 4135
266.1725, 4209
266.175, 4204
266.1775, 4180
266.18, 4190
266.1825, 4191
266.185, 4188
266.1875, 4178
266.19, 4181
266.1925, 4163
266.195, 4135
266.1975, 4076
266.2, 4063
266.2025, 4068
266.205, 4054
266.2075, 4135
266.21, 4140
266.2125, 4163
266.215, 4172
266.2175, 4164
266.22, 4143
266.2225, 4093
266.225, 4146
266.2275, 4169
266.23, 4198
266.2325, 4188
266.235, 4219
266.2375, 4194
266.24, 4156
266.2425, 4198
266.245, 4188
266.2475, 4183
266.25, 4206
266.2525, 4191
266.255, 4175
266.2575, 4151
266.26, 4198
266.2625, 4185
266.265, 4180
266.2675, 4193
266.27, 4207
266.2725, 4197
266.275, 4145
266.2775, 4204
266.28, 4211
266.2825, 4190
266.285, 4186
266.2875, 4173
266.29, 4190
266.2925, 4176
266.295, 4251
266.2975, 4304
266.3, 4356
266.3025, 4398
266.305, 4462
266.3075, 4482
266.31, 4453
266.3125, 4378
266.315, 4166
266.3175, 3901
266.32, 3644
266.3225, 3352
266.325, 3068
266.3275, 2650
266.33, 2189
266.3325, 1934
266.335, 1797
266.3375, 1966
266.34, 2314
266.3425, 3037
266.345, 3983
266.3475, 4729
266.35, 5007
266.3525, 5038
266.355, 4985
266.3575, 4853
266.36, 4717
266.3625, 4616
266.365, 4605
266.3675, 4550
266.37, 4478
266.3725, 4483
266.375, 4495
266.3775, 4487
266.38, 4461
266.3825, 4514
266.385, 4488
266.3875, 4483
266.39, 4490
266.3925, 4485
266.395, 4495
266.3975, 4428
266.4, 4467
266.4025, 4435
266.405, 4420
266.4075, 4426
266.41, 4396
266.4125, 4368
266.415, 4345
266.4175, 4363
266.42, 4353
266.4225, 4335
266.425, 4332
266.4275, 4333
266.43, 4329
266.4325, 4286
266.435, 4320
266.4375, 4313
266.44, 4291
266.4425, 4316
266.445, 4321
266.4475, 4314
266.45, 4265
266.4525, 4273
266.455, 4257
266.4575, 4246
266.46, 4237
266.4625, 4238
266.465, 4236
266.4675, 4213
266.47, 4222
266.4725, 4234
266.475, 4219
266.4775, 4247
266.48, 4231
266.4825, 4216
266.485, 4193
266.4875, 4228
266.49, 4224
266.4925, 4218
266.495, 4224
266.4975, 4225
266.5, 4223
266.5025, 4182
266.505, 4214
266.5075, 4222
266.51, 4205
266.5125, 4196
266.515, 4202
266.5175, 4211
266.52, 4158
266.5225, 4192
266.525, 4168
266.5275, 4166
266.53, 4174
266.5325, 4177
266.535, 4165
266.5375, 4165
266.54, 4201
266.5425, 4184
266.545, 4178
266.5475, 4209
266.55, 4212
266.5525, 4200
266.555, 4148
266.5575, 4191
266.56, 4203
266.5625, 4192
266.565, 4187
266.5675, 4187
266.57, 4216
266.5725, 4176
266.575, 4245
266.5775, 4222
266.58, 4194
266.5825, 4170
266.585, 4164
266.5875, 4166
266.59, 4111
266.5925, 4167
266.595, 4163
266.5975, 4148
266.6, 4164
266.6025, 4174
266.605, 4155
266.6075, 4124
266.61, 4168
266.6125, 4162
266.615, 4147
266.6175, 4166
266.62, 4172
266.6225, 4158
266.625, 4123
266.6275, 4137
266.63, 4136
266.6325, 4126
266.635, 4158
266.6375, 4171
266.64, 4170
266.6425, 4135
266.645, 4162
266.6475, 4176
266.65, 4189
266.6525, 4178
266.655, 4175
266.6575, 4175
266.66, 4144
266.6625, 4185
266.665, 4181
266.6675, 4185
266.67, 4203
266.6725, 4181
266.675, 4192
266.6775, 4179
266.68, 4234
266.6825, 4196
266.685, 4209
266.6875, 4229
266.69, 4206
266.6925, 4217
266.695, 4185
266.6975, 4203
266.7, 4184
266.7025, 4173
266.705, 4180
266.7075, 4206
266.71, 4189
266.7125, 4167
266.715, 4199
266.7175, 4200
266.72, 4196
266.7225, 4193
266.725, 4193
266.7275, 4173
266.73, 4130
266.7325, 4195
266.735, 4216
266.7375, 4176
266.74, 4153
266.7425, 4186
266.745, 4176
266.7475, 4137
266.75, 4160
266.7525, 4160
266.755, 4165
266.7575, 4183
266.76, 4179
266.7625, 4144
266.765, 4133
266.7675, 4168
266.77, 4156
266.7725, 4160
266.775, 4169
266.7775, 4175
266.78, 4172
266.7825, 4123
266.785, 4165
266.7875, 4159
266.79, 4130
266.7925, 4153
266.795, 4142
266.7975, 4153
266.8, 4124
266.8025, 4156
266.805, 4165
266.8075, 4158
266.81, 4176
266.8125, 4193
266.815, 4191
266.8175, 4138
266.82, 4176
266.8225, 4168
266.825, 4152
266.8275, 4142
266.83, 4141
266.8325, 4160
266.835, 4137
266.8375, 4144
266.84, 4159
266.8425, 4150
266.845, 4147
266.8475, 4151
266.85, 4176
266.8525, 4131
266.855, 4178
266.8575, 4171
266.86, 4165
266.8625, 4147
266.865, 4148
266.8675, 4140
266.87, 4125
266.8725, 4154
266.875, 4170
266.8775, 4182
266.88, 4182
266.8825, 4188
266.885, 4167
266.8875, 4140
266.89, 4160
266.8925, 4173
266.895, 4158
266.8975, 4146
266.9, 4138
266.9025, 4155
266.905, 4094
266.9075, 4152
266.91, 4159
266.9125, 4135
266.915, 4164
266.9175, 4151
266.92, 4161
266.9225, 4137
266.925, 4166
266.9275, 4157
266.93, 4156
266.9325, 4181
266.935, 4195
266.9375, 4183
266.94, 4145
266.9425, 4195
266.945, 4184
266.9475, 4181
266.95, 4190
266.9525, 4208
266.955, 4180
266.9575, 4129
266.96, 4172
266.9625, 4155
266.965, 4155
266.9675, 4163
266.97, 4164
266.9725, 4160
266.975, 4111
266.9775, 4158
266.98, 4165
266.9825, 4154
266.985, 4168
266.9875, 4189
266.99, 4191
266.9925, 4138
266.995, 4184
266.9975, 4164
267.0, 4153
267.0025, 4151
267.005, 4158
267.0075, 4157
267.01, 4137
267.0125, 4170
267.015, 4166
267.0175, 4160
267.02, 4149
267.0225, 4156
267.025, 4144
267.0275, 4128
267.03, 4179
267.0325, 4172
267.035, 4153
267.0375, 4156
267.04, 4160
267.0425, 4171
267.045, 4123
267.0475, 4186
267.05, 4176
267.0525, 4158
267.055, 4163
267.0575, 4160
267.06, 4160
267.0625, 4125
267.065, 4153
267.0675, 4172
267.07, 4159
267.0725, 4154
267.075, 4145
267.0775, 4149
267.08, 4119
267.0825, 4169
267.085, 4164
267.0875, 4140
267.09, 4164
267.0925, 4129
267.095, 4115
267.0975, 4082
267.1, 4142
267.1025, 4143
267.105, 4128
267.1075, 4171
267.11, 4161
267.1125, 4165
267.115, 4110
267.1175, 4156
267.12, 4152
267.1225, 4125
267.125, 4153
267.1275, 4180
267.13, 4170
267.1325, 4146
267.135, 4179
267.1375, 4174
267.14, 4168
267.1425, 4155
267.145, 4171
267.1475, 4169
267.15, 4024
267.1525, 4188
267.155, 4197
267.1575, 4173
267.16, 4163
267.1625, 4174
267.165, 4149
267.1675, 4120
267.17, 4175
267.1725, 4175
267.175, 4168
267.1775, 4178
267.18, 4180
267.1825, 4156
267.185, 4124
267.1875, 4169
267.19, 4132
267.1925, 4125
267.195, 4167
267.1975, 4171
267.2, 4155
267.2025, 4105
267.205, 4173
267.2075, 4174
267.21, 4156
267.2125, 4180
267.215, 4197
267.2175, 4168
267.22, 4030
267.2225, 4182
267.225, 4196
267.2275, 4174
267.23, 4184
267.2325, 4180
267.235, 4185
267.2375, 4135
267.24, 4188
267.2425, 4191
267.245, 4180
267.2475, 4183
267.25, 4192
267.2525, 4176
267.255, 4116
267.2575, 4157
267.26, 4145
267.2625, 4137
267.265, 4142
267.2675, 4152
267.27, 4152
267.2725, 4156
267.275, 4186
267.2775, 4180
267.28, 4180
267.2825, 4203
267.285, 4197
267.2875, 4189
267.29, 4064
267.2925, 4223
267.295, 4223
267.2975, 4179
267.3, 4179
267.3025, 4192
267.305, 4170
267.3075, 4117
267.31, 4181
267.3125, 4187
267.315, 4177
267.3175, 4184
267.32, 4192
267.3225, 4186
267.325, 4169
267.3275, 4191
267.33, 4174
267.3325, 4180
267.335, 4185
267.3375, 4182
267.34, 4169
267.3425, 4139
267.345, 4181
267.3475, 4140
267.35, 4144
267.3525, 4206
267.355, 4278
267.3575, 4320
267.36, 4391
267.3625, 4422
267.365, 4451
267.3675, 4464
267.37, 4361
267.3725, 4182
267.375, 3975
267.3775, 3662
267.38, 3378
267.3825, 2999
267.385, 2586
267.3875, 2054
267.39, 1749
267.3925, 1662
267.395, 1723
267.3975, 2209
267.4, 3026
267.4025, 3891
267.405, 4523
267.4075, 4846
267.41, 4902
267.4125, 4789
267.415, 4676
267.4175, 4566
267.42, 4520
267.4225, 4522
267.425, 4499
267.4275, 4487
267.43, 4466
267.4325, 4504
267.435, 4505
267.4375, 4528
267.44, 4516
267.4425, 4494
267.445, 4479
267.4475, 4455
267.45, 4477
267.4525, 4463
267.455, 4463
267.4575, 4480
267.46, 4462
267.4625, 4438
267.465, 4398
267.4675, 4409
267.47, 4399
267.4725, 4394
267.475, 4411
267.4775, 4389
267.48, 4370
267.4825, 4323
267.485, 4352
267.4875, 4350
267.49, 4330
267.4925, 4330
267.495, 4348
267.4975, 4329
267.5, 4299
267.5025, 4351
267.505, 4335
267.5075, 4339
267.51, 4334
267.5125, 4335
267.515, 4328
267.5175, 4175
267.52, 4335
267.5225, 4304
267.525, 4258
267.5275, 4238
267.53, 4231
267.5325, 4220
267.535, 4211
267.5375, 4262
267.54, 4228
267.5425, 4224
267.545, 4233
267.5475, 4246
267.55, 4238
267.5525, 4221
267.555, 4253
267.5575, 4231
267.56, 4199
267.5625, 4220
267.565, 4227
267.5675, 4221
267.57, 4179
267.5725, 4206
267.575, 4211
267.5775, 4189
267.58, 4227
267.5825, 4226
267.585, 4224
267.5875, 4199
267.59, 4245
267.5925, 4210
267.595, 4204
267.5975, 4205
267.6, 4211
267.6025, 4211
267.605, 4079
267.6075, 4223
267.61, 4207
267.6125, 4198
267.615, 4206
267.6175, 4198
267.62, 4192
267.6225, 4167
267.625, 4212
267.6275, 4200
267.63, 4196
267.6325, 4202
267.635, 4199
267.6375, 4201
267.64, 4193
267.6425, 4217
267.645, 4198
267.6475, 4186
267.65, 4201
267.6525, 4208
267.655, 4220
267.6575, 4177
267.66, 4214
267.6625, 4187
267.665, 4149
267.6675, 4155
267.67, 4144
267.6725, 4134
267.675, 4086
267.6775, 4132
267.68, 4134
267.6825, 4110
267.685, 4094
267.6875, 4115
267.69, 4110
267.6925, 4067
267.695, 4112
267.6975, 4096
267.7, 4092
267.7025, 4125
267.705, 4105
267.7075, 4120
267.71, 4084
267.7125, 4124
267.715, 4138
267.7175, 4137
267.72, 4147
267.7225, 4149
267.725, 4164
267.7275, 4133
267.73, 4165
267.7325, 4165
267.735, 4165
267.7375, 4155
267.74, 4162
267.7425, 4170
267.745, 4137
267.7475, 4171
267.75, 4152
267.7525, 4169
267.755, 4179
267.7575, 4162
267.76, 4180
267.7625, 4145
267.765, 4174
267.7675, 4167
267.77, 4170
267.7725, 4182
267.775, 4199
267.7775, 4164
267.78, 4129
267.7825, 4191
267.785, 4181
267.7875, 4157
267.79, 4204
267.7925, 4176
267.795, 4157
267.7975, 4119
267.8, 4184
267.8025, 4182
267.805, 4157
267.8075, 4185
267.81, 4186
267.8125, 4181
267.815, 4162
267.8175, 4185
267.82, 4176
267.8225, 4167
267.825, 4168
267.8275, 4178
267.83, 4183
267.8325, 4144
267.835, 4148
267.8375, 4163
267.84, 4170
267.8425, 4175
267.845, 4194
267.8475, 4177
267.85, 4131
267.8525, 4171
267.855, 4176
267.8575, 4176
267.86, 4152
267.8625, 4143
267.865, 4137
267.8675, 4115
267.87, 4158
267.8725, 4152
267.875, 4152
267.8775, 4170
267.88, 4158
267.8825, 4164
267.885, 4114
267.8875, 4183
267.89, 4173
267.8925, 4162
267.895, 4159
267.8975, 4164
267.9, 4157
267.9025, 4116
267.905, 4132
267.9075, 4157
267.91, 4145
267.9125, 4175
267.915, 4175
267.9175, 4162
267.92, 4151
267.9225, 4198
267.925, 4210
267.9275, 4200
267.93, 4190
267.9325, 4211
267.935, 4203
267.9375, 4172
267.94, 4201
267.9425, 4200
267.945, 4171
267.9475, 4178
267.95, 4185
267.9525, 4198
267.955, 4176
267.9575, 4227
267.96, 4193
267.9625, 4181
267.965, 4184
267.9675, 4210
267.97, 4201
267.9725, 4189
267.975, 4212
267.9775, 4219
267.98, 4203
267.9825, 4214
267.985, 4204
267.9875, 4179
267.99, 4138
267.9925, 4165
267.995, 4162
267.9975, 4159
268.0, 4183
268.0025, 4178
268.005, 4178
268.0075, 4144
268.01, 4201
268.0125, 4179
268.015, 4154
268.0175, 4149
268.02, 4161
268.0225, 4183
268.025, 4033
268.0275, 4204
268.03, 4170
268.0325, 4167
268.035, 4160
268.0375, 4169
268.04, 4161
268.0425, 4165
268.045, 4175
268.0475, 4179
268.05, 4168
268.0525, 4163
268.055, 4183
268.0575, 4166
268.06, 4126
268.0625, 4196
268.065, 4172
268.0675, 4172
268.07, 4156
268.0725, 4172
268.075, 4160
268.0775, 4132
268.08, 4177
268.0825, 4186
268.085, 4171
268.0875, 4168
268.09, 4159
268.0925, 4165
268.095, 4113
268.0975, 4163
268.1, 4161
268.1025, 4151
268.105, 4181
268.1075, 4157
268.11, 4167
268.1125, 4130
268.115, 4166
268.1175, 4156
268.12, 4158
268.1225, 4153
268.125, 4170
268.1275, 4142
268.13, 4086
268.1325, 4143
268.135, 4137
268.1375, 4149
268.14, 4172
268.1425, 4146
268.145, 4129
268.1475, 4082
268.15, 4138
268.1525, 4158
268.155, 4147
268.1575, 4149
268.16, 4157
268.1625, 4162
268.165, 4141
268.1675, 4179
268.17, 4152
268.1725, 4151
268.175, 4174
268.1775, 4157
268.18, 4161
268.1825, 4131
268.185, 4181
268.1875, 4174
268.19, 4158
268.1925, 4179
268.195, 4173
268.1975, 4165
268.2, 4147
268.2025, 4180
268.205, 4160
268.2075, 4154
268.21, 4140
268.2125, 4129
268.215, 4127
268.2175, 4103
268.22, 4172
268.2225, 4145
268.225, 4129
268.2275, 4140
268.23, 4147
268.2325, 4133
268.235, 4092
268.2375, 4140
268.24, 4126
268.2425, 4137
268.245, 4105
268.2475, 4149
268.25, 4129
268.2525, 4075
268.255, 4143
268.2575, 4155
268.26, 4144
268.2625, 4154
268.265, 4161
268.2675, 4133
268.27, 4119
268.2725, 4152
268.275, 4143
268.2775, 4145
268.28, 4144
268.2825, 4146
268.285, 4133
268.2875, 4101
268.29, 4142
268.2925, 4144
268.295, 4124
268.2975, 4156
268.3, 4161
268.3025, 4166
268.305, 4132
268.3075, 4154
268.31, 4153
268.3125, 4150
268.315, 4173
268.3175, 4187
268.32, 4174
268.3225, 4139
268.325, 4168
268.3275, 4128
268.33, 4094
268.3325, 4092
268.335, 4114
268.3375, 4123
268.34, 4060
268.3425, 4084
268.345, 4097
268.3475, 4092
268.35, 4143
268.3525, 4132
268.355, 4116
268.3575, 4085
268.36, 4146
268.3625, 4147
268.365, 4138
268.3675, 4147
268.37, 4173
268.3725, 4170
268.375, 4143
268.3775, 4200
268.38, 4179
268.3825, 4163
268.385, 4170
268.3875, 4203
268.39, 4214
268.3925, 4181
268.395, 4198
268.3975, 4183
268.4, 4203
268.4025, 4200
268.405, 4196
268.4075, 4205
268.41, 4137
268.4125, 4198
268.415, 4175
268.4175, 4193
268.42, 4196
268.4225, 4190
268.425, 4185
268.4275, 4161
268.43, 4261
268.4325, 4332
268.435, 4371
268.4375, 4418
268.44, 4474
268.4425, 4475
268.445, 4357
268.4475, 4251
268.45, 4029
268.4525, 3825
268.455, 3502
268.4575, 3238
268.46, 2817
268.4625, 2318
268.465, 2038
268.4675, 1839
268.47, 1902
268.4725, 2212
268.475, 2827
268.4775, 3690
268.48, 4474
268.4825, 4901
268.485, 5055
268.4875, 5007
268.49, 4889
268.4925, 4717
268.495, 4622
268.4975, 4525
268.5, 4529
268.5025, 4495
268.505, 4470
268.5075, 4476
268.51, 4480
268.5125, 4488
268.515, 4463
268.5175, 4493
268.52, 4471
268.5225, 4466
268.525, 4470
268.5275, 4460
268.53, 4454
268.5325, 4390
268.535, 4454
268.5375, 4429
268.54, 4408
268.5425, 4407
268.545, 4395
268.5475, 4387
268.55, 4338
268.5525, 4369
268.555, 4338
268.5575, 4305
268.56, 4337
268.5625, 4332
268.565, 4321
268.5675, 4308
268.57, 4323
268.5725, 4292
268.575, 4289
268.5775, 4305
268.58, 4280
268.5825, 4270
268.585, 4229
268.5875, 4280
268.59, 4279
268.5925, 4274
268.595, 4265
268.5975, 4262
268.6, 4230
268.6025, 4193
268.605, 4229
268.6075, 4210
268.61, 4204
268.6125, 4190
268.615, 4195
268.6175, 4186
268.62, 4156
268.6225, 4224
268.625, 4220
268.6275, 4184
268.63, 4191
268.6325, 4197
268.635, 4197
268.6375, 4157
268.64, 4174
268.6425, 4159
268.645, 4168
268.6475, 4176
268.65, 4205
268.6525, 4201
268.655, 4146
268.6575, 4213
268.66, 4188
268.6625, 4146
268.665, 4169
268.6675, 4165
268.67, 4151
268.6725, 4145
268.675, 4204
268.6775, 4187
268.68, 4202
268.6825, 4197
268.685, 4172
268.6875, 4171
268.69, 4129
268.6925, 4163
268.695, 4163
268.6975, 4155
268.7, 4168
268.7025, 4173
268.705, 4166
268.7075, 4134
268.71, 4192
268.7125, 4201
268.715, 4198
268.7175, 4183
268.72, 4178
268.7225, 4154
268.725, 4114
268.7275, 4175
268.73, 4186
268.7325, 4186
268.735, 4182
268.7375, 4169
268.74, 4164
268.7425, 4165
268.745, 4165
268.7475, 4142
268.75, 4153
268.7525, 4152
268.755, 4165
268.7575, 4145
268.76, 4126
268.7625, 4155
268.765, 4139
268.7675, 4136
268.77, 4164
268.7725, 4159
268.775, 4177
268.7775, 4136
268.78, 4206
268.7825, 4197
268.785, 4187
268.7875, 4225
268.79, 4202
268.7925, 4200
268.795, 4199
268.7975, 4235
268.8, 4240
268.8025, 4218
268.805, 4231
268.8075, 4252
268.81, 4250
268.8125, 4221
268.815, 4273
268.8175, 4268
268.82, 4283
268.8225, 4283
268.825, 4279
268.8275, 4287
268.83, 4236
268.8325, 4283
268.835, 4270
268.8375, 4254
268.84, 4271
268.8425, 4263
268.845, 4260
268.8475, 4225
268.85, 4280
268.8525, 4238
268.855, 4216
268.8575, 4210
268.86, 4211
268.8625, 4226
268.865, 4164
268.8675, 4228
268.87, 4229
268.8725, 4218
268.875, 4220
268.8775, 4224
268.88, 4213
268.8825, 4173
268.885, 4198
268.8875, 4199
268.89, 4200
268.8925, 4216
268.895, 4221
268.8975, 4218
268.9, 4192
268.9025, 4226
268.905, 4226
268.9075, 4203
268.91, 4200
268.9125, 4208
268.915, 4217
268.9175, 4171
268.92, 4200
268.9225, 4185
268.925, 4179
268.9275, 4213
268.93, 4206
268.9325, 4213
268.935, 4161
268.9375, 4206
268.94, 4207
268.9425, 4190
268.945, 4170
268.9475, 4163
268.95, 4179
268.9525, 4177
268.955, 4228
268.9575, 4224
268.96, 4202
268.9625, 4194
268.965, 4178
268.9675, 4158
268.97, 4150
268.9725, 4155
268.975, 4180
268.9775, 4176
268.98, 4157
268.9825, 4182
268.985, 4157
268.9875, 4145
268.99, 4212
268.9925, 4190
268.995, 4177
268.9975, 4184
269.0, 4158
269.0025, 4164
269.005, 4146
269.0075, 4173
269.01, 4167
269.0125, 4184
269.015, 4194
269.0175, 4203
269.02, 4201
269.0225, 4160
269.025, 4204
269.0275, 4194
269.03, 4174
269.0325, 4178
269.035, 4185
269.0375, 4151
269.04, 4131
269.0425, 4186
269.045, 4190
269.0475, 4190
269.05, 4205
269.0525, 4204
269.055, 4212
269.0575, 4150
269.06, 4189
269.0625, 4186
269.065, 4170
269.0675, 4185
269.07, 4191
269.0725, 4200
269.075, 4167
269.0775, 4202
269.08, 4205
269.0825, 4201
269.085, 4199
269.0875, 4226
269.09, 4216
269.0925, 4193
269.095, 4188
269.0975, 4172
269.1, 4164
269.1025, 4176
269.105, 4179
269.1075, 4160
269.11, 4153
269.1125, 4188
269.115, 4201
269.1175, 4192
269.12, 4199
269.1225, 4187
269.125, 4164
269.1275, 4118
269.13, 4184
269.1325, 4175
269.135, 4181
269.1375, 4190
269.14, 4204
269.1425, 4182
269.145, 4151
269.1475, 4194
269.15, 4190
269.1525, 4186
269.155, 4217
269.1575, 4214
269.16, 4195
269.1625, 4137
269.165, 4195
269.1675, 4157
269.17, 4151
269.1725, 4153
269.175, 4137
269.1775, 4164
269.18, 4149
269.1825, 4179
269.185, 4184
269.1875, 4142
269.19, 4150
269.1925, 4153
269.195, 4168
269.1975, 4122
269.2, 4167
269.2025, 4169
269.205, 4157
269.2075, 4165
269.21, 4151
269.2125, 4148
269.215, 4109
269.2175, 4133
269.22, 4131
269.2225, 4117
269.225, 4166
269.2275, 4142
269.23, 4148
269.2325, 4113
269.235, 4156
269.2375, 4117
269.24, 4109
269.2425, 4141
269.245, 4136
269.2475, 4125
269.25, 4100
269.2525, 4151
269.255, 4121
269.2575, 4122
269.26, 4140
269.2625, 4149
269.265, 4119
269.2675, 4094
269.27, 4159
269.2725, 4127
269.275, 4135
269.2775, 4129
269.28, 4122
269.2825, 4111
269.285, 4091
269.2875, 4137
269.29, 4146
269.2925, 4146
269.295, 4172
269.2975, 4167
269.3, 4140
269.3025, 4128
269.305, 4162
269.3075, 4148
269.31, 4121
269.3125, 4119
269.315, 4122
269.3175, 4125
269.32, 4061
269.3225, 4112
269.325, 4104
269.3275, 4126
269.33, 4136
269.3325, 4112
269.335, 4103
269.3375, 4073
269.34, 4125
269.3425, 4104
269.345, 4111
269.3475, 4124
269.35, 4148
269.3525, 4141
269.355, 4139
269.3575, 4180
269.36, 4183
269.3625, 4180
269.365, 4193
269.3675, 4192
269.37, 4198
269.3725, 4132
269.375, 4193
269.3775, 4212
269.38, 4169
269.3825, 4164
269.385, 4172
269.3875, 4168
269.39, 4145
269.3925, 4175
269.395, 4156
269.3975, 4144
269.4, 4185
269.4025, 4179
269.405, 4173
269.4075, 4120
269.41, 4191
269.4125, 4185
269.415, 4181
269.4175, 4202
269.42, 4242
269.4225, 4301
269.425, 4321
269.4275, 4388
269.43, 4415
269.4325, 4469
269.435, 4466
269.4375, 4349
269.44, 4152
269.4425, 3873
269.445, 3630
269.4475, 3330
269.45, 2929
269.4525, 2502
269.455, 2007
269.4575, 1759
269.46, 1683
269.4625, 1858
269.465, 2349
269.4675, 3194
269.47, 4138
269.4725, 4732
269.475, 4984
269.4775, 4967
269.48, 4911
269.4825, 4747
269.485, 4618
269.4875, 4575
269.49, 4588
269.4925, 4534
269.495, 4437
269.4975, 4474
269.5, 4484
269.5025, 4481
269.505, 4504
269.5075, 4517
269.51, 4512
269.5125, 4482
269.515, 4465
269.5175, 4473
269.52, 4454
269.5225, 4469
269.525, 4418
269.5275, 4428
269.53, 4380
269.5325, 4435
269.535, 4405
269.5375, 4387
269.54, 4373
269.5425, 4361
269.545, 4359
269.5475, 4318
269.55, 4338
269.5525, 4335
269.555, 4332
269.5575, 4345
269.56, 4320
269.5625, 4321
269.565, 4276
269.5675, 4311
269.57, 4295
269.5725, 4267
269.575, 4287
269.5775, 4278
269.58, 4286
269.5825, 4250
269.585, 4285
269.5875, 4263
269.59, 4253
269.5925, 4263
269.595, 4247
269.5975, 4230
269.6, 4201
269.6025, 4250
269.605, 4227
269.6075, 4225
269.61, 4212
269.6125, 4209
269.615, 4232
269.6175, 4177
269.62, 4232
269.6225, 4213
269.625, 4204
269.6275, 4199
269.63, 4204
269.6325, 4213
269.635, 4165
269.6375, 4204
269.64, 4183
269.6425, 4187
269.645, 4185
269.6475, 4174
269.65, 4193
269.6525, 4131
269.655, 4197
269.6575, 4191
269.66, 4165
269.6625, 4195
269.665, 4199
269.6675, 4203
269.67, 4188
269.6725, 4235
269.675, 4217
269.6775, 4196
269.68, 4203
269.6825, 4197
269.685, 4207
269.6875, 4190
269.69, 4211
269.6925, 4198
269.695, 4188
269.6975, 4197
269.7, 4186
269.7025, 4172
269.705, 4150
269.7075, 4191
269.71, 4204
269.7125, 4200
269.715, 4187
269.7175, 4209
269.72, 4185
269.7225, 4140
269.725, 4187
269.7275, 4184
269.73, 4164
269.7325, 4188
269.735, 4202
269.7375, 4184
269.74, 4141
269.7425, 4152
269.745, 4101
269.7475, 4108
269.75, 4108
269.7525, 4109
269.755, 4119
269.7575, 4096
269.76, 4122
269.7625, 4126
269.765, 4134
269.7675, 4140
269.77, 4155
269.7725, 4129
269.775, 4073
269.7775, 4145
269.78, 4141
269.7825, 4161
269.785, 4151
269.7875, 4171
269.79, 4163
269.7925, 4175
269.795, 4191
269.7975, 4196
269.8, 4203
269.8025, 4212
269.805, 4220
269.8075, 4190
269.81, 4154
269.8125, 4218
269.815, 4241
269.8175, 4229
269.82, 4210
269.8225, 4241
269.825, 4221
269.8275, 4073
269.83, 4230
269.8325, 4224
269.835, 4214
269.8375, 4075
269.84, 4229
269.8425, 4216
269.845, 4169
269.8475, 4226
269.85, 4187
269.8525, 4187
269.855, 4195
269.8575, 4250
269.86, 4220
269.8625, 4201
269.865, 4223
269.8675, 4232
269.87, 4208
269.8725, 4212
269.875, 4224
269.8775, 4190
269.88, 4143
269.8825, 4222
269.885, 4194
269.8875, 4187
269.89, 4189
269.8925, 4179
269.895, 4200
269.8975, 4130
269.9, 4164
269.9025, 4163
269.905, 4164
269.9075, 4179
269.91, 4162
269.9125, 4181
269.915, 4172
269.9175, 4183
269.92, 4170
269.9225, 4179
269.925, 4177
269.9275, 4167
269.93, 4173
269.9325, 4147
269.935, 4190
269.9375, 4184
269.94, 4187
269.9425, 4205
269.945, 4195
269.9475, 4175
269.95, 4127
269.9525, 4179
269.955, 4174
269.9575, 4167
269.96, 4173
269.9625, 4188
269.965, 4184
269.9675, 4129
269.97, 4198
269.9725, 4173
269.975, 4156
269.9775, 4156
269.98, 4158
269.9825, 4167
269.985, 4123
269.9875, 4163
269.99, 4162
269.9925, 4183
269.995, 4164
269.9975, 4194
270.0, 4177
270.0025, 4145
270.005, 4184
270.0075, 4180
270.01, 4181
270.0125, 4172
270.015, 4168
270.0175, 4158
270.02, 4116
270.0225, 4146
270.025, 4157
270.0275, 4167
270.03, 4166
270.0325, 4177
270.035, 4170
270.0375, 4162
270.04, 4168
270.0425, 4161
270.045, 4138
270.0475, 4160
270.05, 4164
270.0525, 4139
270.055, 4107
270.0575, 4147
270.06, 4151
270.0625, 4155
270.065, 4149
270.0675, 4167
270.07, 4164
270.0725, 4101
270.075, 4163
270.0775, 4174
270.08, 4151
270.0825, 4156
270.085, 4173
270.0875, 4166
270.09, 4127
270.0925, 4159
270.095, 4149
270.0975, 4144
270.1, 4152
270.1025, 4160
270.105, 4154
270.1075, 4140
270.11, 4173
270.1125, 4150
270.115, 4150
270.1175, 4146
270.12, 4150
270.1225, 4149
270.125, 4122
270.1275, 4153
270.13, 4142
270.1325, 4141
270.135, 4162
270.1375, 4175
270.14, 4140
270.1425, 4094
270.145, 4125
270.1475, 4116
270.15, 4137
270.1525, 4134
270.155, 4144
270.1575, 4125
270.16, 4093
270.1625, 4146
270.165, 4142
270.1675, 4129
270.17, 4125
270.1725, 4145
270.175, 4130
270.1775, 4092
270.18, 4115
270.1825, 4121
270.185, 4133
270.1875, 4123
270.19, 4154
270.1925, 4166
270.195, 4121
270.1975, 4145
270.2, 4147
270.2025, 4149
270.205, 4154
270.2075, 4137
270.21, 4140
270.2125, 4108
270.215, 4137
270.2175, 4143
270.22, 4147
270.2225, 4179
270.225, 4186
270.2275, 4188
270.23, 4124
270.2325, 4153
270.235, 4147
270.2375, 4167
270.24, 4171
270.2425, 4176
270.245, 4158
270.2475, 4111
270.25, 4168
270.2525, 4171
270.255, 4148
270.2575, 4165
270.26, 4168
270.2625, 4175
270.265, 4141
270.2675, 4183
270.27, 4160
270.2725, 4156
270.275, 4158
270.2775, 4157
270.28, 4156
270.2825, 4110
270.285, 4159
270.2875, 4150
270.29, 4162
270.2925, 4177
270.295, 4150
270.2975, 4131
270.3, 4091
270.3025, 4140
270.305, 4138
270.3075, 4145
270.31, 4149
270.3125, 4169
270.315, 4140
270.3175, 4107
270.32, 4138
270.3225, 4166
270.325, 4152
270.3275, 4156
270.33, 4173
270.3325, 4171
270.335, 4145
270.3375, 4192
270.34, 4196
270.3425, 4171
270.345, 4163
270.3475, 4176
270.35, 4155
270.3525, 4142
270.355, 4186
270.3575, 4189
270.36, 4185
270.3625, 4178
270.365, 4200
270.3675, 4183
270.37, 4144
270.3725, 4209
270.375, 4220
270.3775, 4196
270.38, 4181
270.3825, 4192
270.385, 4187
270.3875, 4174
270.39, 4184
270.3925, 4191
270.395, 4186
270.3975, 4173
270.4, 4173
270.4025, 4188
270.405, 4136
270.4075, 4190
270.41, 4189
270.4125, 4178
270.415, 4197
270.4175, 4204
270.42, 4190
270.4225, 4140
270.425, 4158
270.4275, 4162
270.43, 4158
270.4325, 4182
270.435, 4149
270.4375, 4120
270.44, 4068
270.4425, 4068
270.445, 4063
270.4475, 4057
270.45, 4095
270.4525, 4111
270.455, 4119
270.4575, 4089
270.46, 4119
270.4625, 4125
270.465, 4131
270.4675, 4159
270.47, 4173
270.4725, 4161
270.475, 4104
270.4775, 4157
270.48, 4161
270.4825, 4148
270.485, 4148
270.4875, 4158
270.49, 4150
270.4925, 4132
270.495, 4167
270.4975, 4159
270.5, 4170
270.5025, 4168
270.505, 4175
270.5075, 4167
270.51, 4139
270.5125, 4170
270.515, 4163
270.5175, 4140
270.52, 4174
270.5225, 4170
270.525, 4182
270.5275, 4135
270.53, 4189
270.5325, 4186
270.535, 4207
270.5375, 4290
270.54, 4369
270.5425, 4417
270.545, 4391
270.5475, 4454
270.55, 4473
270.5525, 4386
270.555, 4258
270.5575, 4026
270.56, 3783
270.5625, 3427
270.565, 3156
270.5675, 2765
270.57, 2249
270.5725, 1855
270.575, 1678
270.5775, 1742
270.58, 2006
270.5825, 2811
270.585, 3683
270.5875, 4388
270.59, 4786
270.5925, 4926
270.595, 4864
270.5975, 4699
270.6, 4621
270.6025, 4533
270.605, 4527
270.6075, 4515
270.61, 4493
270.6125, 4497
270.615, 4490
270.6175, 4499
270.62, 4509
270.6225, 4513
270.625, 4509
270.6275, 4505
270.63, 4483
270.6325, 4430
270.635, 4476
270.6375, 4459
270.64, 4449
270.6425, 4435
270.645, 4442
270.6475, 4420
270.65, 4369
270.6525, 4394
270.655, 4384
270.6575, 4375
270.66, 4385
270.6625, 4377
270.665, 4377
270.6675, 4352
270.67, 4387
270.6725, 4382
270.675, 4345
270.6775, 4345
270.68, 4344
270.6825, 4347
270.685, 4293
270.6875, 4339
270.69, 4325
270.6925, 4319
270.695, 4298
270.6975, 4287
270.7, 4285
270.7025, 4245
270.705, 4295
270.7075, 4254
270.71, 4207
270.7125, 4245
270.715, 4239
270.7175, 4229
270.72, 4194
270.7225, 4212
270.725, 4240
270.7275, 4240
270.73, 4248
270.7325, 4224
270.735, 4233
270.7375, 4191
270.74, 4221
270.7425, 4204
270.745, 4204
270.7475, 4208
270.75, 4215
270.7525, 4206
270.755, 4182
270.7575, 4227
270.76, 4208
270.7625, 4191
270.765, 4211
270.7675, 4204
270.77, 4211
270.7725, 4050
270.775, 4225
270.7775, 4220
270.78, 4205
270.7825, 4234
270.785, 4231
270.7875, 4226
270.79, 4183
270.7925, 4228
270.795, 4218
270.7975, 4196
270.8, 4183
270.8025, 4198
270.805, 4194
270.8075, 4138
270.81, 4190
270.8125, 4172
270.815, 4161
270.8175, 4066
270.82, 4228
270.8225, 4231
270.825, 4174
270.8275, 4204
270.83, 4188
270.8325, 4176
270.835, 4190
270.8375, 4171
270.84, 4156
270.8425, 4096
270.845, 4156
270.8475, 4144
270.85, 4127
270.8525, 4132
270.855, 4131
270.8575, 4117
270.86, 4113
270.8625, 4147
270.865, 4116
270.8675, 4101
270.87, 4119
270.8725, 4130
270.875, 4113
270.8775, 4059
270.88, 4104
270.8825, 4115
270.885, 4121
270.8875, 4131
270.89, 4153
270.8925, 4144
270.895, 4092
270.8975, 4160
270.9, 4167
270.9025, 4159
270.905, 4164
270.9075, 4172
270.91, 4175
270.9125, 4155
270.915, 4181
270.9175, 4171
270.92, 4190
270.9225, 4220
270.925, 4218
270.9275, 4206
270.93, 4183
270.9325, 4248
270.935, 4217
270.9375, 4202
270.94, 4210
270.9425, 4220
270.945, 4207
270.9475, 4176
270.95, 4229
270.9525, 4213
270.955, 4186
270.9575, 4220
270.96, 4213
270.9625, 4197
270.965, 4161
270.9675, 4210
270.97, 4210
270.9725, 4191
270.975, 4222
270.9775, 4194
270.98, 4206
270.9825, 4094
270.985, 4193
270.9875, 4194
270.99, 4186
270.9925, 4191
270.995, 4197
270.9975, 4185
271.0, 4152
271.0025, 4183
271.005, 4170
271.0075, 4174
271.01, 4186
271.0125, 4177
271.015, 4187
271.0175, 4138
271.02, 4172
271.0225, 4164
271.025, 4170
271.0275, 4156
271.03, 4148
271.0325, 4161
271.035, 4141
271.0375, 4185
271.04, 4170
271.0425, 4173
271.045, 4187
271.0475, 4195
271.05, 4209
271.0525, 4177
271.055, 4228
271.0575, 4199
271.06, 4195
271.0625, 4215
271.065, 4199
271.0675, 4176
271.07, 4124
271.0725, 4171
271.075, 4179
271.0775, 4155
271.08, 4163
271.0825, 4169
271.085, 4176
271.0875, 4149
271.09, 4201
271.0925, 4168
271.095, 4178
271.0975, 4183
271.1, 4183
271.1025, 4163
271.105, 4135
271.1075, 4187
271.11, 4176
271.1125, 4167
271.115, 4193
271.1175, 4181
271.12, 4183
271.1225, 4149
271.125, 4197
271.1275, 4194
271.13, 4167
271.1325, 4173
271.135, 4161
271.1375, 4174
271.14, 4162
271.1425, 4187
271.145, 4183
271.1475, 4176
271.15, 4148
271.1525, 4157
271.155, 4160
271.1575, 4099
271.16, 4165
271.1625, 4163
271.165, 4156
271.1675, 4185
271.17, 4195
271.1725, 4147
271.175, 4026
271.1775, 4191
271.18, 4185
271.1825, 4154
271.185, 4145
271.1875, 4167
271.19, 4158
271.1925, 4111
271.195, 4190
271.1975, 4189
271.2, 4190
271.2025, 4190
271.205, 4179
271.2075, 4172
271.21, 4163
271.2125, 4180
271.215, 4143
271.2175, 4150
271.22, 4153
271.2225, 4169
271.225, 4183
271.2275, 4146
271.23, 4162
271.2325, 4164
271.235, 4152
271.2375, 4163
271.24, 4173
271.2425, 4173
271.245, 4126
271.2475, 4167
271.25, 4151
271.2525, 4155
271.255, 4167
271.2575, 4177
271.26, 4178
271.2625, 4142
271.265, 4180
271.2675, 4173
271.27, 4174
271.2725, 4179
271.275, 4174
271.2775, 4165
271.28, 4135
271.2825, 4189
271.285, 4185
271.2875, 4193
271.29, 4201
271.2925, 4179
271.295, 4185
271.2975, 4148
271.3, 4207
271.3025, 4191
271.305, 4199
271.3075, 4212
271.31, 4199
271.3125, 4186
271.315, 4171
271.3175, 4171
271.32, 4181
271.3225, 4193
271.325, 4192
271.3275, 4193
271.33, 4172
271.3325, 4144
271.335, 4182
271.3375, 4165
271.34, 4171
271.3425, 4174
271.345, 4174
271.3475, 4183
271.35, 4147
271.3525, 4166
271.355, 4161
271.3575, 4143
271.36, 4159
271.3625, 4161
271.365, 4146
271.3675, 4147
271.37, 4179
271.3725, 4188
271.375, 4193
271.3775, 4185
271.38, 4191
271.3825, 4182
271.385, 4131
271.3875, 4182
271.39, 4167
271.3925, 4159
271.395, 4172
271.3975, 4180
271.4, 4181
271.4025, 4032
271.405, 4195
271.4075, 4189
271.41, 4158
271.4125, 4164
271.415, 4185
271.4175, 4167
271.42, 4131
271.4225, 4170
271.425, 4170
271.4275, 4164
271.43, 4188
271.4325, 4212
271.435, 4197
271.4375, 4152
271.44, 4171
271.4425, 4180
271.445, 4187
271.4475, 4199
271.45, 4198
271.4525, 4189
271.455, 4159
271.4575, 4187
271.46, 4194
271.4625, 4190
271.465, 4206
271.4675, 4196
271.47, 4171
271.4725, 4129
271.475, 4163
271.4775, 4156
271.48, 4155
271.4825, 4175
271.485, 4176
271.4875, 4165
271.49, 4133
271.4925, 4171
271.495, 4167
271.4975, 4154
271.5, 4171
271.5025, 4164
271.505, 4171
271.5075, 4108
271.51, 4169
271.5125, 4179
271.515, 4183
271.5175, 4191
271.52, 4157
271.5225, 4109
271.525, 4054
271.5275, 4076
271.53, 4069
271.5325, 4075
271.535, 4101
271.5375, 4149
271.54, 4131
271.5425, 4114
271.545, 4170
271.5475, 4187
271.55, 4166
271.5525, 4165
271.555, 4173
271.5575, 4175
271.56, 4141
271.5625, 4189
271.565, 4202
271.5675, 4180
271.57, 4196
271.5725, 4216
271.575, 4196
271.5775, 4159
271.58, 4196
271.5825, 4181
271.585, 4172
271.5875, 4175
271.59, 4195
271.5925, 4181
271.595, 4142
271.5975, 4214
271.6, 4206
271.6025, 4199
271.605, 4230
271.6075, 4200
271.61, 4206
271.6125, 4192
271.615, 4218
271.6175, 4231
271.62, 4231
271.6225, 4228
271.625, 4276
271.6275, 4309
271.63, 4344
271.6325, 4392
271.635, 4420
271.6375, 4456
271.64, 4436
271.6425, 4288
271.645, 4099
271.6475, 3833
271.65, 3590
271.6525, 3306
271.655, 2922
271.6575, 2501
271.66, 2056
271.6625, 1853
271.665, 1754
271.6675, 1981
271.67, 2422
271.6725, 3267
271.675, 4233
271.6775, 4821
271.68, 5038
271.6825, 4998
271.685, 4945
271.6875, 4774
271.69, 4664
271.6925, 4567
271.695, 4555
271.6975, 4510
271.7, 4468
271.7025, 4522
271.705, 4507
271.7075, 4526
271.71, 4517
271.7125, 4519
271.715, 4499
271.7175, 4475
271.72, 4492
271.7225, 4462
271.725, 4441
271.7275, 4450
271.73, 4434
271.7325, 4416
271.735, 4399
271.7375, 4424
271.74, 4405
271.7425, 4408
271.745, 4404
271.7475, 4357
271.75, 4336
271.7525, 4296
271.755, 4352
271.7575, 4345
271.76, 4302
271.7625, 4295
271.765, 4291
271.7675, 4308
271.77, 4264
271.7725, 4285
271.775, 4265
271.7775, 4261
271.78, 4250
271.7825, 4256
271.785, 4262
271.7875, 4242
271.79, 4255
271.7925, 4246
271.795, 4259
271.7975, 4244
271.8, 4256
271.8025, 4243
271.805, 4207
271.8075, 4247
271.81, 4243
271.8125, 4226
271.815, 4245
271.8175, 4228
271.82, 4218
271.8225, 4206
271.825, 4241
271.8275, 4227
271.83, 4205
271.8325, 4207
271.835, 4205
271.8375, 4182
271.84, 4050
271.8425, 4225
271.845, 4219
271.8475, 4206
271.85, 4219
271.8525, 4186
271.855, 4204
271.8575, 4186
271.86, 4212
271.8625, 4199
271.865, 4181
271.8675, 4197
271.87, 4223
271.8725, 4189
271.875, 4125
271.8775, 4188
271.88, 4170
271.8825, 4170
271.885, 4192
271.8875, 4197
271.89, 4204
271.8925, 4147
271.895, 4192
271.8975, 4194
271.9, 4191
271.9025, 4192
271.905, 4198
271.9075, 4205
271.91, 4164
271.9125, 4189
271.915, 4203
271.9175, 4201
271.92, 4198
271.9225, 4207
271.925, 4225
271.9275, 4152
271.93, 4213
271.9325, 4194
271.935, 4193
271.9375, 4207
271.94, 4198
271.9425, 4196
271.945, 4142
271.9475, 4186
271.95, 4181
271.9525, 4163
271.955, 4180
271.9575, 4175
271.96, 4161
271.9625, 4155
271.965, 4174
271.9675, 4172
271.97, 4163
271.9725, 4162
271.975, 4166
271.9775, 4175
271.98, 4130
271.9825, 4214
271.985, 4206
271.9875, 4186
271.99, 4201
271.9925, 4196
271.995, 4186
271.9975, 4170
272.0, 4220
272.0025, 4240
272.005, 4205
272.0075, 4207
272.01, 4219
272.0125, 4205
272.015, 4156
272.0175, 4214
272.02, 4203
272.0225, 4214
272.025, 4216
272.0275, 4205
272.03, 4208
272.0325, 4162
272.035, 4196
272.0375, 4207
272.04, 4212
272.0425, 4226
272.045, 4218
272.0475, 4218
272.05, 4157
272.0525, 4187
272.055, 4189
272.0575, 4190
272.06, 4195
272.0625, 4214
272.065, 4189
272.0675, 4161
272.07, 4200
272.0725, 4195
272.075, 4198
272.0775, 4191
272.08, 4201
272.0825, 4189
272.085, 4165
272.0875, 4193
272.09, 4174
272.0925, 4157
272.095, 4165
272.0975, 4161
272.1, 4184
272.1025, 4132
272.105, 4198
272.1075, 4185
272.11, 4190
272.1125, 4173
272.115, 4191
272.1175, 4179
272.12, 4039
272.1225, 4191
272.125, 4178
272.1275, 4165
272.13, 4170
272.1325, 4163
272.135, 4156
272.1375, 4130
272.14, 4168
272.1425, 4166
272.145, 4172
272.1475, 4165
272.15, 4159
272.1525, 4147
272.155, 4100
272.1575, 4145
272.16, 4149
272.1625, 4154
272.165, 4159
272.1675, 4187
272.17, 4171
272.1725, 4126
272.175, 4173
272.1775, 4158
272.18, 4153
272.1825, 4164
272.185, 4177
272.1875, 4167
272.19, 4134
272.1925, 4193
272.195, 4177
272.1975, 4169
272.2, 4169
272.2025, 4191
272.205, 4185
272.2075, 4142
272.21, 4163
272.2125, 4146
272.215, 4134
272.2175, 4138
272.22, 4141
272.2225, 4148
272.225, 4119
272.2275, 4167
272.23, 4165
272.2325, 4155
272.235, 4166
272.2375, 4161
272.24, 4161
272.2425, 4143
272.245, 4190
272.2475, 4193
272.25, 4178
272.2525, 4152
272.255, 4161
272.2575, 4157
272.26, 4130
272.2625, 4154
272.265, 4153
272.2675, 4148
272.27, 4156
272.2725, 4184
272.275, 4168
272.2775, 4131
272.28, 4159
272.2825, 4155
272.285, 4143
272.2875, 4141
272.29, 4130
272.2925, 4138
272.295, 4110
272.2975, 4144
272.3, 4149
272.3025, 4151
272.305, 4166
272.3075, 4169
272.31, 4160
272.3125, 4147
272.315, 4177
272.3175, 4153
272.32, 4140
272.3225, 4167
272.325, 4151
272.3275, 4136
272.33, 4105
272.3325, 4167
272.335, 4178
272.3375, 4159
272.34, 4185
272.3425, 4177
272.345, 4172
272.3475, 4133
272.35, 4166
272.3525, 4176
272.355, 4148
272.3575, 4158
272.36, 4161
272.3625, 4169
272.365, 4149
272.3675, 4181
272.37, 4163
272.3725, 4174
272.375, 4185
272.3775, 4152
272.38, 4151
272.3825, 4117
272.385, 4164
272.3875, 4167
272.39, 4162
272.3925, 4166
272.395, 4184
272.3975, 4163
272.4, 4118
272.4025, 4192
272.405, 4199
272.4075, 4176
272.41, 4205
272.4125, 4199
272.415, 4221
272.4175, 4168
272.42, 4211
272.4225, 4195
272.425, 4195
272.4275, 4172
272.43, 4137
272.4325, 4136
272.435, 4110
272.4375, 4168
272.44, 4190
272.4425, 4164
272.445, 4158
272.4475, 4158
272.45, 4149
272.4525, 4121
272.455, 4183
272.4575, 4178
272.46, 4157
272.4625, 4174
272.465, 4167
272.4675, 4163
272.47, 3985
272.4725, 4149
272.475, 4164
272.4775, 4142
272.48, 4160
272.4825, 4157
272.485, 4185
272.4875, 4150
272.49, 4176
272.4925, 4162
272.495, 4144
272.4975, 4180
272.5, 4155
272.5025, 4151
272.505, 4125
272.5075, 4184
272.51, 4165
272.5125, 4171
272.515, 4169
272.5175, 4171
272.52, 4154
272.5225, 4119
272.525, 4160
272.5275, 4150
272.53, 4138
272.5325, 4153
272.535, 4167
272.5375, 4148
272.54, 4132
272.5425, 4158
272.545, 4165
272.5475, 4145
272.55, 4170
272.5525, 4169
272.555, 4152
272.5575, 4117
272.56, 4163
272.5625, 4154
272.565, 4144
272.5675, 4163
272.57, 4172
272.5725, 4158
272.575, 4130
272.5775, 4173
272.58, 4166
272.5825, 4149
272.585, 4186
272.5875, 4186
272.59, 4165
272.5925, 4119
272.595, 4168
272.5975, 4185
272.6, 4178
272.6025, 4180
272.605, 4189
272.6075, 4174
272.61, 4136
272.6125, 4168
272.615, 4147
272.6175, 4164
272.62, 4194
272.6225, 4204
272.625, 4184
272.6275, 4154
272.63, 4192
272.6325, 4198
272.635, 4150
272.6375, 4156
272.64, 4118
272.6425, 4099
272.645, 4020
272.6475, 4077
272.65, 4085
272.6525, 4104
272.655, 4097
272.6575, 4117
272.66, 4115
272.6625, 4090
272.665, 4167
272.6675, 4163
272.67, 4192
272.6725, 4202
272.675, 4179
272.6775, 4181
272.68, 4155
272.6825, 4201
272.685, 4188
272.6875, 4166
272.69, 4169
272.6925, 4157
272.695, 4154
272.6975, 4121
272.7, 4174
272.7025, 4176
272.705, 4200
272.7075, 4192
272.71, 4191
272.7125, 4177
272.715, 4128
272.7175, 4149
272.72, 4146
272.7225, 4141
272.725, 4123
272.7275, 4158
272.73, 4151
272.7325, 4126
272.735, 4183
272.7375, 4216
272.74, 4300
272.7425, 4386
272.745, 4425
272.7475, 4443
272.75, 4419
272.7525, 4481
272.755, 4345
272.7575, 4117
272.76, 3886
272.7625, 3594
272.765, 3293
272.7675, 2871
272.77, 2470
272.7725, 1946
272.775, 1677
272.7775, 1666
272.78, 1787
272.7825, 2393
272.785, 3274
272.7875, 4145
272.79, 4653
272.7925, 4891
272.795, 4900
272.7975, 4795
272.8, 4665
272.8025, 4520
272.805, 4547
272.8075, 4537
272.81, 4502
272.8125, 4491
272.815, 4487
272.8175, 4509
272.82, 4475
272.8225, 4516
272.825, 4521
272.8275, 4502
272.83, 4487
272.8325, 4488
272.835, 4474
272.8375, 4435
272.84, 4464
272.8425, 4438
272.845, 4434
272.8475, 4450
272.85, 4419
272.8525, 4414
272.855, 4369
272.8575, 4416
272.86, 4409
272.8625, 4399
272.865, 4394
272.8675, 4397
272.87, 4410
272.8725, 4342
272.875, 4379
272.8775, 4379
272.88, 4359
272.8825, 4352
272.885, 4362
272.8875, 4349
272.89, 4305
272.8925, 4332
272.895, 4318
272.8975, 4306
272.9, 4301
272.9025, 4290
272.905, 4266
272.9075, 4241
272.91, 4284
272.9125, 4277
272.915, 4268
272.9175, 4270
272.92, 4253
272.9225, 4253
272.925, 4213
272.9275, 4243
272.93, 4242
272.9325, 4220
272.935, 4235
272.9375, 4227
272.94, 4233
272.9425, 4176
272.945, 4215
272.9475, 4214
272.95, 4230
272.9525, 4230
272.955, 4221
272.9575, 4228
272.96, 4189
272.9625, 4246
272.965, 4213
272.9675, 4237
272.97, 4213
272.9725, 4227
272.975, 4222
272.9775, 4187
272.98, 4226
272.9825, 4239
272.985, 4230
272.9875, 4231
272.99, 4231
272.9925, 4233
272.995, 4188
272.9975, 4241
273.0, 4233
273.0025, 4200
273.005, 4226
273.0075, 4216
273.01, 4210
273.0125, 4205
273.015, 4199
273.0175, 4222
273.02, 4202
273.0225, 4210
273.025, 4198
273.0275, 4192
273.03, 4143
273.0325, 4200
273.035, 4211
273.0375, 4211
273.04, 4199
273.0425, 4213
273.045, 4190
273.0475, 4148
273.05, 4163
273.0525, 4156
273.055, 4155
273.0575, 4181
273.06, 4171
273.0625, 4157
273.065, 4108
273.0675, 4113
273.07, 4110
273.0725, 4092
273.075, 4098
273.0775, 4090
273.08, 4093
273.0825, 4043
273.085, 4101
273.0875, 4103
273.09, 4090
273.0925, 4101
273.095, 4109
273.0975, 4133
273.1, 4051
273.1025, 4129
273.105, 4133
273.1075, 4124
273.11, 4148
273.1125, 4149
273.115, 4147
273.1175, 4119
273.12, 4190
273.1225, 4154
273.125, 4167
273.1275, 4147
273.13, 4164
273.1325, 4160
273.135, 4112
273.1375, 4158
273.14, 4164
273.1425, 4170
273.145, 4195
273.1475, 4206
273.15, 4192
273.1525, 4162
273.155, 4194
273.1575, 4187
273.16, 4182
273.1625, 4197
273.165, 4197
273.1675, 4186
273.17, 4155
273.1725, 4201
273.175, 4202
273.1775, 4192
273.18, 4199
273.1825, 4218
273.185, 4207
273.1875, 4159
273.19, 4191
273.1925, 4186
273.195, 4157
273.1975, 4133
273.2, 4145
273.2025, 4153
273.205, 4015
273.2075, 4182
273.21, 4169
273.2125, 4156
273.215, 4171
273.2175, 4178
273.22, 4177
273.2225, 4122
273.225, 4156
273.2275, 4150
273.23, 4118
273.2325, 4135
273.235, 4150
273.2375, 4155
273.24, 4127
273.2425, 4142
273.245, 4132
273.2475, 4132
273.25, 4141
273.2525, 4154
273.255, 4126
273.2575, 4092
273.26, 4150
273.2625, 4160
273.265, 4155
273.2675, 4145
273.27, 4149
273.2725, 4137
273.275, 4104
273.2775, 4163
273.28, 4166
273.2825, 4146
273.285, 4183
273.2875, 4163
273.29, 4153
273.2925, 4118
273.295, 4163
273.2975, 4146
273.3, 4124
273.3025, 4155
273.305, 4149
273.3075, 4138
273.31, 4123
273.3125, 4161
273.315, 4174
273.3175, 4151
273.32, 4148
273.3225, 4152
273.325, 4146
273.3275, 4130
273.33, 4169
273.3325, 4150
273.335, 4168
273.3375, 4174
273.34, 4179
273.3425, 4165
273.345, 4133
273.3475, 4152
273.35, 4168
273.3525, 4170
273.355, 4159
273.3575, 4182
273.36, 4153
273.3625, 4114
273.365, 4161
273.3675, 4151
273.37, 4124
273.3725, 4139
273.375, 4154
273.3775, 4174
273.38, 4133
273.3825, 4188
273.385, 4190
273.3875, 4176
273.39, 4155
273.3925, 4175
273.395, 4164
273.3975, 4117
273.4, 4150
273.4025, 4171
273.405, 4156
273.4075, 4137
273.41, 4160
273.4125, 4163
273.415, 4140
273.4175, 4178
273.42, 4166
273.4225, 4154
273.425, 4171
273.4275, 4187
273.43, 4182
273.4325, 4167
273.435, 4201
273.4375, 4192
273.44, 4183
273.4425, 4188
273.445, 4215
273.4475, 4200
273.45, 4139
273.4525, 4187
273.455, 4185
273.4575, 4192
273.46, 4201
273.4625, 4192
273.465, 4208
273.4675, 4175
273.47, 4164
273.4725, 4149
273.475, 4177
273.4775, 4173
273.48, 4176
273.4825, 4138
273.485, 4108
273.4875, 4161
273.49, 4156
273.4925, 4147
273.495, 4143
273.4975, 4159
273.5, 4176
273.5025, 4050
273.505, 4206
273.5075, 4202
273.51, 4187
273.5125, 4196
273.515, 4154
273.5175, 4170
273.52, 4127
273.5225, 4183
273.525, 4155
273.5275, 4168
273.53, 4137
273.5325, 4155
273.535, 4166
273.5375, 4126
273.54, 4172
273.5425, 4126
273.545, 4148
273.5475, 4146
273.55, 4160
273.5525, 4174
273.555, 4052
273.5575, 4210
273.56, 4199
273.5625, 4164
273.565, 4177
273.5675, 4163
273.57, 4173
273.5725, 4137
273.575, 4154
273.5775, 4162
273.58, 4169
273.5825, 4190
273.585, 4175
273.5875, 4151
273.59, 4089
273.5925, 4157
273.595, 4145
273.5975, 4130
273.6, 4146
273.6025, 4172
273.605, 4160
273.6075, 4114
273.61, 4145
273.6125, 4157
273.615, 4133
273.6175, 4146
273.62, 4182
273.6225, 4177
273.625, 4136
273.6275, 4176
273.63, 4193
273.6325, 4194
273.635, 4186
273.6375, 4179
273.64, 4166
273.6425, 4156
273.645, 4200
273.6475, 4186
273.65, 4188
273.6525, 4197
273.655, 4199
273.6575, 4192
273.66, 4155
273.6625, 4198
273.665, 4189
273.6675, 4183
273.67, 4199
273.6725, 4212
273.675, 4216
273.6775, 4152
273.68, 4202
273.6825, 4203
273.685, 4175
273.6875, 4168
273.69, 4169
273.6925, 4181
273.695, 4145
273.6975, 4189
273.7, 4182
273.7025, 4167
273.705, 4194
273.7075, 4206
273.71, 4191
273.7125, 4157
273.715, 4179
273.7175, 4189
273.72, 4166
273.7225, 4177
273.725, 4187
273.7275, 4185
273.73, 4136
273.7325, 4178
273.735, 4177
273.7375, 4181
273.74, 4191
273.7425, 4193
273.745, 4194
273.7475, 4133
273.75, 4159
273.7525, 4136
273.755, 4123
273.7575, 4132
273.76, 4111
273.7625, 4083
273.765, 4090
273.7675, 4116
273.77, 4136
273.7725, 4140
273.775, 4164
273.7775, 4159
273.78, 4161
273.7825, 4142
273.785, 4208
273.7875, 4198
273.79, 4214
273.7925, 4200
273.795, 4198
273.7975, 4216
273.8, 4169
273.8025, 4207
273.805, 4197
273.8075, 4177
273.81, 4175
273.8125, 4191
273.815, 4193
273.8175, 4172
273.82, 4186
273.8225, 4192
273.825, 4189
273.8275, 4202
273.83, 4209
273.8325, 4224
273.835, 4160
273.8375, 4195
273.84, 4192
273.8425, 4175
273.845, 4166
273.8475, 4171
273.85, 4200
273.8525, 4166
273.855, 4263
273.8575, 4326
273.86, 4381
273.8625, 4414
273.865, 4458
273.8675, 4484
273.87, 4351
273.8725, 4241
273.875, 4018
273.8775, 3795
273.88, 3479
273.8825, 3209
273.885, 2808
273.8875, 2287
273.89, 1990
273.8925, 1792
273.895, 1848
273.8975, 2127
273.9, 2747
273.9025, 3655
273.905, 4482
273.9075, 4919
273.91, 5056
273.9125, 5047
273.915, 4904
273.9175, 4746
273.92, 4667
273.9225, 4566
273.925, 4575
273.9275, 4535
273.93, 4521
273.9325, 4502
273.935, 4493
273.9375, 4500
273.94, 4475
273.9425, 4515
273.945, 4517
273.9475, 4500
273.95, 4480
273.9525, 4459
273.955, 4444
273.9575, 4384
273.96, 4411
273.9625, 4411
273.965, 4405
273.9675, 4393
273.97, 4412
273.9725, 4378
273.975, 4329
273.9775, 4344
273.98, 4324
273.9825, 4324
273.985, 4328
273.9875, 4340
273.99, 4336
273.9925, 4269
273.995, 4321
273.9975, 4283
274.0, 4268
274.0025, 4259
274.005, 4237
274.0075, 4265
274.01, 4152
274.0125, 4273
274.015, 4265
274.0175, 4264
274.02, 4236
274.0225, 4262
274.025, 4232
274.0275, 4188
274.03, 4220
274.0325, 4224
274.035, 4225
274.0375, 4239
274.04, 4238
274.0425, 4239
274.045, 4183
274.0475, 4232
274.05, 4188
274.0525, 4182
274.055, 4213
274.0575, 4207
274.06, 4200
274.0625, 4177
274.065, 4221
274.0675, 4186
274.07, 4171
274.0725, 4170
274.075, 4185
274.0775, 4185
274.08, 4137
274.0825, 4188
274.085, 4170
274.0875, 4163
274.09, 4184
274.0925, 4184
274.095, 4174
274.0975, 4163
274.1, 4201
274.1025, 4188
274.105, 4174
274.1075, 4156
274.11, 4177
274.1125, 4187
274.115, 4166
274.1175, 4191
274.12, 4193
274.1225, 4209
274.125, 4229
274.1275, 4197
274.13, 4182
274.1325, 4138
274.135, 4189
274.1375, 4173
274.14, 4180
274.1425, 4180
274.145, 4190
274.1475, 4164
274.15, 4139
274.1525, 4185
274.155, 4178
274.1575, 4163
274.16, 4175
274.1625, 4164
274.165, 4170
274.1675, 4159
274.17, 4189
274.1725, 4155
274.175, 4156
274.1775, 4154
274.18, 4159
274.1825, 4161
274.185, 4137
274.1875, 4170
274.19, 4155
274.1925, 4155
274.195, 4183
274.1975, 4189
274.2, 4160
274.2025, 4118
274.205, 4168
274.2075, 4176
274.21, 4183
274.2125, 4199
274.215, 4200
274.2175, 4212
274.22, 4165
274.2225, 4226
274.225, 4210
274.2275, 4218
274.23, 4236
274.2325, 4244
274.235, 4240
274.2375, 4181
274.24, 4251
274.2425, 4247
274.245, 4243
274.2475, 4235
274.25, 4253
274.2525, 4242
274.255, 4209
274.2575, 4248
274.26, 4244
274.2625, 4249
274.265, 4238
274.2675, 4244
274.27, 4242
274.2725, 4198
274.275, 4241
274.2775, 4233
274.28, 4240
274.2825, 4240
274.285, 4258
274.2875, 4241
274.29, 4189
274.2925, 4220
274.295, 4221
274.2975, 4207
274.3, 4215
274.3025, 4222
274.305, 4214
274.3075, 4170
274.31, 4206
274.3125, 4211
274.315, 4159
274.3175, 4175
274.32, 4190
274.3225, 4177
274.325, 4152
274.3275, 4172
274.33, 4159
274.3325, 4168
274.335, 4175
274.3375, 4187
274.34, 4173
274.3425, 4172
274.345, 4184
274.3475, 4196
274.35, 4187
274.3525, 4193
274.355, 4177
274.3575, 4181
274.36, 4167
274.3625, 4207
274.365, 4212
274.3675, 4204
274.37, 4182
274.3725, 4168
274.375, 4155
274.3775, 4113
274.38, 4188
274.3825, 4178
274.385, 4163
274.3875, 4158
274.39, 4160
274.3925, 4160
274.395, 4129
274.3975, 4181
274.4, 4192
274.4025, 4164
274.405, 4172
274.4075, 4166
274.41, 4189
274.4125, 4131
274.415, 4176
274.4175, 4156
274.42, 4156
274.4225, 4166
274.425, 4200
274.4275, 4185
274.43, 4152
274.4325, 4192
274.435, 4180
274.4375, 4188
274.44, 4191
274.4425, 4186
274.445, 4176
274.4475, 4128
274.45, 4178
274.4525, 4169
274.455, 4197
274.4575, 4185
274.46, 4176
274.4625, 4153
274.465, 4112
274.4675, 4154
274.47, 4159
274.4725, 4143
274.475, 4117
274.4775, 4148
274.48, 4143
274.4825, 4099
274.485, 4157
274.4875, 4148
274.49, 4146
274.4925, 4165
274.495, 4173
274.4975, 4151
274.5, 4096
274.5025, 4148
274.505, 4157
274.5075, 4142
274.51, 4155
274.5125, 4151
274.515, 4147
274.5175, 4132
274.52, 4137
274.5225, 4138
274.525, 4123
274.5275, 4131
274.53, 4119
274.5325, 4110
274.535, 4083
274.5375, 4164
274.54, 4158
274.5425, 4139
274.545, 4152
274.5475, 4168
274.55, 4182
274.5525, 4125
274.555, 4182
274.5575, 4155
274.56, 4172
274.5625, 4186
274.565, 4184
274.5675, 4151
274.57, 4098
274.5725, 4166
274.575, 4179
274.5775, 4155
274.58, 4158
274.5825, 4167
274.585, 4160
274.5875, 4128
274.59, 4174
274.5925, 4169
274.595, 4172
274.5975, 4176
274.6, 4180
274.6025, 4181
274.605, 4114
274.6075, 4147
274.61, 4142
274.6125, 4174
274.615, 4156
274.6175, 4177
274.62, 4170
274.6225, 4117
274.625, 4173
274.6275, 4161
274.63, 4136
274.6325, 4145
274.635, 4172
274.6375, 4176
274.64, 4126
274.6425, 4170
274.645, 4166
274.6475, 4158
274.65, 4148
274.6525, 4142
274.655, 4136
274.6575, 4001
274.66, 4155
274.6625, 4160
274.665, 4139
274.6675, 4137
274.67, 4142
274.6725, 4138
274.675, 4089
274.6775, 4138
274.68, 4128
274.6825, 4140
274.685, 4139
274.6875, 4150
274.69, 4168
274.6925, 4151
274.695, 4176
274.6975, 4169
274.7, 4184
274.7025, 4153
274.705, 4161
274.7075, 4138
274.71, 3989
274.7125, 4153
274.715, 4161
274.7175, 4161
274.72, 4177
274.7225, 4167
274.725, 4152
274.7275, 4014
274.73, 4191
274.7325, 4159
274.735, 4168
274.7375, 4178
274.74, 4183
274.7425, 4157
274.745, 4134
274.7475, 4168
274.75, 4151
274.7525, 4122
274.755, 4163
274.7575, 4160
274.76, 4159
274.7625, 4151
274.765, 4186
274.7675, 4201
274.77, 4171
274.7725, 4148
274.775, 4118
274.7775, 4126
274.78, 4082
274.7825, 4124
274.785, 4100
274.7875, 4097
274.79, 4117
274.7925, 4123
274.795, 4132
274.7975, 4116
274.8, 4156
274.8025, 4157
274.805, 4155
274.8075, 4163
274.81, 4168
274.8125, 4149
274.815, 4091
274.8175, 4176
274.82, 4179
274.8225, 4179
274.825, 4153
274.8275, 4162
274.83, 4163
274.8325, 4119
274.835, 4172
274.8375, 4168
274.84, 4166
274.8425, 4174
274.845, 4184
274.8475, 4174
274.85, 4136
274.8525, 4168
274.855, 4183
274.8575, 4177
274.86, 4162
274.8625, 4174
274.865, 4168
274.8675, 4112
274.87, 4172
274.8725, 4166
274.875, 4202
274.8775, 4277
274.88, 4366
274.8825, 4442
274.885, 4419
274.8875, 4503
274.89, 4497
274.8925, 4413
274.895, 4239
274.8975, 4037
274.9, 3756
274.9025, 3378
274.905, 3080
274.9075, 2666
274.91, 2134
274.9125, 1801
274.915, 1660
274.9175, 1756
274.92, 2096
274.9225, 2893
274.925, 3843
274.9275, 4546
274.93, 4908
274.9325, 5011
274.935, 4934
274.9375, 4745
274.94, 4652
274.9425, 4571
274.945, 4563
274.9475, 4537
274.95, 4502
274.9525, 4485
274.955, 4454
274.9575, 4528
274.96, 4504
274.9625, 4501
274.965, 4517
274.9675, 4509
274.97, 4501
274.9725, 4461
274.975, 4501
274.9775, 4496
274.98, 4471
274.9825, 4453
274.985, 4454
274.9875, 4424
274.99, 4394
274.9925, 4427
274.995, 4416
274.9975, 4386
275.0, 4375
275.0025, 4371
275.005, 4384
275.0075, 4322
275.01, 4397
275.0125, 4348
275.015, 4361
275.0175, 4348
275.02, 4357
275.0225, 4347
275.025, 4315
275.0275, 4325
275.03, 4321
275.0325, 4292
275.035, 4292
275.0375, 4280
275.04, 4289
275.0425, 4269
275.045, 4293
275.0475, 4269
275.05, 4276
275.0525, 4271
275.055, 4276
275.0575, 4246
275.06, 4207
275.0625, 4254
275.065, 4247
275.0675, 4259
275.07, 4272
275.0725, 4262
275.075, 4253
275.0775, 4189
275.08, 4244
275.0825, 4253
275.085, 4219
275.0875, 4222
275.09, 4230
275.0925, 4236
275.095, 4210
275.0975, 4237
275.1, 4238
275.1025, 4238
275.105, 4246
275.1075, 4237
275.11, 4209
275.1125, 4177
275.115, 4216
275.1175, 4196
275.12, 4213
275.1225, 4209
275.125, 4231
275.1275, 4215
275.13, 4071
275.1325, 4206
275.135, 4195
275.1375, 4211
275.14, 4201
275.1425, 4201
275.145, 4190
275.1475, 4177
275.15, 4198
275.1525, 4187
275.155, 4198
275.1575, 4187
275.16, 4215
275.1625, 4207
275.165, 4152
275.1675, 4205
275.17, 4190
275.1725, 4165
275.175, 4180
275.1775, 4186
275.18, 4198
275.1825, 4143
275.185, 4168
275.1875, 4185
275.19, 4166
275.1925, 4150
275.195, 4144
275.1975, 4159
275.2, 4113
275.2025, 4118
275.205, 4132
275.2075, 4123
275.21, 4098
275.2125, 4101
275.215, 4090
275.2175, 4061
275.22, 4130
275.2225, 4112
275.225, 4098
275.2275, 4102
275.23, 4124
275.2325, 4131
275.235, 4116
275.2375, 4154
275.24, 4168
275.2425, 4161
275.245, 4147
275.2475, 4166
275.25, 4188
275.2525, 4156
275.255, 4194
275.2575, 4184
275.26, 4192
275.2625, 4205
275.265, 4203
275.2675, 4200
275.27, 4179
275.2725, 4205
275.275, 4210
275.2775, 4190
275.28, 4207
275.2825, 4229
275.285, 4210
275.2875, 4156
275.29, 4198
275.2925, 4191
275.295, 4187
275.2975, 4195
275.3, 4193
275.3025, 4205
275.305, 4161
275.3075, 4193
275.31, 4176
275.3125, 4169
275.315, 4195
275.3175, 4177
275.32, 4163
275.3225, 4133
275.325, 4162
275.3275, 4177
275.33, 4186
275.3325, 4172
275.335, 4183
275.3375, 4170
275.34, 4104
275.3425, 4177
275.345, 4177
275.3475, 4173
275.35, 4181
275.3525, 4179
275.355, 4178
275.3575, 4155
275.36, 4188
275.3625, 4192
275.365, 4184
275.3675, 4184
275.37, 4186
275.3725, 4174
275.375, 4043
275.3775, 4201
275.38, 4191
275.3825, 4190
275.385, 4157
275.3875, 4154
275.39, 4161
275.3925, 4130
275.395, 4145
275.3975, 4153
275.4, 4168
275.4025, 4162
275.405, 4155
275.4075, 4164
275.41, 4114
275.4125, 4160
275.415, 4163
275.4175, 4155
275.42, 4159
275.4225, 4180
275.425, 4164
275.4275, 4141
275.43, 4178
275.4325, 4168
275.435, 4171
275.4375, 4168
275.44, 4167
275.4425, 4151
275.445, 4140
275.4475, 4150
275.45, 4174
275.4525, 4157
275.455, 4169
275.4575, 4168
275.46, 4157
275.4625, 4141
275.465, 4192
275.4675, 4182
275.47, 4179
275.4725, 4171
275.475, 4169
275.4775, 4154
275.48, 4113
275.4825, 4178
275.485, 4172
275.4875, 4168
275.49, 4178
275.4925, 4195
275.495, 4166
275.4975, 4109
275.5, 4152
275.5025, 4145
275.505, 4131
275.5075, 4157
275.51, 4141
275.5125, 4135
275.515, 4093
275.5175, 4143
275.52, 4151
275.5225, 4128
275.525, 4111
275.5275, 4146
275.53, 4168
275.5325, 4121
275.535, 4160
275.5375, 4158
275.54, 4180
275.5425, 4169
275.545, 4173
275.5475, 4153
275.55, 4100
275.5525, 4172
275.555, 4162
275.5575, 4168
275.56, 4164
275.5625, 4154
275.565, 4130
275.5675, 4120
275.57, 4149
275.5725, 4172
275.575, 4153
275.5775, 4150
275.58, 4163
275.5825, 4162
275.585, 4103
275.5875, 4167
275.59, 4140
275.5925, 4140
275.595, 4146
275.5975, 4145
275.6, 4152
275.6025, 4107
275.605, 4160
275.6075, 4141
275.61, 4124
275.6125, 4129
275.615, 4135
275.6175, 4128
275.62, 4123
275.6225, 4151
275.625, 4167
275.6275, 4154
275.63, 4165
275.6325, 4170
275.635, 4156
275.6375, 4114
275.64, 4164
275.6425, 4143
275.645, 4161
275.6475, 4184
275.65, 4170
275.6525, 4160
275.655, 4121
275.6575, 4160
275.66, 4174
275.6625, 4179
275.665, 4177
275.6675, 4165
275.67, 4167
275.6725, 4128
275.675, 4158
275.6775, 4159
275.68, 4141
275.6825, 4177
275.685, 4164
275.6875, 4144
275.69, 4109
275.6925, 4160
275.695, 4183
275.6975, 4181
275.7, 4159
275.7025, 4173
275.705, 4178
275.7075, 4114
275.71, 4143
275.7125, 4104
275.715, 4117
275.7175, 4136
275.72, 4141
275.7225, 4151
275.725, 4145
275.7275, 4155
275.73, 4157
275.7325, 4178
275.735, 4171
275.7375, 4174
275.74, 4160
275.7425, 4098
275.745, 4153
275.7475, 4167
275.75, 4161
275.7525, 4180
275.755, 4172
275.7575, 4177
275.76, 4122
275.7625, 4184
275.765, 4197
275.7675, 4192
275.77, 4192
275.7725, 4172
275.775, 4175
275.7775, 4150
275.78, 4208
275.7825, 4192
275.785, 4178
275.7875, 4194
275.79, 4192
275.7925, 4188
275.795, 4136
275.7975, 4159
275.8, 4140
275.8025, 4124
275.805, 4134
275.8075, 4138
275.81, 4114
275.8125, 4068
275.815, 4137
275.8175, 4156
275.82, 4189
275.8225, 4192
275.825, 4202
275.8275, 4167
275.83, 4137
275.8325, 4208
275.835, 4242
275.8375, 4222
275.84, 4238
275.8425, 4238
275.845, 4221
275.8475, 4170
275.85, 4211
275.8525, 4196
275.855, 4173
275.8575, 4181
275.86, 4198
275.8625, 4184
275.865, 4167
275.8675, 4205
275.87, 4181
275.8725, 4190
275.875, 4169
275.8775, 4177
275.88, 4160
275.8825, 4036
275.885, 4195
275.8875, 4187
275.89, 4184
275.8925, 4183
275.895, 4189
275.8975, 4184
275.9, 4212
275.9025, 4302
275.905, 4366
275.9075, 4403
275.91, 4422
275.9125, 4446
275.915, 4475
275.9175, 4359
275.92, 4232
275.9225, 3996
275.925, 3722
275.9275, 3388
275.93, 3092
275.9325, 2727
275.935, 2169
275.9375, 1885
275.94, 1723
275.9425, 1785
275.945, 2144
275.9475, 2880
275.95, 3808
275.9525, 4381
275.955, 4889
275.9575, 5004
275.96, 4950
275.9625, 4812
275.965, 4684
275.9675, 4596
275.97, 4498
275.9725, 4534
275.975, 4500
275.9775, 4484
275.98, 4491
275.9825, 4511
275.985, 4507
275.9875, 4475
275.99, 4510
275.9925, 4494
275.995, 4461
275.9975, 4454
276.0, 4462
276.0025, 4466
276.005, 4419
276.0075, 4458
276.01, 4448
276.0125, 4426
276.015, 4410
276.0175, 4397
276.02, 4395
276.0225, 4363
276.025, 4380
276.0275, 4350
276.03, 4344
276.0325, 4321
276.035, 4323
276.0375, 4326
276.04, 4293
276.0425, 4338
276.045, 4322
276.0475, 4308
276.05, 4296
276.0525, 4285
276.055, 4267
276.0575, 4208
276.06, 4241
276.0625, 4241
276.065, 4247
276.0675, 4250
276.07, 4260
276.0725, 4238
276.075, 4232
276.0775, 4250
276.08, 4234
276.0825, 4232
276.085, 4256
276.0875, 4236
276.09, 4228
276.0925, 4171
276.095, 4232
276.0975, 4226
276.1, 4229
276.1025, 4196
276.105, 4199
276.1075, 4190
276.11, 4155
276.1125, 4193
276.115, 4174
276.1175, 4163
276.12, 4214
276.1225, 4182
276.125, 4196
276.1275, 4155
276.13, 4179
276.1325, 4188
276.135, 4184
276.1375, 4192
276.14, 4200
276.1425, 4199
276.145, 4143
276.1475, 4184
276.15, 4202
276.1525, 4186
276.155, 4199
276.1575, 4194
276.16, 4171
276.1625, 4134
276.165, 4193
276.1675, 4192
276.17, 4192
276.1725, 4176
276.175, 4167
276.1775, 4166
276.18, 4115
276.1825, 4167
276.185, 4148
276.1875, 4133
276.19, 4147
276.1925, 4169
276.195, 4140
276.1975, 4114
276.2, 4164
276.2025, 4148
276.205, 4158
276.2075, 4156
276.21, 4197
276.2125, 4195
276.215, 4127
276.2175, 4157
276.22, 4145
276.2225, 4113
276.225, 4112
276.2275, 4124
276.23, 4110
276.2325, 4070
276.235, 4130
276.2375, 4118
276.24, 4138
276.2425, 4144
276.245, 4184
276.2475, 4165
276.25, 4128
276.2525, 4202
276.255, 4203
276.2575, 4202
276.26, 4212
276.2625, 4225
276.265, 4190
276.2675, 4180
276.27, 4224
276.2725, 4234
276.275, 4218
276.2775, 4222
276.28, 4248
276.2825, 4239
276.285, 4092
276.2875, 4257
276.29, 4240
276.2925, 4222
276.295, 4229
276.2975, 4222
276.3, 4206
276.3025, 4165
276.305, 4219
276.3075, 4239
276.31, 4223
276.3125, 4244
276.315, 4226
276.3175, 4203
276.32, 4200
276.3225, 4225
276.325, 4205
276.3275, 4205
276.33, 4198
276.3325, 4204
276.335, 4198
276.3375, 4132
276.34, 4217
276.3425, 4190
276.345, 4180
276.3475, 4169
276.35, 4206
276.3525, 4185
276.355, 4130
276.3575, 4195
276.36, 4203
276.3625, 4182
276.365, 4172
276.3675, 4190
276.37, 4147
276.3725, 4152
276.375, 4187
276.3775, 4190
276.38, 4161
276.3825, 4178
276.385, 4155
276.3875, 4146
276.39, 4101
276.3925, 4149
276.395, 4151
276.3975, 4146
276.4, 4145
276.4025, 4158
276.405, 4155
276.4075, 4120
276.41, 4184
276.4125, 4192
276.415, 4193
276.4175, 4156
276.42, 4170
276.4225, 4184
276.425, 4141
276.4275, 4187
276.43, 4158
276.4325, 4153
276.435, 4167
276.4375, 4169
276.44, 4169
276.4425, 4129
276.445, 4165
276.4475, 4164
276.45, 4170
276.4525, 4148
276.455, 4160
276.4575, 4167
276.46, 4151
276.4625, 4185
276.465, 4190
276.4675, 4186
276.47, 4204
276.4725, 4205
276.475, 4187
276.4775, 4156
276.48, 4176
276.4825, 4157
276.485, 4147
276.4875, 4175
276.49, 4177
276.4925, 4199
276.495, 4140
276.4975, 4214
276.5, 4214
276.5025, 4188
276.505, 4173
276.5075, 4163
276.51, 4157
276.5125, 4119
276.515, 4193
276.5175, 4189
276.52, 4175
276.5225, 4185
276.525, 4192
276.5275, 4180
276.53, 4045
276.5325, 4169
276.535, 4185
276.5375, 4173
276.54, 4160
276.5425, 4165
276.545, 4145
276.5475, 4118
276.55, 4170
276.5525, 4162
276.555, 4159
276.5575, 4162
276.56, 4188
276.5625, 4153
276.565, 4003
276.5675, 4193
276.57, 4164
276.5725, 4149
276.575, 4158
276.5775, 4159
276.58, 4158
276.5825, 4109
276.585, 4196
276.5875, 4198
276.59, 4196
276.5925, 4199
276.595, 4177
276.5975, 4199
276.6, 4139
276.6025, 4162
276.605, 4158
276.6075, 4183
276.61, 4187
276.6125, 4198
276.615, 4188
276.6175, 4164
276.62, 4155
276.6225, 4168
276.625, 4156
276.6275, 4171
276.63, 4184
276.6325, 4183
276.635, 4131
276.6375, 4172
276.64, 4176
276.6425, 4154
276.645, 4159
276.6475, 4148
276.65, 4146
276.6525, 4110
276.655, 4179
276.6575, 4190
276.66, 4179
276.6625, 4197
276.665, 4183
276.6675, 4170
276.67, 4114
276.6725, 4174
276.675, 4184
276.6775, 4181
276.68, 4164
276.6825, 4183
276.685, 4158
276.6875, 4121
276.69, 4160
276.6925, 4178
276.695, 4167
276.6975, 4193
276.7, 4190
276.7025, 4188
276.705, 4137
276.7075, 4175
276.71, 4182
276.7125, 4177
276.715, 4178
276.7175, 4187
276.72, 4158
276.7225, 4132
276.725, 4171
276.7275, 4170
276.73, 4181
276.7325, 4167
276.735, 4191
276.7375, 4195
276.74, 4159
276.7425, 4173
276.745, 4166
276.7475, 4158
276.75, 4167
276.7525, 4188
276.755, 4191
276.7575, 4144
276.76, 4159
276.7625, 4152
276.765, 4134
276.7675, 4141
276.77, 4137
276.7725, 4146
276.775, 4114
276.7775, 4144
276.78, 4141
276.7825, 4126
276.785, 4161
276.7875, 4160
276.79, 4162
276.7925, 4119
276.795, 4192
276.7975, 4204
276.8, 4199
276.8025, 4215
276.805, 4227
276.8075, 4208
276.81, 4141
276.8125, 4219
276.815, 4197
276.8175, 4197
276.82, 4191
276.8225, 4194
276.825, 4195
276.8275, 4157
276.83, 4196
276.8325, 4168
276.835, 4187
276.8375, 4196
276.84, 4209
276.8425, 4209
276.845, 4168
276.8475, 4215
276.85, 4193
276.8525, 4190
276.855, 4179
276.8575, 4191
276.86, 4182
276.8625, 4143
276.865, 4192
276.8675, 4237
276.87, 4302
276.8725, 4375
276.875, 4400
276.8775, 4432
276.88, 4388
276.8825, 4398
276.885, 4255
276.8875, 4056
276.89, 3834
276.8925, 3555
276.895, 3265
276.8975, 2850
276.9, 2391
276.9025, 1945
276.905, 1732
276.9075, 1697
276.91, 1935
276.9125, 2484
276.915, 3352
276.9175, 4347
276.92, 4854
276.9225, 5040
276.925, 5039
276.9275, 4913
276.93, 4733
276.9325, 4601
276.935, 4592
276.9375, 4572
276.94, 4536
276.9425, 4505
276.945, 4508
276.9475, 4501
276.95, 4479
276.9525, 4520
276.955, 4499
276.9575, 4494
276.96, 4488
276.9625, 4478
276.965, 4469
276.9675, 4421
276.97, 4453
276.9725, 4441
276.975, 4464
276.9775, 4443
276.98, 4417
276.9825, 4365
276.985, 4324
276.9875, 4379
276.99, 4351
276.9925, 4376
276.995, 4377
276.9975, 4361
277.0, 4364
277.0025, 4308
277.005, 4339
277.0075, 4334
277.01, 4313
277.0125, 4312
277.015, 4291
277.0175, 4288
277.02, 4238
277.0225, 4283
277.025, 4295
277.0275, 4274
277.03, 4258
277.0325, 4274
277.035, 4256
277.0375, 4221
277.04, 4251
277.0425, 4242
277.045, 4250
277.0475, 4253
277.05, 4257
277.0525, 4244
277.055, 4181
277.0575, 4220
277.06, 4242
277.0625, 4227
277.065, 4226
277.0675, 4208
277.07, 4234
277.0725, 4192
277.075, 4237
277.0775, 4239
277.08, 4216
277.0825, 4237
277.085, 4228
277.0875, 4208
277.09, 4156
277.0925, 4197
277.095, 4185
277.0975, 4181
277.1, 4180
277.1025, 4160
277.105, 4187
277.1075, 4153
277.11, 4206
277.1125, 4221
277.115, 4200
277.1175, 4195
277.12, 4206
277.1225, 4198
277.125, 4152
277.1275, 4182
277.13, 4189
277.1325, 4198
277.135, 4215
277.1375, 4203
277.14, 4202
277.1425, 4147
277.145, 4195
277.1475, 4177
277.15, 4163
277.1525, 4151
277.155, 4155
277.1575, 4147
277.16, 4119
277.1625, 4177
277.165, 4175
277.1675, 4156
277.17, 4155
277.1725, 4134
277.175, 4125
277.1775, 4089
277.18, 4151
277.1825, 4126
277.185, 4096
277.1875, 4085
277.19, 4087
277.1925, 4096
277.195, 4064
277.1975, 4113
277.2, 4106
277.2025, 4110
277.205, 4109
277.2075, 4113
277.21, 4122
277.2125, 4093
277.215, 4150
277.2175, 4162
277.22, 4141
277.2225, 4140
277.225, 4146
277.2275, 4129
277.23, 4104
277.2325, 4159
277.235, 4163
277.2375, 4179
277.24, 4194
277.2425, 4192
277.245, 4173
277.2475, 4169
277.25, 4202
277.2525, 4196
277.255, 4195
277.2575, 4203
277.26, 4210
277.2625, 4218
277.265, 4142
277.2675, 4216
277.27, 4203
277.2725, 4213
277.275, 4223
277.2775, 4204
277.28, 4219
277.2825, 4089
277.285, 4236
277.2875, 4215
277.29, 4207
277.2925, 4212
277.295, 4203
277.2975, 4203
277.3, 4157
277.3025, 4171
277.305, 4176
277.3075, 4174
277.31, 4191
277.3125, 4186
277.315, 4195
277.3175, 4148
277.32, 4178
277.3225, 4183
277.325, 4183
277.3275, 4186
277.33, 4196
277.3325, 4181
277.335, 4151
277.3375, 4196
277.34, 4190
277.3425, 4188
277.345, 4193
277.3475, 4191
277.35, 4188
277.3525, 4143
277.355, 4196
277.3575, 4187
277.36, 4190
277.3625, 4177
277.365, 4180
277.3675, 4163
277.37, 4135
277.3725, 4178
277.375, 4177
277.3775, 4175
277.38, 4177
277.3825, 4182
277.385, 4184
277.3875, 4160
277.39, 4186
277.3925, 4169
277.395, 4197
277.3975, 4194
277.4, 4197
277.4025, 4173
277.405, 4134
277.4075, 4202
277.41, 4202
277.4125, 4189
277.415, 4167
277.4175, 4167
277.42, 4158
277.4225, 4109
277.425, 4157
277.4275, 4162
277.43, 4162
277.4325, 4149
277.435, 4172
277.4375, 4175
277.44, 4116
277.4425, 4177
277.445, 4172
277.4475, 4159
277.45, 4154
277.4525, 4147
277.455, 4153
277.4575, 4102
277.46, 4157
277.4625, 4171
277.465, 4168
277.4675, 4168
277.47, 4156
277.4725, 4172
277.475, 4146
277.4775, 4158
277.48, 4136
277.4825, 4139
277.485, 4157
277.4875, 4153
277.49, 4161
277.4925, 4115
277.495, 4181
277.4975, 4170
277.5, 4155
277.5025, 4155
277.505, 4160
277.5075, 4129
277.51, 4097
277.5125, 4153
277.515, 4147
277.5175, 4150
277.52, 4152
277.5225, 4138
277.525, 4146
277.5275, 4082
277.53, 4142
277.5325, 4122
277.535, 4103
277.5375, 4120
277.54, 4136
277.5425, 4120
277.545, 4111
277.5475, 4149
277.55, 4134
277.5525, 4135
277.555, 4143
277.5575, 4139
277.56, 4138
277.5625, 4097
277.565, 4150
277.5675, 4149
277.57, 4125
277.5725, 4128
277.575, 4127
277.5775, 4122
277.58, 4083
277.5825, 4119
277.585, 4131
277.5875, 4122
277.59, 4146
277.5925, 4144
277.595, 4155
277.5975, 4127
277.6, 4163
277.6025, 4170
277.605, 4148
277.6075, 4173
277.61, 4161
277.6125, 4153
277.615, 4100
277.6175, 4158
277.62, 4123
277.6225, 4125
277.625, 4130
277.6275, 4129
277.63, 4134
277.6325, 4108
277.635, 4153
277.6375, 4152
277.64, 4152
277.6425, 4140
277.645, 4165
277.6475, 4165
277.65, 4149
277.6525, 4175
277.655, 4152
277.6575, 4141
277.66, 4156
277.6625, 4161
277.665, 4180
277.6675, 4149
277.67, 4190
277.6725, 4196
277.675, 4187
277.6775, 4174
277.68, 4170
277.6825, 4165
277.685, 4129
277.6875, 4159
277.69, 4161
277.6925, 4171
277.695, 4157
277.6975, 4156
277.7, 4163
277.7025, 4110
277.705, 4149
277.7075, 4162
277.71, 4167
277.7125, 4172
277.715, 4172
277.7175, 4168
277.72, 4114
277.7225, 4156
277.725, 4146
277.7275, 4158
277.73, 4159
277.7325, 4159
277.735, 4163
277.7375, 4108
277.74, 4156
277.7425, 4177
277.745, 4198
277.7475, 4171
277.75, 4191
277.7525, 4175
277.755, 4120
277.7575, 4184
277.76, 4186
277.7625, 4166
277.765, 4176
277.7675, 4168
277.77, 4154
277.7725, 4146
277.775, 4181
277.7775, 4188
277.78, 4181
277.7825, 4174
277.785, 4194
277.7875, 4180
277.79, 4135
277.7925, 4194
277.795, 4193
277.7975, 4207
277.8, 4174
277.8025, 4206
277.805, 4182
277.8075, 4159
277.81, 4204
277.8125, 4195
277.815, 4181
277.8175, 4172
277.82, 4191
277.8225, 4172
277.825, 4020
277.8275, 4172
277.83, 4181
277.8325, 4171
277.835, 4168
277.8375, 4158
277.84, 4161
277.8425, 4120
277.845, 4187
277.8475, 4198
277.85, 4185
277.8525, 4182
277.855, 4189
277.8575, 4186
277.86, 4145
277.8625, 4172
277.865, 4148
277.8675, 4159
277.87, 4177
277.8725, 4196
277.875, 4178
277.8775, 4115
277.88, 4169
277.8825, 4191
277.885, 4148
277.8875, 4160
277.89, 4148
277.8925, 4180
277.895, 4123
277.8975, 4170
277.9, 4182
277.9025, 4156
277.905, 4168
277.9075, 4174
277.91, 4172
277.9125, 4135
277.915, 4173
277.9175, 4180
277.92, 4190
277.9225, 4190
277.925, 4175
277.9275, 4160
277.93, 4127
277.9325, 4193
277.935, 4165
277.9375, 4165
277.94, 4172
277.9425, 4181
277.945, 4175
277.9475, 4105
277.95, 4179
277.9525, 4172
277.955, 4179
277.9575, 4176
277.96, 4194
277.9625, 4190
277.965, 4152
277.9675, 4189
277.97, 4184
277.9725, 4160
277.975, 4155
277.9775, 4161
277.98, 4172
277.9825, 4120
277.985, 4153
277.9875, 4164
277.99, 4157
277.9925, 4146
277.995, 4155
277.9975, 4153
278.0, 4027
278.0025, 4199
278.005, 4193
278.0075, 4197
278.01, 4168
278.0125, 4166
278.015, 4174
278.0175, 4120
278.02, 4147
278.0225, 4144
278.025, 4131
278.0275, 4139
278.03, 4153
278.0325, 4157
278.035, 4133
278.0375, 4163
278.04, 4150
278.0425, 4142
278.045, 4119
278.0475, 4105
278.05, 4047
278.0525, 4015
278.055, 4100
278.0575, 4122
278.06, 4113
278.0625, 4142
278.065, 4157
278.0675, 4166
278.07, 4135
278.0725, 4153
278.075, 4157
278.0775, 4176
278.08, 4187
278.0825, 4166
278.085, 4173
278.0875, 4034
278.09, 4188
278.0925, 4179
278.095, 4164
278.0975, 4174
278.1, 4204
278.1025, 4184
278.105, 4161
278.1075, 4212
278.11, 4195
278.1125, 4189
278.115, 4191
278.1175, 4192
278.12, 4193
278.1225, 4161
278.125, 4208
278.1275, 4209
278.13, 4187
278.1325, 4192
278.135, 4196
278.1375, 4207
278.14, 4138
278.1425, 4231
278.145, 4330
278.1475, 4379
278.15, 4415
278.1525, 4451
278.155, 4459
278.1575, 4384
278.16, 4244
278.1625, 4041
278.165, 3770
278.1675, 3442
278.17, 3121
278.1725, 2701
278.175, 2153
278.1775, 1821
278.18, 1655
278.1825, 1725
278.185, 2096
278.1875, 2850
278.19, 3767
278.1925, 4392
278.195, 4812
278.1975, 4905
278.2, 4829
278.2025, 4712
278.205, 4585
278.2075, 4537
278.21, 4504
278.2125, 4564
278.215, 4532
278.2175, 4511
278.22, 4534
278.2225, 4549
278.225, 4540
278.2275, 4508
278.23, 4564
278.2325, 4544
278.235, 4524
278.2375, 4520
278.24, 4512
278.2425, 4487
278.245, 4429
278.2475, 4484
278.25, 4467
278.2525, 4469
278.255, 4424
278.2575, 4424
278.26, 4401
278.2625, 4345
278.265, 4401
278.2675, 4400
278.27, 4390
278.2725, 4383
278.275, 4386
278.2775, 4372
278.28, 4318
278.2825, 4364
278.285, 4353
278.2875, 4346
278.29, 4373
278.2925, 4328
278.295, 4329
278.2975, 4299
278.3, 4332
278.3025, 4327
278.305, 4312
278.3075, 4263
278.31, 4269
278.3125, 4266
278.315, 4223
278.3175, 4259
278.32, 4247
278.3225, 4216
278.325, 4220
278.3275, 4222
278.33, 4252
278.3325, 4215
278.335, 4254
278.3375, 4257
278.34, 4249
278.3425, 4254
278.345, 4238
278.3475, 4237
278.35, 4191
278.3525, 4256
278.355, 4218
278.3575, 4216
278.36, 4238
278.3625, 4257
278.365, 4256
278.3675, 4196
278.37, 4241
278.3725, 4227
278.375, 4206
278.3775, 4217
278.38, 4231
278.3825, 4196
278.385, 4165
278.3875, 4190
278.39, 4210
278.3925, 4196
278.395, 4223
278.3975, 4223
278.4, 4191
278.4025, 4143
278.405, 4194
278.4075, 4178
278.41, 4177
278.4125, 4160
278.415, 4160
278.4175, 4171
278.42, 4132
278.4225, 4168
278.425, 4153
278.4275, 4133
278.43, 4141
278.4325, 4151
278.435, 4165
278.4375, 4142
278.44, 4175
278.4425, 4179
278.445, 4134
278.4475, 4120
278.45, 4140
278.4525, 4158
278.455, 4100
278.4575, 4156
278.46, 4127
278.4625, 4105
278.465, 4113
278.4675, 4111
278.47, 4109
278.4725, 4082
278.475, 4104
278.4775, 4061
278.48, 4057
278.4825, 4066
278.485, 4101
278.4875, 4105
278.49, 4077
278.4925, 4124
278.495, 4143
278.4975, 4154
278.5, 4118
278.5025, 4146
278.505, 4139
278.5075, 4090
278.51, 4155
278.5125, 4160
278.515, 4145
278.5175, 4175
278.52, 4183
278.5225, 4178
278.525, 4153
278.5275, 4227
278.53, 4215
278.5325, 4196
278.535, 4171
278.5375, 4182
278.54, 4178
278.5425, 4151
278.545, 4196
278.5475, 4212
278.55, 4227
278.5525, 4218
278.555, 4248
278.5575, 4229
278.56, 4186
278.5625, 4246
278.565, 4244
278.5675, 4229
278.57, 4219
278.5725, 4225
278.575, 4240
278.5775, 4185
278.58, 4236
278.5825, 4238
278.585, 4226
278.5875, 4220
278.59, 4226
278.5925, 4261
278.595, 4222
278.5975, 4228
278.6, 4217
278.6025, 4227
278.605, 4199
278.6075, 4213
278.61, 4211
278.6125, 4069
278.615, 4200
278.6175, 4199
278.62, 4200
278.6225, 4205
278.625, 4205
278.6275, 4197
278.63, 4179
278.6325, 4204
278.635, 4187
278.6375, 4204
278.64, 4184
278.6425, 4180
278.645, 4163
278.6475, 4142
278.65, 4175
278.6525, 4167
278.655, 4167
278.6575, 4180
278.66, 4181
278.6625, 4212
278.665, 4154
278.6675, 4208
278.67, 4176
278.6725, 4164
278.675, 4180
278.6775, 4164
278.68, 4171
278.6825, 4124
278.685, 4185
278.6875, 4170
278.69, 4139
278.6925, 4175
278.695, 4188
278.6975, 4160
278.7, 4117
278.7025, 4173
278.705, 4183
278.7075, 4189
278.71, 4190
278.7125, 4186
278.715, 4190
278.7175, 4148
278.72, 4194
278.7225, 4194
278.725, 4176
278.7275, 4158
278.73, 4190
278.7325, 4189
278.735, 4049
278.7375, 4214
278.74, 4208
278.7425, 4225
278.745, 4227
278.7475, 4207
278.75, 4201
278.7525, 4143
278.755, 4173
278.7575, 4195
278.76, 4175
278.7625, 4157
278.765, 4160
278.7675, 4177
278.77, 4123
278.7725, 4154
278.775, 4166
278.7775, 4158
278.78, 4145
278.7825, 4179
278.785, 4159
278.7875, 4106
278.79, 4176
278.7925, 4166
278.795, 4168
278.7975, 4162
278.8, 4163
278.8025, 4166
278.805, 4097
278.8075, 4172
278.81, 4150
278.8125, 4151
278.815, 4124
278.8175, 4151
278.82, 4151
278.8225, 4122
278.825, 4151
278.8275, 4161
278.83, 4158
278.8325, 4157
278.835, 4171
278.8375, 4160
278.84, 4095
278.8425, 4157
278.845, 4148
278.8475, 4153
278.85, 4168
278.8525, 4165
278.855, 4164
278.8575, 4100
278.86, 4149
278.8625, 4148
278.865, 4128
278.8675, 4151
278.87, 4173
278.8725, 4199
278.875, 4166
278.8775, 4174
278.88, 4174
278.8825, 4177
278.885, 4161
278.8875, 4164
278.89, 4178
278.8925, 4121
278.895, 4153
278.8975, 4159
278.9, 4141
278.9025, 4149
278.905, 4149
278.9075, 4152
278.91, 4020
278.9125, 4161
278.915, 4179
278.9175, 4175
278.92, 4182
278.9225, 4170
278.925, 4155
278.9275, 4101
278.93, 4170
278.9325, 4177
278.935, 4157
278.9375, 4143
278.94, 4127
278.9425, 4118
278.945, 4027
278.9475, 4162
278.95, 4142
278.9525, 4160
278.955, 4150
278.9575, 4137
278.96, 4164
278.9625, 4127
278.965, 4173
278.9675, 4170
278.97, 4163
278.9725, 4174
278.975, 4187
278.9775, 4171
278.98, 4130
278.9825, 4197
278.985, 4161
278.9875, 4148
278.99, 4152
278.9925, 4166
278.995, 4159
278.9975, 4147
279.0, 4129
279.0025, 4133
279.005, 4161
279.0075, 4145
279.01, 4157
279.0125, 4144
279.015, 4117
279.0175, 4155
279.02, 4152
279.0225, 4146
279.025, 4163
279.0275, 4171
279.03, 4185
279.0325, 4114
279.035, 4173
279.0375, 4182
279.04, 4197
279.0425, 4191
279.045, 4183
279.0475, 4162
279.05, 4118
279.0525, 4168
279.055, 4142
279.0575, 4163
279.06, 4170
279.0625, 4196
279.065, 4171
279.0675, 4140
279.07, 4178
279.0725, 4165
279.075, 4154
279.0775, 4150
279.08, 4135
279.0825, 4138
279.085, 4011
279.0875, 4177
279.09, 4158
279.0925, 4169
279.095, 4149
279.0975, 4155
279.1, 4142
279.1025, 4117
279.105, 4182
279.1075, 4175
279.11, 4143
279.1125, 4154
279.115, 4156
279.1175, 4153
279.12, 4093
279.1225, 4160
279.125, 4161
279.1275, 4176
279.13, 4174
279.1325, 4180
279.135, 4171
279.1375, 4130
279.14, 4171
279.1425, 4173
279.145, 4175
279.1475, 4162
279.15, 4168
279.1525, 4177
279.155, 4133
279.1575, 4173
279.16, 4160
279.1625, 4161
279.165, 4162
279.1675, 4166
279.17, 4159
279.1725, 4106
279.175, 4157
279.1775, 4162
279.18, 4140
279.1825, 4151
279.185, 4158
279.1875, 4146
279.19, 4102
279.1925, 4159
279.195, 4174
279.1975, 4168
279.2, 4163
279.2025, 4155
279.205, 4158
279.2075, 4108
279.21, 4183
279.2125, 4160
279.215, 4155
279.2175, 4165
279.22, 4172
279.2225, 4167
279.225, 4137
279.2275, 4156
279.23, 4183
279.2325, 4165
279.235, 4158
279.2375, 4147
279.24, 4158
279.2425, 4090
279.245, 4128
279.2475, 4096
279.25, 4102
279.2525, 4106
279.255, 4101
279.2575, 4079
279.26, 4073
279.2625, 4157
279.265, 4152
279.2675, 4149
279.27, 4149
279.2725, 4167
279.275, 4186
279.2775, 4136
279.28, 4209
279.2825, 4196
279.285, 4191
279.2875, 4201
279.29, 4205
279.2925, 4210
279.295, 4163
279.2975, 4208
279.3, 4198
279.3025, 4182
279.305, 4190
279.3075, 4206
279.31, 4224
279.3125, 4159
279.315, 4202
279.3175, 4198
279.32, 4190
279.3225, 4194
279.325, 4198
279.3275, 4201
279.33, 4174
279.3325, 4233
279.335, 4210
279.3375, 4215
279.34, 4184
279.3425, 4192
279.345, 4176
279.3475, 4161
279.35, 4257
279.3525, 4329
279.355, 4389
279.3575, 4390
279.36, 4451
279.3625, 4458
279.365, 4338
279.3675, 4230
279.37, 4027
279.3725, 3796
279.375, 3482
279.3775, 3231
279.38, 2820
279.3825, 2285
279.385, 1966
279.3875, 1762
279.39, 1805
279.3925, 2099
279.395, 2698
279.3975, 3614
279.4, 4418
279.4025, 4860
279.405, 4997
279.4075, 4984
279.41, 4855
279.4125, 4722
279.415, 4618
279.4175, 4531
279.42, 4552
279.4225, 4501
279.425, 4489
279.4275, 4510
279.43, 4521
279.4325, 4539
279.435, 4497
279.4375, 4542
279.44, 4524
279.4425, 4517
279.445, 4533
279.4475, 4517
279.45, 4481
279.4525, 4424
279.455, 4459
279.4575, 4436
279.46, 4425
279.4625, 4423
279.465, 4424
279.4675, 4391
279.47, 4336
279.4725, 4400
279.475, 4401
279.4775, 4363
279.48, 4349
279.4825, 4353
279.485, 4342
279.4875, 4291
279.49, 4335
279.4925, 4307
279.495, 4327
279.4975, 4293
279.5, 4311
279.5025, 4283
279.505, 4212
279.5075, 4310
279.51, 4286
279.5125, 4269
279.515, 4268
279.5175, 4268
279.52, 4268
279.5225, 4230
279.525, 4248
279.5275, 4232
279.53, 4229
279.5325, 4248
279.535, 4266
279.5375, 4252
279.54, 4207
279.5425, 4232
279.545, 4240
279.5475, 4203
279.55, 4197
279.5525, 4194
279.555, 4187
279.5575, 4136
279.56, 4193
279.5625, 4198
279.565, 4185
279.5675, 4191
279.57, 4197
279.5725, 4200
279.575, 4175
279.5775, 4196
279.58, 4166
279.5825, 4187
279.585, 4203
279.5875, 4239
279.59, 4211
279.5925, 4170
279.595, 4227
279.5975, 4216
279.6, 4188
279.6025, 4186
279.605, 4166
279.6075, 4162
279.61, 4118
279.6125, 4183
279.615, 4178
279.6175, 4189
279.62, 4178
279.6225, 4183
279.625, 4188
279.6275, 4133
279.63, 4175
279.6325, 4197
279.635, 4208
279.6375, 4190
279.64, 4185
279.6425, 4171
279.645, 4125
279.6475, 4162
279.65, 4164
279.6525, 4154
279.655, 4138
279.6575, 4130
279.66, 4149
279.6625, 4096
279.665, 4132
279.6675, 4123
279.67, 4137
279.6725, 4134
279.675, 4116
279.6775, 4111
279.68, 4053
279.6825, 4123
279.685, 4122
279.6875, 4146
279.69, 4138
279.6925, 4147
279.695, 4146
279.6975, 4111
279.7, 4173
279.7025, 4167
279.705, 4170
279.7075, 4198
279.71, 4186
279.7125, 4210
279.715, 4195
279.7175, 4212
279.72, 4219
279.7225, 4209
279.725, 4210
279.7275, 4231
279.73, 4228
279.7325, 4178
279.735, 4237
279.7375, 4226
279.74, 4225
279.7425, 4229
279.745, 4226
279.7475, 4215
279.75, 4211
279.7525, 4256
279.755, 4240
279.7575, 4225
279.76, 4227
279.7625, 4247
279.765, 4210
279.7675, 4174
279.77, 4222
279.7725, 4218
279.775, 4224
279.7775, 4215
279.78, 4218
279.7825, 4217
279.785, 4180
279.7875, 4216
279.79, 4198
279.7925, 4191
279.795, 4202
279.7975, 4224
279.8, 4222
279.8025, 4181
279.805, 4225
279.8075, 4228
279.81, 4232
279.8125, 4218
279.815, 4217
279.8175, 4196
279.82, 4159
279.8225, 4213
279.825, 4213
279.8275, 4208
279.83, 4179
279.8325, 4181
279.835, 4192
279.8375, 4044
279.84, 4196
279.8425, 4185
279.845, 4172
279.8475, 4174
279.85, 4177
279.8525, 4172
279.855, 4124
279.8575, 4158
279.86, 4162
279.8625, 4132
279.865, 4140
279.8675, 4140
279.87, 4162
279.8725, 4142
279.875, 4169
279.8775, 4148
279.88, 4137
279.8825, 4154
279.885, 4163
279.8875, 4150
279.89, 4135
279.8925, 4192
279.895, 4191
279.8975, 4174
279.9, 4174
279.9025, 4176
279.905, 4186
279.9075, 4053
279.91, 4205
279.9125, 4198
279.915, 4182
279.9175, 4174
279.92, 4180
279.9225, 4184
279.925, 4138
279.9275, 4176
279.93, 4154
279.9325, 4154
279.935, 4181
279.9375, 4198
279.94, 4193
279.9425, 4160
279.945, 4185
279.9475, 4166
279.95, 4153
279.9525, 4141
279.955, 4137
279.9575, 4122
279.96, 4092
279.9625, 4143
279.965, 4167
279.9675, 4156
279.97, 4163
279.9725, 4174
279.975, 4186
279.9775, 4117
279.98, 4168
279.9825, 4158
279.985, 4163
279.9875, 4176
279.99, 4178
279.9925, 4184
279.995, 4108
279.9975, 4162
280.0, 4158
280.0025, 4155
280.005, 4141
280.0075, 4166
280.01, 4140
280.0125, 4082
280.015, 4133
280.0175, 4143
280.02, 4145
280.0225, 4162
280.025, 4165
280.0275, 4155
280.03, 4109
280.0325, 4193
280.035, 4193
280.0375, 4147
280.04, 4137
280.0425, 4139
280.045, 4139
280.0475, 4093
280.05, 4130
280.0525, 4146
280.055, 4147
280.0575, 4165
280.06, 4153
280.0625, 4163
280.065, 4093
280.0675, 4174
280.07, 4162
280.0725, 4153
280.075, 4155
280.0775, 4168
280.08, 4157
280.0825, 4109
280.085, 4146
280.0875, 4152
280.09, 4151
280.0925, 4160
280.095, 4169
280.0975, 4174
280.1, 4099
280.1025, 4149
280.105, 4145
280.1075, 4155
280.11, 4182
280.1125, 4172
280.115, 4172
280.1175, 4131
280.12, 4171
280.1225, 4187
280.125, 4140
280.1275, 4142
280.13, 4185
280.1325, 4172
280.135, 4130
280.1375, 4198
280.14, 4198
280.1425, 4169
280.145, 4181
280.1475, 4165
280.15, 4210
280.1525, 4167
280.155, 4159
280.1575, 4151
280.16, 4146
280.1625, 4168
280.165, 4167
280.1675, 4156
280.17, 4105
280.1725, 4168
280.175, 4142
280.1775, 4132
280.18, 4152
280.1825, 4162
280.185, 4165
280.1875, 4147
280.19, 4189
280.1925, 4166
280.195, 4168
280.1975, 4183
280.2, 4183
280.2025, 4182
280.205, 4136
280.2075, 4190
280.21, 4183
280.2125, 4162
280.215, 4180
280.2175, 4166
280.22, 4152
280.2225, 4119
280.225, 4140
280.2275, 4140
280.23, 4142
280.2325, 4168
280.235, 4159
280.2375, 4147
280.24, 4131
280.2425, 4184
280.245, 4179
280.2475, 4169
280.25, 4164
280.2525, 4139
280.255, 4141
280.2575, 4095
280.26, 4163
280.2625, 4144
280.265, 4145
280.2675, 4139
280.27, 4178
280.2725, 4186
280.275, 4136
280.2775, 4160
280.28, 4157
280.2825, 4154
280.285, 4161
280.2875, 4159
280.29, 4165
280.2925, 4021
280.295, 4179
280.2975, 4171
280.3, 4171
280.3025, 4171
280.305, 4163
280.3075, 4160
280.31, 4125
280.3125, 4178
280.315, 4179
280.3175, 4162
280.32, 4194
280.3225, 4172
280.325, 4160
280.3275, 4106
280.33, 4162
280.3325, 4175
280.335, 4148
280.3375, 4134
280.34, 4159
280.3425, 4133
280.345, 4088
280.3475, 4145
280.35, 4162
280.3525, 4153
280.355, 4167
280.3575, 4145
280.36, 4144
280.3625, 4123
280.365, 4169
280.3675, 4169
280.37, 4163
280.3725, 4169
280.375, 4154
280.3775, 4157
280.38, 4113
280.3825, 4164
280.385, 4162
280.3875, 4160
280.39, 4156
280.3925, 4170
280.395, 4169
280.3975, 4124
280.4, 4166
280.4025, 4147
280.405, 4158
280.4075, 4155
280.41, 4157
280.4125, 4162
280.415, 4042
280.4175, 4189
280.42, 4188
280.4225, 4156
280.425, 4168
280.4275, 4161
280.43, 4154
280.4325, 4117
280.435, 4165
280.4375, 4180
280.44, 4178
280.4425, 4200
280.445, 4187
280.4475, 4183
280.45, 4151
280.4525, 4183
280.455, 4178
280.4575, 4189
280.46, 4193
280.4625, 4188
280.465, 4178
280.4675, 4133
280.47, 4189
280.4725, 4196
280.475, 4197
280.4775, 4162
280.48, 4178
280.4825, 4170
280.485, 4127
280.4875, 4171
280.49, 4158
280.4925, 4150
280.495, 4189
280.4975, 4172
280.5, 4160
280.5025, 4139
280.505, 4187
280.5075, 4158
280.51, 4180
280.5125, 4194
280.515, 4183
280.5175, 4162
280.52, 4012
280.5225, 4180
280.525, 4180
280.5275, 4186
280.53, 4167
280.5325, 4149
280.535, 4101
280.5375, 4030
280.54, 4081
280.5425, 4080
280.545, 4098
280.5475, 4118
280.55, 4141
280.5525, 4156
280.555, 4113
280.5575, 4173
280.56, 4153
280.5625, 4165
280.565, 4193
280.5675, 4188
280.57, 4196
280.5725, 4135
280.575, 4185
280.5775, 4188
280.58, 4168
280.5825, 4190
280.585, 4207
280.5875, 4182
280.59, 4140
280.5925, 4212
280.595, 4199
280.5975, 4171
280.6, 4166
280.6025, 4172
280.605, 4196
280.6075, 4129
280.61, 4182
280.6125, 4176
280.615, 4201
280.6175, 4169
280.62, 4185
280.6225, 4189
280.625, 4127
280.6275, 4164
280.63, 4185
280.6325, 4193
280.635, 4217
280.6375, 4262
280.64, 4326
280.6425, 4346
280.645, 4425
280.6475, 4458
280.65, 4482
280.6525, 4432
280.655, 4263
280.6575, 4049
280.66, 3615
280.6625, 3452
280.665, 3125
280.6675, 2731
280.67, 2203
280.6725, 1864
280.675, 1706
280.6775, 1775
280.68, 2132
280.6825, 2877
280.685, 3744
280.6875, 4445
280.69, 4828
280.6925, 4934
280.695, 4827
280.6975, 4742
280.7, 4621
280.7025, 4551
280.705, 4574
280.7075, 4548
280.71, 4522
280.7125, 4494
280.715, 4497
280.7175, 4517
280.72, 4544
280.7225, 4529
280.725, 4552
280.7275, 4526
280.73, 4496
280.7325, 4498
280.735, 4482
280.7375, 4477
280.74, 4483
280.7425, 4447
280.745, 4447
280.7475, 4387
280.75, 4431
280.7525, 4429
280.755, 4406
280.7575, 4400
280.76, 4378
280.7625, 4378
280.765, 4334
280.7675, 4374
280.77, 4364
280.7725, 4354
280.775, 4368
280.7775, 4361
280.78, 4345
280.7825, 4254
280.785, 4306
280.7875, 4290
280.79, 4307
280.7925, 4300
280.795, 4268
280.7975, 4261
280.8, 4194
280.8025, 4245
280.805, 4242
280.8075, 4246
280.81, 4255
280.8125, 4256
280.815, 4247
280.8175, 4202
280.82, 4220
280.8225, 4240
280.825, 4233
280.8275, 4251
280.83, 4242
280.8325, 4243
280.835, 4172
280.8375, 4190
280.84, 4201
280.8425, 4207
280.845, 4200
280.8475, 4212
280.85, 4195
280.8525, 4185
280.855, 4213
280.8575, 4199
280.86, 4199
280.8625, 4190
280.865, 4201
280.8675, 4203
280.87, 4150
280.8725, 4191
280.875, 4191
280.8775, 4187
280.88, 4205
280.8825, 4214
280.885, 4201
280.8875, 4150
280.89, 4222
280.8925, 4216
280.895, 4192
280.8975, 4167
280.9, 4163
280.9025, 4175
280.905, 4125
280.9075, 4163
280.91, 4170
280.9125, 4176
280.915, 4183
280.9175, 4200
280.92, 4184
280.9225, 4126
280.925, 4166
280.9275, 4147
280.93, 4138
280.9325, 4148
280.935, 4143
280.9375, 4127
280.94, 4088
280.9425, 4135
280.945, 4126
280.9475, 4126
280.95, 4128
280.9525, 4113
280.955, 4123
280.9575, 4064
280.96, 4115
280.9625, 4095
280.965, 4109
280.9675, 4105
280.97, 4100
280.9725, 4112
280.975, 4093
280.9775, 4138
280.98, 4120
280.9825, 4149
280.985, 4154
280.9875, 4167
280.99, 4179
280.9925, 4129
280.995, 4199
280.9975, 4195
281.0, 4203
281.0025, 4193
281.005, 4207
281.0075, 4206
281.01, 4164
281.0125, 4218
281.015, 4226
281.0175, 4224
281.02, 4218
281.0225, 4236
281.025, 4240
281.0275, 4179
281.03, 4228
281.0325, 4217
281.035, 4228
281.0375, 4231
281.04, 4250
281.0425, 4236
281.045, 4180
281.0475, 4245
281.05, 4231
281.0525, 4227
281.055, 4210
281.0575, 4218
281.06, 4249
281.0625, 4224
281.065, 4255
281.0675, 4248
281.07, 4244
281.0725, 4225
281.075, 4216
281.0775, 4216
281.08, 4190
281.0825, 4237
281.085, 4210
281.0875, 4222
281.09, 4231
281.0925, 4227
281.095, 4247
281.0975, 4180
281.1, 4202
281.1025, 4183
281.105, 4189
281.1075, 4193
281.11, 4176
281.1125, 4179
281.115, 4152
281.1175, 4198
281.12, 4210
281.1225, 4194
281.125, 4196
281.1275, 4193
281.13, 4202
281.1325, 4148
281.135, 4197
281.1375, 4181
281.14, 4160
281.1425, 4152
281.145, 4166
281.1475, 4184
281.15, 4148
281.1525, 4178
281.155, 4164
281.1575, 4171
281.16, 4158
281.1625, 4158
281.165, 4179
281.1675, 4129
281.17, 4169
281.1725, 4186
281.175, 4186
281.1775, 4159
281.18, 4174
281.1825, 4176
281.185, 4124
281.1875, 4183
281.19, 4180
281.1925, 4168
281.195, 4175
281.1975, 4190
281.2, 4184
281.2025, 4153
281.205, 4188
281.2075, 4183
281.21, 4211
281.2125, 4186
281.215, 4162
281.2175, 4157
281.22, 4133
281.2225, 4184
281.225, 4199
281.2275, 4206
281.23, 4207
281.2325, 4193
281.235, 4187
281.2375, 4107
281.24, 4181
281.2425, 4165
