638.84,1096,3980,13936,181,274,-17
638.85,976,3888,14056,319,355,-27
638.86,908,4068,13840,178,315,-55
638.87,1000,3940,13932,100,318,-24
638.88,1024,4016,14076,212,354,-45
638.89,964,4032,13864,199,324,-44
638.9,1016,3980,13952,143,296,-34
638.91,1032,4168,14004,101,288,-3
638.92,1068,4024,13868,71,324,-28
638.93,992,4000,13844,88,305,-3
638.94,1004,4052,13992,163,330,-19
638.95,920,4012,13780,210,358,-40
638.96,892,4220,13900,154,302,-18
638.97,1020,4084,13860,170,340,-29
638.98,1036,4136,13860,168,299,-23
638.99,972,4084,14012,141,338,-13
639.0,1040,4156,13840,104,284,-29
639.01,960,4076,13912,89,294,-11
639.02,972,4016,13900,98,310,-33
639.03,1044,4124,13876,153,326,-34
639.04,1028,4156,13908,128,322,-18
639.05,992,4080,13848,137,373,-49
639.06,1084,4124,13976,106,338,-22
639.07,904,4176,13964,120,290,-43
639.08,1072,4312,13776,83,339,-12
639.09,800,4228,13916,103,294,-24
639.1,980,4156,13956,68,283,-7
639.11,1020,4220,13864,-18,267,-50
639.12,1012,4180,13824,52,276,-12
639.13,976,4184,13924,54,309,-34
639.14,1040,4208,13908,38,277,-29
639.15,936,4168,14016,21,309,-41
639.16,976,4228,13828,9,303,-26
639.17,892,4240,13764,-27,307,-10
639.18,976,4056,13876,-23,321,-6
639.19,948,4136,13908,-48,323,-9
639.2,1012,4196,13920,-39,287,-7
639.21,852,4288,13864,-77,296,-1
639.22,912,4192,13860,-48,284,-4
639.23,920,4176,13932,-25,291,-30
639.24,952,4248,13880,-35,264,-26
639.25,892,4160,13868,-48,266,-20
639.26,832,4228,13828,-45,284,-30
639.27,996,4212,14004,-72,267,-11
639.28,944,4260,13976,-69,268,7
639.29,928,4156,13996,-81,281,14
639.3,892,4244,13888,-105,283,16
639.31,860,4196,13876,-115,260,-8
639.32,1020,4196,13804,-114,283,-7
639.33,892,4172,13988,-115,248,-11
639.34,920,4156,13996,-137,243,16
639.35,912,4220,13980,-116,252,-16
639.36,976,4196,13860,-113,270,8
639.37,924,4336,13896,-96,298,-19
639.38,960,4336,13972,-158,273,-23
639.39,904,4160,13864,-233,269,7
639.4,944,4256,13836,-334,209,-1
639.41,908,4176,13660,-402,162,18
639.42,968,4180,13896,-386,189,37
639.43,1052,4192,13988,-118,318,-28
639.44,992,4216,14000,-16,410,-53
639.45,804,4240,14016,-189,296,-26
639.46,808,4240,13888,-316,216,-17
639.47,976,4236,13792,-483,170,29
639.48,968,4092,14032,-377,139,30
639.49,896,4284,14148,-306,94,26
639.5,896,4228,13924,-597,86,121
639.51,816,4100,13396,-1244,-83,177
639.52,1236,4044,14140,-424,334,18
639.53,1004,4352,14276,424,424,-88
639.54,888,4188,14004,-454,-130,66
639.55,1012,4140,14052,-675,-33,89
639.56,912,4240,13808,-703,165,98
639.57,932,3944,13540,-1288,-383,216
639.58,992,3788,13644,-796,-135,154
639.59,916,4024,13992,-287,14,41
639.6,984,4180,14184,-172,-132,31
639.61,1108,4176,13988,-291,-104,79
639.62,940,4160,14108,-491,11,95
639.63,908,4128,13976,-521,17,143
639.64,976,4148,14024,-787,-25,148
639.65,976,4108,14104,-992,35,123
639.66,996,4108,13864,-1197,-63,120
639.67,928,3988,14024,-1277,-76,157
639.68,1028,3808,13964,-1149,-86,152
639.69,1172,3864,13892,-1166,-98,144
639.7,1092,3852,14008,-1194,-105,151
639.71,1088,3904,14056,-1215,-106,168
639.72,1056,3792,14076,-1440,-168,194
639.73,1144,3864,13972,-1532,-156,185
639.74,1040,3852,13920,-1560,-119,189
639.75,988,3760,13968,-1527,-95,156
639.76,1032,3708,14080,-1578,-133,183
639.77,1148,3780,13924,-1723,-155,189
639.78,1064,3664,13820,-1787,-205,204
639.79,1220,3560,13988,-1727,-174,162
639.8,1084,3548,13916,-1651,-166,170
639.81,1120,3652,13976,-1587,-156,145
639.82,1056,3548,14104,-1441,-59,138
639.83,1072,3592,14044,-1227,-1,101
639.84,1136,3552,14168,-1158,14,106
639.85,1180,3524,14256,-1108,66,106
639.86,1224,3452,14124,-1237,29,75
639.87,1184,3480,14304,-1050,278,19
639.88,1124,3504,13972,-1440,41,140
639.89,1096,3252,13732,-1952,-174,189
639.9,1244,3332,14120,-1642,-179,100
639.91,1168,3256,14108,-1144,-79,41
639.92,1188,3300,14156,-1147,-106,92
639.93,1256,3240,13992,-1256,-88,115
639.94,1196,3276,14032,-1303,-130,109
639.95,1260,3220,14048,-1243,-54,55
639.96,1188,3352,14220,-1293,-77,87
639.97,1388,3300,14304,-1237,-32,47
639.98,1380,3220,13960,-1308,-45,72
639.99,1340,3044,14244,-1252,5,54
640.0,1316,2972,14136,-1219,-57,53
640.01,1200,3028,14100,-1309,-37,87
640.02,1232,2952,14164,-1447,-55,87
640.03,1332,2928,14304,-1351,-67,98
640.04,1360,2936,14180,-1305,-81,84
640.05,1208,2944,14212,-1384,-127,74
640.06,1340,2876,14116,-1306,-113,80
640.07,1336,2848,14284,-1181,-84,57
640.08,1244,2860,14160,-1095,-47,48
640.09,1264,2916,14224,-1077,-55,42
640.1,1316,2848,14044,-1113,-7,87
640.11,1340,2824,14224,-1255,4,71
640.12,1424,2676,14252,-1203,41,58
640.13,1424,2796,14140,-1127,-40,43
640.14,1288,2696,14100,-1133,-16,52
640.15,1344,2668,14172,-1097,1,66
640.16,1280,2700,14344,-999,-17,55
640.17,1400,2676,14276,-944,30,44
640.18,1352,2708,14076,-928,84,33
640.19,1300,2564,14320,-888,38,42
640.2,1332,2604,14336,-846,94,58
640.21,1192,2588,14140,-917,62,14
640.22,1448,2576,14256,-951,57,22
640.23,1352,2528,14164,-958,77,29
640.24,1428,2552,14196,-936,79,-8
640.25,1464,2476,14220,-939,68,18
640.26,1408,2364,14164,-865,91,39
640.27,1348,2528,14156,-872,44,6
640.28,1368,2460,14148,-929,9,28
640.29,1396,2416,14188,-825,41,-2
640.3,1416,2480,14336,-853,66,9
640.31,1400,2404,14208,-877,37,-8
640.32,1412,2416,14192,-837,67,41
640.33,1412,2344,14280,-793,83,-4
640.34,1416,2352,14220,-773,93,33
640.35,1448,2368,14148,-788,64,48
640.36,1336,2376,14300,-781,78,30
640.37,1448,2380,14332,-757,62,37
640.38,1448,2328,14236,-671,44,44
640.39,1384,2292,14244,-635,92,19
640.4,1396,2300,14128,-566,150,21
640.41,1480,2288,14192,-440,140,7
640.42,1376,2476,14168,-464,165,28
640.43,1476,2316,14244,-491,184,17
640.44,1460,2372,14300,-461,168,-14
640.45,1504,2320,14128,-470,159,39
640.46,1396,2284,14076,-398,178,7
640.47,1512,2160,14408,-326,201,10
640.48,1340,2252,14272,-390,181,6
640.49,1352,2324,14176,-435,80,34
640.5,1352,2108,14044,-441,58,58
640.51,1420,2140,14184,-161,213,18
640.52,1412,2176,14320,207,356,-35
640.53,1456,2228,14312,269,344,-73
640.54,1400,2316,14212,122,271,-56
640.55,1372,2180,14052,-23,183,-8
640.56,1432,2160,14020,110,268,0
640.57,1444,2200,14312,406,409,-34
640.58,1428,2268,14352,198,446,7
640.59,1320,2356,13780,-562,282,106
640.6,1572,2140,13984,-528,58,97
640.61,1564,2232,14700,867,570,-64
640.62,1364,2480,14004,491,-68,-19
640.63,1408,2144,14132,381,140,-9
640.64,1500,2456,14288,1024,670,-90
640.65,1308,2416,13632,-28,32,92
640.66,1496,2176,13952,-12,69,120
640.67,1512,2372,14204,957,687,-54
640.68,1464,2488,14600,1223,608,-97
640.69,1372,2388,14636,1204,511,-69
640.7,1368,2524,14312,881,430,-33
640.71,1288,2528,14268,778,455,10
640.72,1324,2688,14240,773,415,12
640.73,1304,2620,14272,628,298,-1
640.74,1400,2564,14180,511,288,12
640.75,1396,2516,14008,355,273,35
640.76,1496,2464,14048,504,319,21
640.77,1448,2436,14020,844,314,-2
640.78,1444,2504,14160,1235,378,-29
640.79,1372,2636,14148,999,459,-75
640.8,1292,2672,14140,942,491,-34
640.81,1416,2720,14104,863,423,-26
640.82,1292,2940,14264,796,416,-33
640.83,1344,2748,14008,836,380,-34
640.84,1364,2780,14132,822,374,-14
640.85,1376,2896,13924,840,463,-36
640.86,1256,2852,14212,990,507,-48
640.87,1296,2892,14208,1125,587,-51
640.88,1228,3104,14132,1240,588,-83
640.89,1216,3004,14184,1316,484,-94
640.9,1240,3020,14424,1437,635,-131
640.91,1192,3088,14192,1453,747,-89
640.92,1244,3012,14080,686,446,10
640.93,1236,2960,14036,793,534,-70
640.94,1336,3204,13996,1059,565,-96
640.95,1256,3132,13856,848,328,-78
640.96,1208,3192,14124,1121,518,-115
640.97,1220,3184,14132,1096,454,-84
640.98,1268,3176,14132,912,377,-60
640.99,1200,3224,14148,869,290,-43
641.0,1144,3212,14080,830,364,-51
641.01,1160,3344,14104,890,388,-78
641.02,1304,3280,14232,965,372,-104
641.03,1260,3336,14156,976,425,-97
641.04,1148,3312,14080,928,429,-104
641.05,1284,3332,14164,844,446,-63
641.06,1132,3288,14112,857,438,-59
641.07,1184,3388,14064,1017,421,-88
641.08,1200,3404,13948,878,406,-61
641.09,1160,3420,13972,858,475,-85
641.1,1116,3348,14116,1013,546,-109
641.11,1168,3608,14080,1055,607,-96
641.12,1040,3660,14084,888,486,-100
641.13,1152,3528,14032,832,422,-97
641.14,1236,3604,14076,723,455,-88
641.15,1196,3584,13952,667,422,-53
641.16,1180,3580,14176,700,444,-54
641.17,1160,3664,14108,800,447,-73
641.18,1192,3684,13940,813,421,-57
641.19,1104,3684,14084,744,433,-33
641.2,1104,3764,13928,774,481,-64
641.21,1184,3780,14140,767,457,-44
641.22,992,3696,13956,730,455,-76
641.23,1120,3740,14020,674,446,-72
641.24,1124,3772,13928,628,396,-39
641.25,1112,3768,14040,619,408,-60
641.26,1104,3756,13936,629,418,-68
641.27,1012,3744,14036,597,431,-75
641.28,1024,3892,14024,633,367,-76
641.29,1128,3828,13868,643,443,-73
641.3,1048,3940,14044,598,412,-68
641.31,1076,3984,13960,591,406,-82
641.32,1040,3880,13992,533,422,-85
641.33,1036,3908,14080,491,418,-67
641.34,932,3832,14052,452,406,-61
641.35,1032,4020,13960,491,371,-42
641.36,916,4004,13920,446,360,-30
641.37,1044,3860,14000,392,367,-38
641.38,988,3900,13900,370,382,-55
641.39,1036,3916,13892,416,364,-39
641.4,996,3936,14036,353,417,-51
641.41,1064,3988,13916,421,407,-66
641.42,996,4092,13996,357,415,-80
641.43,1080,3980,13988,406,457,-91
641.44,1072,4052,14016,383,427,-46
641.45,1016,4084,13860,290,393,-46
641.46,956,3996,13840,195,318,-30
641.47,972,4056,13896,46,266,-11
641.48,1000,4056,13872,140,322,-6
641.49,968,3940,13972,448,495,-59
641.5,1012,4040,14004,544,509,-94
641.51,852,4140,13976,444,453,-85
641.52,924,4116,13760,193,388,-64
641.53,924,4016,13812,93,366,-70
641.54,896,4240,13984,146,332,-31
641.55,868,4120,13892,35,235,25
641.56,736,4224,13436,-721,182,136
641.57,1096,4000,13916,-528,104,60
641.58,1176,4200,14424,762,608,-143
641.59,772,4304,14152,403,178,-72
641.6,872,4100,13712,-295,-79,56
641.61,1020,4156,13728,-174,215,54
641.62,920,4188,13476,-564,15,124
641.63,1056,3864,13584,-362,-71,96
641.64,1204,4032,13792,167,171,39
641.65,1036,4156,13932,460,139,2
641.66,912,4080,14052,554,45,-2
641.67,1004,4208,14024,463,183,13
641.68,924,4192,13972,452,254,4
641.69,872,4272,14016,355,211,1
641.7,896,4360,13968,193,307,17
641.71,892,4224,13908,105,302,-33
641.72,896,4220,13612,43,280,-28
641.73,848,4208,13824,81,258,5
641.74,1032,4136,13820,320,260,10
641.75,1040,4168,13692,351,243,1
641.76,996,4184,13924,363,262,-12
641.77,1064,4164,13996,245,246,3
641.78,976,4224,14068,143,278,-2
641.79,956,4264,13836,108,318,-32
641.8,916,4268,13900,11,313,-6
641.81,1004,4164,13884,-43,314,-21
641.82,904,4308,13928,-100,240,3
641.83,900,4340,13784,-104,233,25
641.84,1012,4312,13760,-127,235,-11
641.85,1008,4356,14004,-135,241,-28
641.86,888,4296,13920,-59,276,-9
641.87,900,4268,14008,-9,304,-10
641.88,992,4344,13808,46,321,-25
641.89,940,4332,13772,109,337,-17
641.9,848,4472,13812,96,346,-28
641.91,1012,4312,13936,64,271,-64
641.92,916,4356,14052,206,517,-45
641.93,920,4316,13404,-318,189,34
641.94,888,4212,13544,-350,237,55
641.95,944,4272,13940,338,457,-77
641.96,848,4232,13956,331,390,-60
641.97,896,4396,13880,157,291,-3
641.98,1052,4344,13860,-12,263,-16
641.99,932,4288,13888,-48,249,16
642.0,960,4360,13928,18,215,-21
642.01,944,4416,13960,-13,150,-8
642.02,1000,4204,13952,-28,216,-1
642.03,892,4468,13920,-31,205,-12
642.04,888,4340,13892,-76,195,12
642.05,928,4344,13932,-131,186,10
642.06,912,4336,13840,-197,169,34
642.07,904,4296,13844,-185,171,34
642.08,920,4380,13876,-115,182,1
642.09,860,4308,13796,-150,170,-16
642.1,824,4216,13864,-310,144,26
642.11,824,4360,13916,-307,231,5
642.12,976,4316,13924,-286,240,23
642.13,920,4316,13852,-380,184,23
642.14,952,4264,13832,-431,165,49
642.15,952,4404,13952,-585,169,48
642.16,840,4492,13808,-686,153,65
642.17,932,4380,13980,-802,132,50
642.18,848,4272,13952,-938,105,50
642.19,1036,4344,13880,-1033,23,121
642.2,844,4248,13940,-1186,46,119
642.21,892,4340,13976,-1285,-10,101
642.22,904,4244,13996,-1368,12,134
642.23,932,4092,13792,-1497,-66,137
642.24,928,4108,13784,-1718,-87,186
642.25,916,3956,14012,-1669,-67,152
642.26,920,4032,14032,-1585,-45,163
642.27,1040,3924,14000,-1702,-66,144
642.28,1116,4040,13920,-1785,-20,156
642.29,1028,3936,13964,-1742,-30,141
642.3,1016,3928,14000,-1848,-100,154
642.31,964,3916,13872,-1965,-90,180
642.32,964,3796,14000,-1969,-155,198
642.33,1124,3752,14056,-2013,-219,178
642.34,1152,3748,14072,-1977,-190,160
642.35,952,3728,14072,-2021,-149,171
642.36,1076,3632,14176,-2067,-185,152
642.37,952,3608,14112,-2217,-177,163
642.38,1064,3600,14048,-2202,-205,164
642.39,1088,3460,14188,-2303,-230,181
642.4,1136,3428,13996,-2376,-301,198
642.41,1080,3420,14088,-2186,-298,185
642.42,1148,3288,13960,-1989,-217,164
642.43,1188,3276,13988,-1910,-213,140
642.44,1156,3200,14108,-1875,-171,119
642.45,1056,3244,14172,-1794,-224,171
642.46,1136,3284,14048,-1777,-137,117
642.47,1264,3232,14304,-1785,-173,115
642.48,1228,3236,14168,-1800,-186,106
642.49,1204,3084,14092,-1736,-152,61
642.5,1168,3108,14148,-1840,-202,121
642.51,1192,3000,14080,-1944,-207,80
642.52,1212,3008,14228,-1911,-253,132
642.53,1300,2904,14076,-1964,-295,149
642.54,1192,2864,14188,-1923,-287,115
642.55,1360,2724,14148,-1781,-170,94
642.56,1304,2780,14196,-1427,-52,48
642.57,1192,2852,14172,-1359,-41,36
642.58,1192,2828,14224,-1473,-150,65
642.59,1300,2792,14148,-1633,-187,87
642.6,1256,2676,14028,-1546,-279,93
642.61,1360,2696,14256,-1245,-89,100
642.62,1216,2656,14496,-1446,32,80
642.63,1216,2816,13936,-2429,-22,127
642.64,1480,2380,13968,-2501,-371,112
642.65,1480,2404,14704,-1050,91,-71
642.66,1216,2656,14072,-999,-404,32
642.67,1332,2388,13980,-1961,-696,129
642.68,1444,2408,14384,-1311,118,13
642.69,1196,2452,13720,-2021,-391,117
642.7,1444,2112,13840,-2067,-483,184
642.71,1548,2160,14396,-1235,25,46
642.72,1528,2360,14708,-610,177,-13
642.73,1300,2480,14708,-842,107,12
642.74,1324,2420,14396,-1069,60,47
642.75,1336,2484,14272,-1378,63,61
642.76,1368,2240,14208,-1526,-9,55
642.77,1464,2332,14276,-1715,-137,81
642.78,1384,2144,14300,-1798,-103,66
642.79,1436,2164,14072,-1890,-132,84
642.8,1552,2000,13900,-1852,-167,76
642.81,1552,1912,13868,-1421,-125,48
642.82,1496,2012,14276,-901,-42,33
642.83,1508,2052,14268,-699,8,9
642.84,1520,1920,14492,-732,31,11
642.85,1592,1940,14508,-913,67,-15
642.86,1512,1960,14168,-1118,-4,30
642.87,1548,1912,14344,-1188,-3,-5
642.88,1468,1808,14240,-1231,-55,39
642.89,1560,1868,14280,-1282,-83,24
642.9,1516,1848,14224,-1125,-74,26
642.91,1316,1820,14124,-1219,-39,23
642.92,1556,1700,14160,-1119,-10,45
642.93,1380,1872,14284,-984,53,26
642.94,1476,1776,14232,-961,83,27
642.95,1488,1788,14244,-813,54,15
642.96,1536,1776,14436,-657,110,12
642.97,1600,1812,14320,-677,73,-11
642.98,1512,1736,14680,-541,312,-5
642.99,1372,1896,14140,-784,120,15
643.0,1440,1716,13964,-1248,-65,81
643.01,1604,1600,14148,-785,69,34
643.02,1464,1624,14268,-763,-23,-15
643.03,1576,1692,14204,-692,-99,23
643.04,1648,1616,14328,-501,129,-42
643.05,1508,1632,14248,-468,68,-13
643.06,1544,1704,14268,-462,21,18
643.07,1524,1704,14352,-545,31,3
643.08,1656,1544,14368,-490,54,-19
643.09,1708,1628,14440,-342,158,-26
643.1,1700,1568,14360,-217,217,-61
643.11,1600,1548,14332,-204,245,-14
643.12,1612,1524,14368,-182,278,23
643.13,1604,1508,14240,-168,236,2
643.14,1608,1576,14256,-42,259,17
643.15,1576,1536,14268,182,261,8
643.16,1624,1648,14104,207,243,-5
643.17,1556,1516,14212,252,277,-26
643.18,1444,1568,14100,451,304,-25
643.19,1592,1696,14200,566,334,-15
643.2,1564,1668,14280,664,379,-15
643.21,1588,1644,14264,667,414,0
643.22,1488,1660,14164,659,444,24
643.23,1488,1656,14160,782,457,9
643.24,1580,1860,14176,932,419,1
643.25,1596,1744,14224,1162,508,-33
643.26,1432,1768,14128,1263,498,-19
643.27,1496,1828,14212,1454,534,-53
643.28,1620,1900,14256,1661,604,-15
643.29,1540,1964,14244,1771,559,-40
643.3,1600,1976,14080,1875,638,-46
643.31,1548,2004,14252,2048,687,-93
643.32,1576,2016,14084,2103,756,-91
643.33,1448,2092,14204,2254,789,-124
643.34,1516,2256,14280,2289,842,-130
643.35,1596,2264,14304,2229,844,-107
643.36,1440,2360,14464,2137,909,-120
643.37,1388,2392,14296,1976,814,-113
643.38,1392,2420,14228,1793,649,-111
643.39,1412,2404,14284,1702,651,-100
643.4,1352,2464,14228,1622,583,-77
643.41,1328,2576,14116,1621,565,-90
643.42,1300,2500,14200,1658,540,-90
643.43,1288,2592,14264,1626,510,-45
643.44,1268,2664,14192,1594,525,-61
643.45,1260,2668,14108,1305,552,-49
643.46,1240,2660,14052,1101,460,-45
643.47,1304,2628,14116,1308,620,-66
643.48,1292,2700,14472,1575,707,-116
643.49,1368,2864,14336,1631,752,-129
643.5,1260,2724,14100,1542,653,-107
643.51,1244,2920,13932,71,257,82
643.52,1240,3028,13512,-228,-24,120
643.53,1340,2896,13916,610,455,-6
643.54,1236,3084,14288,1423,491,-96
643.55,1220,3256,14432,1614,460,-89
643.56,1092,3236,14272,1525,552,-87
643.57,1132,3416,14196,1499,590,-86
643.58,1064,3488,14456,1309,569,-85
643.59,1224,3428,14352,1087,451,-51
643.6,1124,3464,14336,777,515,-38
643.61,1172,3348,14148,417,467,-5
643.62,1084,3408,14040,173,485,-1
643.63,1096,3364,14024,212,407,-7
643.64,1192,3360,14140,368,341,-2
643.65,1252,3356,14400,180,213,3
643.66,1160,3308,14128,13,110,16
643.67,1128,3388,14212,-316,-92,29
643.68,1136,3260,14004,-447,-287,78
643.69,1296,3176,14088,-454,-188,141
643.7,1216,3152,13764,-300,-40,121
643.71,1188,3336,14008,87,133,89
643.72,1240,3328,14060,493,265,21
643.73,1200,3368,14028,715,370,-22
643.74,1240,3444,14088,691,453,-44
643.75,1200,3516,14216,601,407,-49
643.76,1192,3488,14200,417,344,-22
643.77,1180,3440,14252,510,704,-70
643.78,1100,3492,13996,-392,276,102
643.79,1080,3392,13768,-598,201,119
643.8,1204,3436,14028,-412,283,56
643.81,1128,3480,14132,222,489,-65
643.82,1140,3460,14180,167,447,-61
643.83,1116,3492,13900,-22,472,-41
643.84,1164,3372,14064,84,430,-53
643.85,1384,3384,14152,-9,315,-5
643.86,1128,3324,13804,-78,323,26
643.87,1196,3444,14012,550,423,-76
643.88,1176,3488,14252,691,615,-148
643.89,1188,3524,14080,723,589,-121
643.9,1168,3512,14048,395,445,-79
643.91,1284,3448,14184,163,414,-74
643.92,1192,3388,14028,189,382,-66
643.93,1160,3384,13848,261,376,-58
643.94,1172,3376,14032,224,236,-1
643.95,1224,3376,13952,303,289,-55
643.96,1160,3480,14056,506,356,-30
643.97,1212,3608,14040,651,454,-85
643.98,996,3564,14108,678,461,-112
643.99,1140,3652,13976,507,384,-61
644.0,1112,3592,14068,210,408,-47
644.01,996,3660,13844,171,275,-22
644.02,1120,3604,14044,138,295,-2
644.03,1136,3756,13932,213,305,-24
644.04,1056,3716,13912,331,317,-4
644.05,1036,3752,14008,369,381,-43
644.06,1136,3692,14116,363,350,-43
644.07,1052,3764,14140,384,383,-41
644.08,1124,3752,13968,315,341,-35
644.09,988,3664,13980,263,333,-9
644.1,1012,3576,13896,267,364,6
644.11,1140,3716,13868,329,355,-26
644.12,1112,3684,13992,427,416,-16
644.13,1096,3636,14112,406,403,-46
644.14,1052,3780,13876,417,433,-62
644.15,1068,3712,14056,385,403,-80
644.16,1092,3900,13976,393,396,-63
644.17,1004,3916,13912,347,370,-75
644.18,1028,3764,14000,333,361,-50
644.19,944,3848,13924,290,379,-67
644.2,1044,3872,14028,235,298,-5
644.21,1116,3792,13924,212,309,-52
644.22,1228,3688,13780,237,210,-20
644.23,1124,3748,13900,174,317,-29
644.24,916,3916,13912,243,369,6
644.25,1068,3876,14108,479,331,-27
644.26,1128,3884,14072,489,418,-54
644.27,1120,3780,13992,508,365,-68
644.28,1152,3960,13976,553,409,-36
644.29,1096,3924,14008,444,409,-39
644.3,1068,3920,13912,471,372,-37
644.31,968,3884,13952,518,386,-53
644.32,1140,3984,14032,501,374,-66
644.33,996,3988,13976,535,386,-48
644.34,1008,4064,13972,602,410,-56
644.35,1072,4016,13828,581,407,-88
644.36,856,3988,13916,455,393,-20
644.37,912,4048,13936,344,316,-11
644.38,1012,3960,13860,225,258,-22
644.39,1028,3980,13908,325,342,-16
644.4,1024,4016,14068,660,528,-91
644.41,896,4132,14032,767,558,-144
644.42,880,4048,13944,540,441,-98
644.43,920,4044,13884,336,365,-33
644.44,964,4032,13964,261,296,-52
644.45,984,4200,14092,242,257,-18
644.46,908,4160,13888,-353,200,96
644.47,1100,4056,13376,-843,-83,104
644.48,1200,4080,14516,525,536,-118
644.49,888,4380,14160,879,396,-112
644.5,944,4184,13728,-202,-70,82
644.51,992,4108,13824,-359,150,62
644.52,912,4072,13616,-466,97,103
644.53,1040,3908,13572,-478,-58,119
644.54,1092,3944,13620,84,145,41
644.55,1060,4172,14076,375,161,1
644.56,940,4208,14132,553,7,7
644.57,928,4192,14080,611,143,-14
644.58,824,4216,13964,562,210,1
644.59,1032,4212,14032,474,215,-5
644.6,1016,4340,13916,330,288,10
644.61,1056,4324,13880,148,339,-3
644.62,968,4284,13812,66,331,-30
644.63,988,4200,13740,110,300,-44
644.64,920,4216,13756,284,352,8
644.65,1012,4176,13716,391,295,-36
644.66,968,4160,13848,383,253,-38
644.67,904,4164,13960,349,251,-19
644.68,960,4144,14016,295,242,-14
644.69,912,4216,13928,227,309,-23
644.7,996,4200,13880,93,329,-37
644.71,1008,4264,13920,49,294,-9
644.72,1028,4240,13844,18,265,-35
644.73,908,4328,13988,-47,242,-22
644.74,1052,4336,13900,-98,234,5
644.75,1008,4284,14024,-106,287,-19
644.76,968,4316,13864,-56,275,7
644.77,956,4304,13808,-9,290,-19
644.78,904,4252,13820,63,336,-24
644.79,924,4284,13772,132,330,-28
644.8,812,4336,13844,157,356,-20
644.81,876,4332,13792,87,232,-21
644.82,1052,4340,14084,256,543,-76
644.83,832,4360,13804,-204,240,-4
644.84,988,4268,13580,-619,87,63
644.85,944,4244,13824,-107,328,0
644.86,816,4388,13924,213,363,-78
644.87,880,4268,13900,132,261,-8
644.88,1060,4344,13824,-21,249,1
644.89,916,4364,13840,-138,289,5
644.9,904,4356,13880,-33,227,17
644.91,1024,4396,13876,-78,145,30
644.92,940,4328,13880,-121,188,12
644.93,908,4384,13956,-75,226,15
644.94,976,4480,13992,-57,212,10
644.95,976,4352,13900,-85,170,-2
644.96,996,4416,13800,-151,187,21
644.97,964,4312,13700,-209,149,46
644.98,1016,4208,13820,-179,165,1
644.99,904,4300,13856,-102,224,4
645.0,896,4376,13796,-127,215,22
645.01,968,4392,13816,-287,156,27
645.02,948,4376,13916,-319,227,19
645.03,852,4272,13732,-273,202,-12
645.04,924,4348,14032,-256,229,9
645.05,884,4304,13900,-286,182,22
645.06,988,4308,13844,-319,187,23
645.07,900,4252,13848,-368,184,34
645.08,900,4296,13936,-360,172,22
645.09,1008,4304,13880,-379,159,53
645.1,868,4304,13860,-339,180,28
645.11,952,4348,13952,-315,205,32
645.12,1024,4372,14052,-319,203,17
645.13,1028,4316,13844,-351,205,32
645.14,820,4220,14004,-378,225,24
645.15,952,4284,13932,-432,213,35
645.16,956,4220,13904,-484,182,31
645.17,860,4392,13888,-554,183,38
645.18,888,4196,13888,-636,189,33
645.19,900,4164,13932,-678,167,51
645.2,1024,4272,13936,-744,145,50
645.21,1120,4296,13952,-867,112,73
645.22,1024,4208,13944,-972,103,50
645.23,1048,4148,13848,-1076,58,76
645.24,952,4084,13940,-1158,29,96
645.25,928,4176,14004,-1288,63,102
645.26,948,4188,13876,-1454,-33,127
645.27,992,4076,13920,-1545,-34,145
645.28,980,3936,13772,-1613,-4,119
645.29,988,4100,14076,-1651,-51,180
645.3,988,4024,14076,-1757,-115,200
645.31,960,4004,13980,-2006,-173,271
645.32,1100,3928,14092,-2320,-227,318
645.33,1032,3880,13916,-2498,-310,344
645.34,972,3668,13988,-2383,-346,263
645.35,1168,3724,13928,-2262,-302,263
645.36,1136,3708,13852,-2172,-188,228
645.37,1056,3648,13960,-2004,-78,192
645.38,1188,3552,13924,-1911,-81,157
645.39,1168,3676,13936,-1875,1,123
645.4,1160,3516,13916,-1951,9,147
645.41,1020,3560,13916,-1984,-94,136
645.42,1084,3388,14052,-1889,-104,150
645.43,1068,3480,14112,-1858,-93,114
645.44,1188,3328,14232,-1947,-200,173
645.45,1092,3348,14044,-2115,-205,168
645.46,904,3244,14084,-2251,-327,181
645.47,1204,3164,13952,-2062,-233,148
645.48,1152,3208,14220,-1696,-92,73
645.49,1256,3272,14028,-1577,-62,101
645.5,1236,3260,14232,-1659,-67,84
645.51,1096,3104,14208,-1790,-197,94
645.52,1112,3124,13900,-1994,-321,131
645.53,1212,2960,14140,-1836,-283,143
645.54,1184,2904,14312,-1743,-122,156
645.55,1132,3048,13768,-2516,-203,209
645.56,1316,2692,13892,-2882,-550,182
645.57,1496,2720,14628,-1298,23,-25
645.58,1208,2912,14148,-895,-335,52
645.59,1208,2780,13944,-2024,-721,165
645.6,1420,2636,14388,-1447,-2,44
645.61,1176,2680,13820,-1800,-347,177
645.62,1380,2592,13800,-2267,-553,205
645.63,1288,2516,14268,-1104,113,62
645.64,1348,2656,14704,-783,105,-10
645.65,1164,2804,14584,-1169,-5,24
645.66,1260,2640,14304,-1567,-33,68
645.67,1244,2616,14308,-1810,-61,96
645.68,1252,2564,14240,-1959,-239,134
645.69,1256,2404,14068,-2084,-319,144
645.7,1376,2364,14296,-2225,-264,113
645.71,1396,2340,13936,-2229,-178,104
645.72,1416,2276,13940,-2165,-177,88
645.73,1496,2084,14004,-1589,-167,64
645.74,1416,2184,14224,-1080,-93,31
645.75,1420,2236,14380,-999,-84,19
645.76,1420,2148,14464,-970,-59,40
645.77,1288,2108,14280,-1042,-18,0
645.78,1464,2164,14212,-1235,-4,39
645.79,1520,2096,14100,-1354,29,7
645.8,1452,2080,14348,-1371,9,27
645.81,1424,2044,14212,-1526,-45,16
645.82,1444,1944,14192,-1622,-136,26
645.83,1508,2024,14156,-1548,-133,10
645.84,1524,1880,14224,-1534,-53,3
645.85,1496,2004,14204,-1395,-13,18
645.86,1560,1944,14368,-1121,43,9
645.87,1484,1900,14376,-1087,46,17
645.88,1496,2032,14356,-1053,103,11
645.89,1508,1856,14404,-1076,-3,-23
645.9,1448,1804,14416,-898,169,44
645.91,1432,1860,14136,-1317,-52,40
645.92,1448,1676,14008,-1465,-190,77
645.93,1668,1700,14392,-927,36,-4
645.94,1560,1704,14132,-1115,-226,2
645.95,1576,1804,14204,-1093,-41,58
645.96,1548,1672,14364,-1006,-53,18
645.97,1572,1740,14320,-1087,26,-13
645.98,1564,1780,14296,-1173,-132,18
645.99,1544,1676,14348,-1258,-100,-15
646.0,1672,1608,14408,-1171,10,-56
646.01,1592,1608,14404,-1145,19,-66
646.02,1580,1564,14388,-1140,12,-27
646.03,1520,1444,14348,-1105,16,-14
646.04,1596,1420,14292,-1009,41,-18
646.05,1604,1452,14176,-1032,36,7
646.06,1708,1388,14276,-896,27,-3
646.07,1572,1396,14256,-852,-5,-14
646.08,1448,1420,14060,-908,-121,-3
646.09,1572,1448,14236,-737,-67,-11
646.1,1724,1412,14384,-505,104,-18
646.11,1616,1328,14236,-530,31,-5
646.12,1660,1452,14168,-581,91,3
646.13,1580,1372,14256,-529,121,20
646.14,1640,1332,14256,-510,181,33
646.15,1600,1292,14284,-467,161,2
646.16,1700,1440,14284,-302,233,21
646.17,1616,1416,14168,-262,151,32
646.18,1632,1436,14384,-157,169,-6
646.19,1688,1440,14244,-63,210,9
646.2,1508,1456,14232,-39,232,21
646.21,1596,1392,14236,62,231,17
646.22,1656,1336,14172,165,277,32
646.23,1644,1360,14160,354,348,-17
646.24,1616,1476,14324,493,385,-26
646.25,1760,1408,14332,581,460,-4
646.26,1680,1384,14332,557,449,-5
646.27,1496,1476,14292,488,353,-13
646.28,1636,1468,14212,555,411,-7
646.29,1580,1444,14448,643,464,-41
646.3,1572,1528,14280,635,385,-34
646.31,1560,1524,14284,667,387,-19
646.32,1596,1472,14296,753,389,-46
646.33,1528,1596,14204,772,425,-44
646.34,1528,1564,14396,696,440,-41
646.35,1508,1632,14292,663,422,-16
646.36,1568,1640,14252,555,413,-46
646.37,1508,1660,14264,611,435,-23
646.38,1588,1708,14276,641,409,-25
646.39,1580,1616,14160,598,384,-7
646.4,1548,1604,14212,610,323,31
646.41,1516,1708,14132,586,314,26
646.42,1508,1632,14192,594,334,-22
646.43,1596,1636,14408,802,508,-44
646.44,1576,1824,14520,1038,607,-55
646.45,1572,1872,14556,929,528,-77
646.46,1508,1932,14388,780,455,-52
646.47,1412,1796,14132,645,351,-38
646.48,1548,1808,14092,735,274,1
646.49,1496,1732,14324,1030,401,-38
646.5,1432,1840,14396,985,516,3
646.51,1432,2052,13764,210,351,7
646.52,1596,1704,14296,879,389,-19
646.53,1720,1844,14812,2606,805,-219
646.54,1400,2164,14040,2012,182,-115
646.55,1660,1976,14308,1541,526,-122
646.56,1440,2088,14296,1997,1035,-127
646.57,1356,2160,13532,702,140,35
646.58,1508,2016,13812,749,428,15
646.59,1544,2180,14156,1800,704,-104
646.6,1444,2276,14524,2007,657,-170
646.61,1392,2432,14408,1937,660,-131
646.62,1388,2476,14408,1766,757,-136
646.63,1380,2424,14508,1574,795,-101
646.64,1288,2508,14588,1146,611,-48
646.65,1324,2544,14352,745,490,-50
646.66,1332,2536,14360,289,355,-30
646.67,1228,2384,14080,-70,269,42
646.68,1424,2404,13840,-184,93,54
646.69,1440,2296,13984,40,342,4
646.7,1412,2268,14160,382,116,4
646.71,1428,2280,14212,676,344,-39
646.72,1408,2400,14224,997,359,-55
646.73,1392,2420,14284,1092,442,-48
646.74,1428,2400,14060,1101,412,-34
646.75,1300,2484,14068,1296,486,-37
646.76,1496,2516,14292,1342,526,-32
646.77,1344,2628,14220,1478,607,-63
646.78,1244,2552,14236,1460,578,-71
646.79,1360,2792,14296,1353,626,-64
646.8,1284,2808,14176,1226,528,-22
646.81,1376,2748,14048,987,498,1
646.82,1280,2836,14148,1004,501,21
646.83,1232,2860,14216,1068,500,-6
646.84,1056,3076,14236,1178,495,-62
646.85,1264,3176,14752,1322,718,-111
646.86,1020,3128,14304,723,657,-18
646.87,1224,2984,14084,-169,278,48
646.88,1276,2912,13968,-321,295,24
646.89,1216,2832,14044,-375,52,4
646.9,1264,2868,14224,79,169,-48
646.91,1216,2908,14280,69,218,-41
646.92,1168,2884,13984,35,231,-34
646.93,1284,2912,14200,211,242,-12
646.94,1344,2800,14188,274,172,-15
646.95,1436,2868,14072,325,186,-35
646.96,1360,2908,14020,391,275,-42
646.97,1308,2912,14164,561,345,-39
646.98,1336,3116,14136,741,412,-59
646.99,1348,2920,14140,764,442,-102
647.0,1324,2968,14200,686,418,-40
647.01,1260,2936,14180,599,483,-48
647.02,1280,2960,13972,596,313,32
647.03,1172,2964,14160,465,278,52
647.04,1284,3004,14096,582,373,-26
647.05,1180,3080,14152,836,355,-48
647.06,1108,3152,14268,850,417,-47
647.07,1096,3052,14260,666,432,-35
647.08,1248,3204,14128,508,391,-10
647.09,1280,3200,14048,512,509,-38
647.1,1128,3344,14352,480,351,-39
647.11,1164,3304,14116,128,385,-4
647.12,1180,3232,14252,22,368,9
647.13,1184,3192,14088,-14,339,14
647.14,1200,3304,14188,-51,183,-8
647.15,1164,3208,14188,-63,201,18
647.16,1188,3188,14004,-61,195,52
647.17,1288,3104,13884,-86,174,43
647.18,1336,3176,14060,17,186,-3
647.19,1172,3236,14136,96,272,8
647.2,1316,3156,14072,171,325,-13
647.21,1220,3308,14172,262,390,-26
647.22,1208,3248,14148,209,349,-45
647.23,1160,3120,14008,94,359,-3
647.24,1092,3208,14040,-58,295,11
647.25,1168,3200,14060,-142,228,39
647.26,1180,3188,14024,-152,175,31
647.27,1124,3304,14104,-41,250,18
647.28,1180,3304,14168,137,282,-51
647.29,1132,3248,14136,289,332,-27
647.3,1368,3316,14168,262,349,-76
647.31,1256,3244,14052,115,340,-29
647.32,1228,3232,14232,18,272,-2
647.33,1208,3204,14116,-62,269,1
647.34,1224,3316,13908,8,294,3
647.35,1156,3372,14220,71,240,1
647.36,1112,3288,14044,-40,246,6
647.37,1176,3220,13912,-53,255,15
647.38,1104,3304,14064,106,229,-17
647.39,1224,3400,14092,189,274,-39
647.4,1084,3320,14228,196,304,-36
647.41,1168,3304,14188,184,286,-27
647.42,1244,3336,13996,122,251,-47
647.43,1212,3232,14160,93,302,-7
647.44,1188,3324,14256,214,434,-44
647.45,1092,3332,14176,217,420,-54
647.46,1124,3316,14116,-124,248,-10
647.47,1104,3276,14152,-304,175,-9
647.48,1236,3356,14220,-254,156,-28
647.49,1024,3136,14292,-470,185,19
647.5,972,3392,13680,-1473,-29,173
647.51,1400,3200,13852,-1419,-249,171
647.52,1404,3280,14632,173,223,-46
647.53,1260,3476,14484,201,296,-68
647.54,1076,3384,14280,-631,-18,105
647.55,1216,3204,13832,-870,-198,128
647.56,1268,3008,13468,-1413,-400,305
647.57,1168,2888,13340,-1480,-467,318
647.58,1248,2840,13576,-139,-151,120
647.59,1328,3152,14176,790,202,-27
647.6,1248,3180,14196,1298,368,-90
647.61,1260,3216,14236,1459,488,-69
647.62,1180,3364,14300,1453,719,-46
647.63,1164,3328,14248,1341,563,-32
647.64,1192,3504,14224,1147,428,2
647.65,1096,3432,14268,620,390,27
647.66,1156,3532,13940,502,363,26
647.67,1112,3520,13988,498,389,14
647.68,1112,3412,14020,724,375,-51
647.69,1104,3524,13968,910,374,-59
647.7,1188,3496,14060,999,327,-80
647.71,1268,3428,14240,907,264,-64
647.72,1032,3516,14088,795,245,-20
647.73,1204,3476,14104,599,315,-6
647.74,1164,3504,14152,568,365,-27
647.75,1180,3580,14076,455,334,-37
647.76,1092,3636,14048,328,319,-33
647.77,1152,3552,14076,312,283,-40
647.78,1116,3620,13864,283,295,-47
647.79,1224,3496,14108,341,306,-34
647.8,1180,3596,14008,360,301,-21
647.81,1172,3696,14040,404,386,-37
647.82,1084,3608,14016,627,431,-59
647.83,1156,3624,14080,723,402,-66
647.84,1068,3784,14032,730,422,-72
647.85,1248,3784,14124,632,339,-48
647.86,1092,3724,14184,578,414,-32
647.87,948,3720,13932,350,488,1
647.88,1004,3692,13832,12,246,28
647.89,1220,3636,14048,385,353,-22
647.9,1152,3784,13936,600,384,-54
647.91,1096,3776,13816,449,317,-34
647.92,1036,3868,13860,323,298,-32
647.93,1028,3748,13960,342,329,-27
647.94,1096,3792,14040,465,347,-23
647.95,1032,3836,14052,487,270,-52
647.96,1108,3728,13980,358,302,-24
647.97,1140,3852,13952,343,281,-29
647.98,1180,3792,14048,269,298,-23
647.99,1104,3892,14004,245,270,-32
648.0,1124,3892,13956,214,272,-10
648.01,1152,3776,14028,192,271,-3
648.02,1084,3828,13844,130,312,-14
648.03,1144,3784,13908,238,295,-18
648.04,1208,3836,14028,332,354,-7
648.05,1044,3800,13916,156,260,10
648.06,1152,3960,13848,-75,239,41
648.07,1208,3840,13988,-11,296,-10
648.08,1080,3956,13944,-36,267,2
648.09,1092,3892,14112,-116,246,18
648.1,1036,3808,13976,-158,213,17
648.11,1004,3932,13752,-171,208,49
648.12,1064,3924,14036,-80,220,43
648.13,1100,3908,14016,14,274,24
648.14,1056,3896,13916,114,306,3
648.15,1076,3996,14012,286,322,-32
648.16,1092,3972,14080,302,323,16
648.17,1028,4036,13936,340,382,-41
648.18,1036,4000,14020,308,397,-4
648.19,1032,3904,13960,291,337,-18
648.2,968,3972,13904,330,410,-27
648.21,972,4056,14008,279,341,-21
648.22,1056,4024,13932,276,362,-23
648.23,1036,3912,13844,236,287,-9
648.24,1112,3996,13944,249,359,-31
648.25,1060,3964,13896,230,295,-40
648.26,960,4040,14028,236,304,-39
648.27,980,4036,14064,267,334,-46
648.28,1096,4016,13860,216,325,-65
648.29,1036,4048,13984,184,332,-16
648.3,1056,4080,13928,140,313,-34
648.31,1084,4064,13836,177,291,-32
648.32,1044,4120,13892,126,267,-34
648.33,1032,4068,13928,151,269,-7
648.34,872,4136,13952,126,232,-18
648.35,972,4028,13888,152,272,-17
648.36,992,4160,13980,161,323,-37
648.37,952,4164,13880,145,332,-28
648.38,920,4200,13956,103,359,-46
648.39,1032,4180,14008,47,304,-25
648.4,980,4140,13968,19,259,5
648.41,1052,4152,13980,-180,259,-10
648.42,1056,3964,13832,-275,207,10
648.43,1004,4068,13880,-358,215,12
648.44,1040,4116,14004,-351,283,-18
648.45,1020,4108,14284,-267,430,-43
648.46,1040,4244,14084,-364,410,-17
648.47,788,4260,14016,-825,183,49
648.48,916,4188,14024,-1269,19,129
648.49,868,4088,14072,-1549,-153,172
648.5,952,4036,14232,-2086,-275,243
648.51,892,4064,13620,-2998,-317,341
648.52,1220,3808,13932,-3146,-428,330
648.53,1280,3748,14616,-1961,41,156
648.54,968,3964,14024,-1920,-369,221
648.55,1044,3732,13692,-2941,-796,321
648.56,1124,3616,14092,-2705,-231,264
648.57,1000,3524,13736,-2952,-499,394
648.58,1076,3268,13672,-3028,-729,404
648.59,1296,3388,14032,-2226,-381,256
648.6,1324,3524,14284,-1774,-284,196
648.61,1188,3552,14344,-2083,-499,258
648.62,1104,3516,14256,-2385,-317,284
648.63,1148,3408,14180,-2415,-226,289
648.64,1128,3364,14248,-2484,-379,296
648.65,1192,3284,14276,-2722,-430,294
648.66,1232,3300,14176,-2901,-299,288
648.67,1208,3104,13940,-3157,-381,288
648.68,1220,2952,13884,-3083,-355,272
648.69,1220,2852,13844,-2810,-416,254
648.7,1300,2720,13860,-2465,-434,239
648.71,1296,2764,14152,-1996,-294,160
648.72,1304,2688,14276,-1716,-257,143
648.73,1412,2768,14372,-1704,-270,121
648.74,1428,2776,14384,-1789,-239,106
648.75,1332,2908,14468,-1958,-134,134
648.76,1356,2724,14044,-2420,-340,145
648.77,1452,2612,14184,-2458,-473,149
648.78,1444,2532,14276,-2401,-398,107
648.79,1440,2568,14112,-2324,-345,115
648.8,1420,2456,14260,-2305,-299,85
648.81,1484,2444,14284,-2123,-213,44
648.82,1332,2380,14124,-1969,-170,48
648.83,1404,2356,14252,-1841,-148,33
648.84,1388,2324,14272,-1716,-114,48
648.85,1372,2272,14268,-1690,-189,22
648.86,1448,2164,14328,-1543,-117,31
648.87,1424,2288,14160,-1519,-33,48
648.88,1476,2292,13968,-1912,-198,26
648.89,1500,2052,14140,-1824,-288,55
648.9,1448,2012,14284,-1308,-142,-17
648.91,1576,2092,14428,-1337,-77,20
648.92,1512,2060,14208,-1595,-27,21
648.93,1432,2032,14292,-1704,-117,2
648.94,1492,2092,14368,-1635,-140,24
648.95,1628,2012,14364,-1738,-135,-4
648.96,1564,1960,14364,-1785,-73,3
648.97,1576,1980,14208,-1917,-153,-54
648.98,1520,1612,14544,-1892,-98,-15
648.99,1592,1748,14160,-1789,-198,-21
649.0,1588,1664,14348,-1743,-130,-20
649.01,1560,1704,14300,-1601,-42,-25
649.02,1596,1612,14196,-1590,-117,12
649.03,1576,1540,14236,-1436,-134,-6
649.04,1576,1652,14300,-1236,-79,-36
649.05,1448,1468,14204,-1205,-21,24
649.06,1592,1472,14420,-1327,-131,21
649.07,1584,1500,14392,-1282,-90,9
649.08,1624,1440,14300,-1201,-8,-20
649.09,1664,1504,14228,-1214,-41,-14
649.1,1544,1440,14360,-1367,2,-23
649.11,1592,1416,14296,-1320,-12,-6
649.12,1632,1416,14244,-1230,43,-45
649.13,1656,1456,14392,-1197,-30,-8
649.14,1652,1360,14196,-1182,-50,-17
649.15,1596,1352,14408,-1108,-12,-9
649.16,1584,1320,14148,-1054,-93,9
649.17,1616,1332,14328,-890,12,19
649.18,1680,1200,14392,-799,42,21
649.19,1704,1276,14288,-702,73,-1
649.2,1728,1248,14272,-575,102,-14
649.21,1728,1240,14088,-628,49,7
649.22,1616,1156,14144,-593,16,39
649.23,1780,1200,14112,-333,72,27
649.24,1708,1220,14084,-216,79,24
649.25,1668,1176,14048,-8,115,26
649.26,1808,1152,14260,189,239,6
649.27,1712,1212,14264,352,363,-3
649.28,1808,1200,14276,492,404,-24
649.29,1700,1132,14272,622,384,-39
649.3,1720,1220,14284,747,418,-34
649.31,1724,1268,14400,924,467,-43
649.32,1676,1252,14300,1074,558,-56
649.33,1628,1436,14304,1082,554,-51
649.34,1616,1364,14416,1040,562,-60
649.35,1704,1384,14160,828,416,-27
649.36,1692,1328,14164,661,303,-1
649.37,1604,1372,14304,883,480,-37
649.38,1632,1464,14428,1119,668,-73
649.39,1556,1596,14540,1092,613,-67
649.4,1500,1480,14332,1024,516,-80
649.41,1628,1540,14204,973,449,-43
649.42,1688,1508,14052,981,348,13
649.43,1676,1576,14412,1259,500,-6
649.44,1612,1592,14604,1353,726,-30
649.45,1468,1820,14088,606,685,28
649.46,1636,1480,13824,-303,131,124
649.47,1808,1464,14624,786,614,-15
649.48,1676,1732,14228,2010,327,-105
649.49,1580,1756,13912,1168,20,-15
649.5,1796,1544,14552,1527,560,-116
649.51,1588,1884,14384,1868,926,-129
649.52,1356,1824,13592,515,-59,87
649.53,1796,1716,14108,799,399,49
649.54,1696,1776,14500,1590,836,-75
649.55,1632,1980,14604,1763,781,-115
649.56,1512,2060,14520,1629,647,-67
649.57,1468,2120,14360,1386,543,-26
649.58,1424,2156,14328,1363,589,30
649.59,1384,2128,14388,1371,542,26
649.6,1460,2136,14376,1331,415,-5
649.61,1448,2248,14240,1107,405,24
649.62,1572,2228,13996,867,418,28
649.63,1396,2132,14076,751,520,-1
649.64,1572,2136,13856,1054,515,-37
649.65,1576,2088,14168,1297,507,-12
649.66,1560,2236,14208,1556,490,-30
649.67,1484,2272,14188,1672,438,-18
649.68,1508,2288,14424,1656,470,-61
649.69,1504,2376,14308,1708,486,-42
649.7,1532,2368,14268,1527,500,-17
649.71,1460,2464,14152,1452,496,-50
649.72,1456,2344,14204,1460,456,-7
649.73,1480,2440,14124,1407,487,-31
649.74,1432,2436,13940,1473,444,-43
649.75,1492,2500,14040,1620,468,-34
649.76,1444,2536,14048,2072,511,-69
649.77,1372,2608,14160,2514,576,-75
649.78,1368,2764,14064,2762,661,-176
649.79,1376,2824,14340,2845,564,-107
649.8,1348,2948,14280,2980,979,-141
649.81,1216,3084,13900,2249,667,-74
649.82,1420,2952,13956,2018,613,-79
649.83,1300,3032,14288,2463,820,-132
649.84,1320,3160,13860,2143,547,-121
649.85,1356,3148,14056,2055,669,-160
649.86,1288,3156,14348,2303,771,-173
649.87,1276,3276,14292,2142,663,-132
649.88,1308,3272,14172,1848,632,-151
649.89,1304,3356,14120,1535,498,-95
649.9,1124,3524,14088,1438,493,-101
649.91,1324,3432,14212,1471,525,-134
649.92,1232,3536,14172,1413,539,-163
649.93,1288,3528,14188,1321,546,-166
649.94,1248,3404,14104,1185,600,-145
649.95,1232,3572,13952,1148,582,-137
649.96,1192,3484,14004,1270,500,-101
649.97,1184,3576,14068,1170,516,-98
649.98,1236,3580,13972,1092,469,-114
649.99,1244,3624,14056,1125,421,-83
650.0,1284,3608,13956,1075,466,-107
650.01,1252,3580,13912,1119,543,-108
650.02,1124,3704,13988,1136,549,-80
650.03,1176,3836,14032,915,462,-109
650.04,1124,3776,13888,960,461,-82
650.05,1140,3844,13848,853,489,-79
650.06,1092,3816,14016,746,504,-65
650.07,1024,3840,13960,784,447,-56
650.08,1188,3896,14020,795,460,-45
650.09,1100,3904,13864,706,471,-44
650.1,1164,3900,13920,835,464,-50
650.11,1184,4040,13968,800,429,-40
650.12,1120,3960,13908,814,470,-33
650.13,1076,3944,13916,701,482,-55
650.14,1140,4020,13808,685,450,-44
650.15,1224,4060,14008,666,460,-56
650.16,1204,4004,14036,525,441,-45
650.17,1160,4044,13876,527,458,-55
650.18,1180,3972,13964,509,471,-79
650.19,1028,4100,13940,526,486,-77
650.2,980,4084,13880,530,465,-64
650.21,1008,4048,14032,520,394,-66
650.22,1088,4040,13972,449,414,-66
650.23,1096,4092,13816,456,410,-47
650.24,1064,4148,13800,420,381,-62
650.25,1024,4176,13772,393,362,-68
650.26,1016,4156,13780,394,363,-29
650.27,976,4192,14008,393,363,-49
650.28,1076,4156,13960,360,377,-73
650.29,1044,4124,13708,358,413,-46
650.3,992,4220,14024,348,360,-75
650.31,972,4244,13900,321,378,-31
650.32,1028,4248,13788,361,358,-41
650.33,1064,4184,13844,357,366,-36
650.34,1052,4252,13716,289,311,-40
650.35,1100,4188,13972,359,383,-24
650.36,1052,4340,13976,327,354,-21
650.37,1056,4272,13860,153,326,-9
650.38,1132,4252,13744,53,294,-17
650.39,1024,4268,13888,-46,256,2
650.4,1040,4344,13852,74,353,-29
650.41,1096,4216,13904,377,523,-87
650.42,1024,4392,13932,447,521,-113
650.43,960,4384,13964,340,483,-86
650.44,908,4312,13760,100,367,-44
650.45,972,4320,13740,-17,301,-15
650.46,988,4284,13996,10,174,16
650.47,856,4360,13748,-398,130,103
650.48,1036,4192,13396,-964,-119,159
650.49,1276,4148,14308,132,463,-15
650.5,1148,4524,14432,780,596,-154
650.51,880,4492,14020,-80,-74,-7
650.52,1080,4332,13604,-551,14,63
650.53,912,4340,13704,-653,101,102
650.54,824,4164,13428,-807,-103,187
650.55,1148,4060,13624,-284,0,83
650.56,1140,4328,13944,28,85,31
650.57,1004,4288,14008,130,-84,20
650.58,892,4396,14024,99,-17,76
650.59,884,4364,14024,93,72,66
650.6,956,4352,14040,79,53,51
650.61,1144,4344,13876,0,112,57
650.62,1012,4392,13824,-157,200,31
650.63,1052,4404,13896,-190,275,26
650.64,1056,4344,13672,-206,290,2
650.65,952,4280,13728,-78,255,-21
650.66,1100,4396,13688,-49,255,4
650.67,1100,4340,13900,-127,236,30
650.68,1104,4292,13944,-325,198,31
650.69,1028,4256,14084,-541,159,59
650.7,1020,4344,14096,-767,174,59
650.71,1072,4320,13924,-1153,43,132
650.72,904,4332,13928,-1454,-59,178
650.73,1012,4316,14040,-1795,-182,266
650.74,1108,4284,14128,-2265,-308,377
650.75,1036,4300,14056,-2928,-507,458
650.76,1064,4056,14036,-3328,-634,517
650.77,1144,3952,13816,-3196,-674,496
650.78,1068,3840,13740,-2743,-630,455
650.79,1096,3748,13932,-2193,-438,336
650.8,1172,3820,13864,-1734,-214,243
650.81,1180,3728,13960,-1502,-58,162
650.82,1284,3708,14088,-1453,58,107
650.83,1204,3740,14240,-1271,401,88
650.84,1128,3676,13816,-1825,36,187
650.85,1148,3624,13720,-2334,-126,202
650.86,1220,3508,13956,-1786,-55,118
650.87,1220,3568,14224,-1358,-168,130
650.88,1164,3564,14092,-1459,-194,147
650.89,1248,3672,13980,-1592,-97,139
650.9,1196,3608,14276,-1645,-60,144
650.91,1212,3564,14184,-1750,-134,185
650.92,1268,3400,14020,-1931,-256,193
650.93,1424,3452,14132,-2037,-197,186
650.94,1356,3404,13992,-2032,-146,181
650.95,1228,3288,14112,-1956,-150,162
650.96,1272,3324,14164,-1787,-80,127
650.97,1176,3208,14196,-1863,-104,159
650.98,1260,3124,14132,-1888,-51,127
650.99,1352,3044,14088,-1728,-87,113
651.0,1484,3096,14112,-1567,-61,94
651.01,1324,3068,14112,-1552,-110,80
651.02,1432,3008,14044,-1651,-84,110
651.03,1368,3148,13920,-1621,-69,74
651.04,1304,2944,14152,-1548,-116,97
651.05,1260,2852,14076,-1492,-87,69
651.06,1328,2912,14288,-1490,-89,75
651.07,1432,2824,14056,-1514,-76,97
651.08,1328,2848,14004,-1615,-78,93
651.09,1360,2832,14076,-1620,-94,103
651.1,1392,2844,14132,-1491,-86,96
651.11,1300,2920,14136,-1497,-91,74
651.12,1388,2756,14140,-1530,-90,86
651.13,1468,2720,14156,-1475,-108,70
651.14,1452,2680,14168,-1373,-51,94
651.15,1456,2816,14248,-1403,-39,57
651.16,1360,2680,14256,-1325,-18,81
651.17,1384,2608,14312,-1403,-26,69
651.18,1444,2596,14208,-1442,-65,76
651.19,1360,2608,14072,-1486,-12,51
651.2,1444,2588,14260,-1384,-71,73
651.21,1472,2440,14192,-1277,29,28
651.22,1440,2380,14236,-1266,48,28
651.23,1440,2408,14184,-1389,-65,24
651.24,1372,2372,14132,-1402,-67,38
651.25,1528,2312,14116,-1380,-89,29
651.26,1496,2376,14300,-1346,-88,22
651.27,1516,2324,14188,-1324,-42,-12
651.28,1580,2352,14064,-1289,-51,1
651.29,1588,2340,14296,-1206,1,-6
651.3,1552,2232,14260,-1307,12,-13
651.31,1472,2136,14092,-1202,-55,6
651.32,1468,2200,14200,-1192,5,8
651.33,1512,2200,14360,-1158,-6,24
651.34,1532,2164,14244,-1187,-16,28
651.35,1476,2036,14236,-1163,-48,-2
651.36,1564,1980,14232,-1147,-23,9
651.37,1432,2116,14228,-1127,74,20
651.38,1492,2104,14256,-1109,25,2
651.39,1572,1980,14304,-1134,-2,12
651.4,1516,2032,14364,-1087,37,34
651.41,1572,1900,14320,-1047,27,-12
651.42,1584,2096,14412,-1002,94,-15
651.43,1628,1868,14212,-1006,134,-2
651.44,1500,1928,14352,-1036,102,36
651.45,1500,1904,14260,-1011,69,2
651.46,1524,1860,14112,-1079,-4,0
651.47,1552,1812,14024,-1125,-45,24
651.48,1576,1696,14080,-1031,-37,78
651.49,1680,1704,14496,-650,106,0
651.5,1628,1756,14296,-378,141,-10
651.51,1688,1852,14180,-376,147,3
651.52,1536,1736,14184,-409,93,-14
651.53,1560,1692,14136,-447,-14,15
651.54,1748,1780,14420,-217,164,-17
651.55,1660,1796,14400,-42,341,-32
651.56,1516,1868,14132,-430,325,42
651.57,1412,1872,13464,-1394,-87,125
651.58,1896,1508,14496,-493,305,24
651.59,1720,1668,14740,917,379,-108
651.6,1576,1864,13772,-96,-319,43
651.61,1808,1532,14436,304,322,-33
651.62,1604,1788,14204,550,587,-59
651.63,1492,1720,13684,-551,-205,131
651.64,1812,1620,14076,168,288,51
651.65,1752,1904,14348,866,700,-75
651.66,1628,1896,14708,1008,583,-80
651.67,1528,1944,14476,897,481,-43
651.68,1552,2084,14340,644,464,0
651.69,1516,1960,14212,650,496,8
651.7,1536,1916,14212,557,373,17
651.71,1424,1980,14220,398,245,55
651.72,1572,1884,14252,386,261,32
651.73,1620,1876,13900,278,309,50
651.74,1668,1888,13976,293,356,34
651.75,1512,1840,14140,746,375,-18
651.76,1556,1936,14280,1019,288,-45
651.77,1644,1924,14276,1156,333,-39
651.78,1516,1916,14356,1158,337,-45
651.79,1604,2044,14348,1037,405,-58
651.8,1616,2116,14248,959,457,-88
651.81,1628,2132,14232,901,490,-44
651.82,1616,2016,14180,890,450,-24
651.83,1588,2080,14124,829,385,-30
651.84,1524,2044,14192,821,393,-12
651.85,1552,2212,14124,859,430,-25
651.86,1472,2280,14132,878,424,-26
651.87,1484,2252,14016,1027,461,-50
651.88,1488,2304,14076,1308,469,-36
651.89,1528,2428,14284,1449,516,-82
651.9,1484,2484,14556,1481,556,-84
651.91,1300,2588,14200,1286,635,-32
651.92,1428,2536,13900,537,396,49
651.93,1432,2332,14008,905,506,-54
651.94,1340,2492,14220,1211,508,-70
651.95,1484,2424,14068,969,226,-32
651.96,1468,2456,14056,1277,524,-94
651.97,1416,2452,14200,1525,593,-76
651.98,1464,2516,14176,1423,513,-64
651.99,1484,2676,14060,1193,418,-40
652.0,1312,2708,13912,1067,356,-70
652.01,1552,2716,14268,1096,436,-79
652.02,1612,2664,14220,1319,502,-107
652.03,1352,2792,14420,1416,623,-148
652.04,1412,2856,14116,1431,639,-116
652.05,1356,2792,14024,1336,620,-117
652.06,1460,2864,14024,1289,583,-73
652.07,1340,2808,14244,1400,594,-131
652.08,1384,2944,14200,1383,546,-98
652.09,1368,2848,14036,1201,557,-91
652.1,1372,2920,14144,1210,576,-95
652.11,1304,2960,14260,1344,576,-113
652.12,1264,3056,14216,1374,537,-102
652.13,1432,3136,14104,1213,497,-76
652.14,1352,3144,14072,1093,523,-98
652.15,1388,3120,14040,1059,504,-50
652.16,1340,3232,14144,1086,531,-40
652.17,1336,3256,14088,1060,520,-70
652.18,1200,3184,14040,1127,506,-54
652.19,1232,3276,13852,1200,555,-77
652.2,1268,3248,14096,1206,514,-70
652.21,1272,3308,13972,1226,534,-101
652.22,1224,3276,14176,1317,582,-101
652.23,1256,3356,14112,1330,542,-113
652.24,1200,3444,14112,1146,545,-108
652.25,1232,3460,14092,1121,513,-96
652.26,1360,3444,14092,1122,519,-100
652.27,1260,3436,14132,1076,586,-126
652.28,1236,3472,14064,1069,564,-114
652.29,1188,3448,13984,1041,527,-108
652.3,1324,3544,14016,1070,535,-113
652.31,1188,3568,14008,1056,576,-107
652.32,1136,3508,13924,996,501,-153
652.33,1240,3628,14108,1081,496,-100
652.34,1260,3744,14008,1016,480,-105
652.35,1164,3636,14056,1019,470,-83
652.36,1184,3592,13988,1020,468,-91
652.37,1116,3704,14060,1045,437,-71
652.38,1148,3708,14024,962,482,-98
652.39,1072,3756,13844,971,452,-85
652.4,1108,3880,14096,901,488,-79
652.41,1120,3720,13904,908,430,-82
652.42,1236,3832,13908,878,461,-98
652.43,1296,3844,13996,897,473,-95
652.44,1040,3944,14092,814,476,-90
652.45,1220,3908,13892,686,449,-59
652.46,1040,3844,13860,583,363,-54
652.47,956,3836,13944,498,354,-19
652.48,1144,3928,14108,697,467,-83
652.49,1176,4052,13960,997,586,-146
652.5,1112,4104,13936,1002,616,-110
652.51,1076,4072,14124,768,501,-89
652.52,1068,4080,13852,524,430,-101
652.53,1096,4116,14064,514,397,-65
652.54,916,4108,14072,459,420,-68
652.55,868,4140,13792,-92,313,91
652.56,1340,3968,13592,-444,166,65
652.57,1380,4072,14304,574,575,-122
652.58,1104,4284,14492,1271,562,-150
652.59,976,4268,13808,65,-59,35
652.6,1060,4208,13816,-11,308,14
652.61,1028,4092,13536,-542,13,125
652.62,1180,3896,13456,-356,12,111
652.63,1224,4064,13720,225,217,45
652.64,1160,4044,14088,538,132,-10
652.65,1072,4220,14060,709,67,8
652.66,1084,4204,14052,653,187,-21
652.67,872,4244,13904,638,251,-14
652.68,1028,4236,13888,559,195,-13
652.69,1056,4356,14096,460,255,-41
652.7,996,4332,13900,355,378,-61
652.71,1124,4432,14016,271,431,-69
652.72,1052,4344,13828,275,396,-45
652.73,984,4228,13700,450,355,-52
652.74,1164,4144,13872,536,295,-23
652.75,1116,4268,13888,497,275,-44
652.76,1000,4160,13952,436,249,-36
652.77,1116,4348,13900,332,253,0
652.78,1088,4256,13948,241,285,-15
652.79,956,4292,13868,174,325,-10
652.8,1004,4220,13860,144,353,-12
652.81,1036,4336,13980,106,311,-13
652.82,1064,4312,13968,59,310,-41
652.83,1092,4280,13872,2,312,-34
652.84,1164,4360,13884,-30,300,12
652.85,1080,4400,13904,56,308,-4
652.86,984,4432,13932,138,325,-15
652.87,1044,4448,13824,161,370,-29
652.88,972,4332,13884,251,358,-34
652.89,936,4492,13736,163,301,-47
652.9,1068,4504,14160,229,411,-65
652.91,948,4464,13984,144,477,-24
652.92,976,4328,13592,-463,117,80
652.93,964,4420,13912,106,305,-39
652.94,1064,4344,13824,24,250,5
652.95,904,4420,13748,-145,259,7
652.96,1076,4436,13852,-42,159,18
652.97,1076,4428,14044,-12,113,-3
652.98,1124,4420,13816,-87,191,13
652.99,1008,4432,13900,-42,192,10
653.0,1064,4496,13980,-77,176,14
653.01,1000,4432,13836,-131,158,22
653.02,1040,4476,13808,-175,222,34
653.03,952,4360,13992,-166,203,41
653.04,868,4364,14008,-104,218,-12
653.05,972,4444,13848,-153,204,31
653.06,972,4408,13836,-348,128,13
653.07,1028,4404,13792,-399,145,57
653.08,952,4416,13916,-391,187,14
653.09,1036,4484,13928,-430,183,7
653.1,968,4404,13800,-467,186,29
653.11,1080,4368,13764,-582,151,38
653.12,936,4364,13896,-697,176,41
653.13,992,4352,14000,-819,144,81
653.14,952,4368,14108,-800,147,56
653.15,936,4372,14016,-810,156,72
653.16,880,4372,13912,-886,90,65
653.17,972,4396,13716,-1091,21,103
653.18,1080,4212,13944,-1127,39,110
653.19,960,4212,13988,-1121,53,98
653.2,1080,4204,13868,-1199,-8,157
653.21,1144,4228,13944,-1400,-22,182
653.22,960,4176,13832,-1468,-39,148
653.23,1100,4188,13900,-1409,-40,131
653.24,1032,4144,13864,-1469,-28,129
653.25,972,4124,13960,-1577,-5,127
653.26,1028,3988,13820,-1612,-5,141
653.27,1028,3996,14044,-1610,-101,181
653.28,1112,3992,13996,-1598,-44,156
653.29,1096,3900,13900,-1656,-85,164
653.3,1156,3928,14028,-1653,-107,174
653.31,1128,3904,13972,-1716,-122,194
653.32,1144,3876,13852,-1826,-74,197
653.33,1256,3748,13992,-1843,-107,190
653.34,1120,3748,13840,-1781,-100,170
653.35,1084,3748,13920,-1755,-125,159
653.36,1180,3740,13952,-1670,-64,155
653.37,1168,3676,13992,-1632,-35,162
653.38,1052,3584,13992,-1611,-60,156
653.39,1188,3684,14060,-1645,-28,169
653.4,1080,3592,14040,-1659,-39,151
653.41,1268,3576,14028,-1616,-49,140
653.42,1208,3544,14000,-1700,-78,131
653.43,1240,3476,14128,-1728,-89,152
653.44,1180,3420,14060,-1878,-156,187
653.45,1116,3352,14000,-1913,-210,172
653.46,1212,3356,14268,-1209,65,76
653.47,1160,3288,14148,-1322,-17,107
653.48,1176,3208,13992,-1467,-122,124
653.49,1168,3216,13988,-1517,-235,148
653.5,1304,3152,14344,-1333,-147,139
653.51,1120,3164,14392,-1624,-57,203
653.52,1288,3220,13620,-2607,-301,267
653.53,1624,2804,14244,-1955,-127,106
653.54,1308,3056,14496,-703,42,29
653.55,1148,3064,13824,-1579,-669,177
653.56,1552,2836,14256,-1739,-334,107
653.57,1208,2868,14120,-1325,29,98
653.58,1244,2756,13632,-2339,-697,285
653.59,1516,2404,14464,-888,1,30
653.6,1540,2516,14208,-1029,12,43
653.61,1456,2464,14288,-1042,54,55
653.62,1488,2444,14220,-1119,-41,36
653.63,1508,2280,14204,-1267,-11,32
653.64,1552,2484,14112,-1231,-43,-12
653.65,1448,2364,14304,-1153,91,-2
653.66,1496,2352,14164,-1174,57,37
653.67,1464,2320,14108,-1025,74,-9
653.68,1452,2380,14168,-806,72,-2
653.69,1456,2336,14356,-680,132,-4
653.7,1572,2220,14384,-676,191,-9
653.71,1536,2244,14400,-458,363,-13
653.72,1320,2440,14008,-1038,41,70
653.73,1564,2120,14116,-1033,15,69
653.74,1536,2096,14084,-698,-93,32
653.75,1672,2212,14356,-461,53,-32
653.76,1588,2160,14160,-301,85,-14
653.77,1584,2120,14044,-358,131,21
653.78,1524,2188,14220,-269,148,8
653.79,1512,2184,14188,-288,95,35
653.8,1608,2152,14144,-108,134,-9
653.81,1560,2184,14232,-35,169,0
653.82,1604,2108,14348,69,265,-21
653.83,1568,2148,14296,160,353,-18
653.84,1496,2092,14216,112,336,3
653.85,1508,2124,14304,160,355,-11
653.86,1556,2176,14280,296,408,-37
653.87,1480,2160,14200,324,365,-47
653.88,1540,2148,14256,309,318,-37
653.89,1428,2144,14132,380,387,-43
653.9,1640,2128,14020,605,397,-56
653.91,1436,2176,14100,744,411,-53
653.92,1544,2292,14184,782,379,-37
653.93,1484,2280,14296,782,446,-45
653.94,1428,2356,14268,721,480,-15
653.95,1492,2376,14252,706,477,-29
653.96,1504,2388,14192,697,486,-25
653.97,1416,2376,14236,760,438,-33
653.98,1436,2420,14208,799,443,-43
653.99,1396,2372,14248,811,410,-25
654.0,1408,2336,14264,860,408,-38
654.01,1528,2480,14208,868,483,-54
654.02,1412,2456,14092,867,488,-48
654.03,1460,2480,14228,851,468,-47
654.04,1444,2516,14208,838,452,-57
654.05,1420,2492,14176,996,500,-82
654.06,1468,2548,14180,1130,529,-75
654.07,1384,2624,14132,1197,571,-63
654.08,1440,2604,14144,1244,528,-60
654.09,1356,2680,14036,1270,514,-74
654.1,1424,2740,14184,1248,527,-69
654.11,1404,2612,14152,1181,479,-79
654.12,1320,2780,14148,1179,493,-81
654.13,1428,2792,14164,1117,519,-80
654.14,1344,2896,14260,1093,474,-69
654.15,1396,2860,14160,1110,478,-69
654.16,1308,2900,14220,1056,466,-33
654.17,1336,2848,14144,1094,453,-57
654.18,1344,2964,14100,1056,486,-63
654.19,1264,2936,14124,1013,466,-62
654.2,1372,2976,14116,1036,501,-71
654.21,1260,2948,14248,1090,575,-95
654.22,1304,2976,14196,1116,590,-99
654.23,1200,3096,13992,1012,587,-88
654.24,1200,3012,14000,881,582,-106
654.25,1284,3104,13944,856,468,-75
654.26,1408,3000,13988,1041,521,-128
654.27,1316,3036,14228,1425,690,-117
654.28,1344,3196,14224,1733,731,-182
654.29,1248,3320,14224,1651,689,-174
654.3,1160,3312,13924,1381,599,-114
654.31,1216,3316,13944,1285,489,-86
654.32,1220,3336,14056,1404,452,-90
654.33,1160,3376,14248,1288,441,-47
654.34,1068,3404,13720,375,362,73
654.35,1412,3216,13960,506,374,-44
654.36,1276,3488,14488,2009,678,-198
654.37,1056,3680,13956,943,147,-27
654.38,1296,3492,14200,752,518,-76
654.39,1060,3496,13836,404,330,24
654.4,1140,3488,13408,-172,-21,117
654.41,1320,3316,13836,836,377,-43
654.42,1172,3508,14224,1408,358,-101
654.43,1252,3600,14348,1579,285,-105
654.44,1200,3616,14168,1558,319,-73
654.45,1128,3744,14084,1459,442,-88
654.46,1048,3824,14052,1345,412,-95
654.47,1148,3820,14112,1073,341,-48
654.48,1128,3828,14124,847,459,-45
654.49,1152,3868,13980,695,415,-66
654.5,1136,3784,13900,658,424,-51
654.51,1180,3744,13788,756,417,-65
654.52,1204,3708,13924,981,413,-65
654.53,1168,3820,13992,1149,392,-70
654.54,1176,3864,14088,1019,320,-43
654.55,1168,3960,14152,909,312,-86
654.56,1192,3928,14028,766,375,-53
654.57,1192,3960,14008,635,430,-49
654.58,1164,4040,13932,638,434,-45
654.59,1160,3968,13916,544,395,-58
654.6,1220,4124,13944,536,391,-58
654.61,1136,3968,13996,465,395,-74
654.62,1080,3944,13880,495,409,-80
654.63,1144,4180,14056,511,433,-29
654.64,1060,4104,13984,571,436,-59
654.65,1000,4072,14016,670,462,-65
654.66,976,4212,13936,704,427,-58
654.67,1088,4080,13956,664,359,-64
654.68,1172,4184,14076,758,485,-97
654.69,1044,4216,14064,757,677,-72
654.7,1080,4136,13804,230,360,-11
654.71,1016,4084,13608,46,371,-9
654.72,1164,4168,13844,370,377,-71
654.73,1076,4220,14036,617,422,-91
654.74,1140,4196,13828,522,351,-93
654.75,1104,4252,13836,296,342,-12
654.76,1072,4244,13692,280,285,-7
654.77,1072,4212,13852,328,215,-8
654.78,996,4280,13992,313,205,-21
654.79,996,4292,14056,274,259,-4
654.8,1052,4308,13860,310,304,-33
654.81,1068,4324,13920,335,305,-48
654.82,1140,4236,14080,227,285,-19
654.83,1056,4320,13828,166,310,-9
654.84,1064,4328,13896,173,292,-20
654.85,1028,4216,13924,282,314,-36
654.86,1068,4316,13824,201,305,-39
654.87,932,4312,13792,119,281,-30
654.88,1060,4368,13796,145,358,-57
654.89,892,4280,13924,138,401,-67
654.9,912,4336,13788,139,359,-34
654.91,896,4268,13824,77,321,-30
654.92,1036,4356,13904,28,313,-12
654.93,1004,4292,13780,30,265,-15
654.94,1052,4388,13956,24,287,5
654.95,1024,4392,13856,63,275,-7
654.96,1044,4496,13980,41,277,-10
654.97,952,4424,13920,6,266,-7
654.98,956,4376,13772,37,291,6
654.99,984,4336,13900,34,316,-23
655.0,1048,4416,13972,16,283,-23
655.01,1112,4448,13988,-2,298,-5
655.02,1012,4440,13904,-52,281,13
655.03,932,4400,13880,-72,272,-3
655.04,896,4368,13880,-95,257,-25
655.05,1008,4408,13880,-84,277,5
655.06,1064,4308,13756,-92,278,-7
655.07,988,4372,13992,-80,299,-2
655.08,968,4396,13816,-137,275,-7
655.09,1036,4476,13852,-113,281,-20
655.1,1020,4376,13840,-150,244,13
655.11,968,4404,13780,-131,268,-24
655.12,1052,4396,13900,-164,267,-33
655.13,1024,4356,13864,-172,247,-32
655.14,956,4396,13792,-178,210,0
655.15,1032,4420,13784,-189,241,-25
655.16,968,4404,13788,-169,228,5
655.17,1036,4480,13864,-194,242,-7
655.18,908,4376,13840,-206,231,5
655.19,964,4408,13980,-225,240,3
655.2,892,4408,13888,-286,228,22
655.21,968,4284,13916,-328,220,8
655.22,1064,4364,13872,-342,195,43
655.23,1120,4340,13896,-374,198,-6
655.24,992,4372,13672,-393,242,22
655.25,936,4400,13828,-432,214,38
655.26,948,4400,13664,-440,177,23
655.27,988,4368,13888,-510,191,31
655.28,976,4308,13816,-556,152,55
655.29,912,4356,13864,-630,196,45
655.3,920,4392,13828,-639,219,27
655.31,872,4292,13948,-741,222,19
655.32,916,4280,13860,-847,136,57
655.33,956,4332,13916,-1080,95,101
655.34,1092,4128,13852,-1331,36,104
655.35,976,4320,13936,-1463,-64,146
655.36,1116,4108,13808,-1400,4,116
655.37,1008,4176,13992,-1130,163,76
655.38,1040,4156,14048,-1017,174,70
655.39,944,4180,14088,-1065,128,42
655.4,984,4160,13976,-1314,31,81
655.41,996,4092,13792,-1703,-115,177
655.42,1040,4004,14080,-1783,-148,176
655.43,988,3972,13972,-2014,-149,254
655.44,964,3972,13304,-2915,-464,378
655.45,1272,3748,14256,-2334,-142,211
655.46,1112,3928,14424,-952,86,86
655.47,932,3924,14020,-1702,-489,211
655.48,1168,3648,13932,-2220,-371,233
655.49,1076,3592,13896,-2100,-117,256
655.5,972,3420,13460,-2667,-660,352
655.51,1332,3320,13864,-1895,-294,263
655.52,1236,3632,14248,-915,-36,118
655.53,1164,3652,14332,-941,-225,116
655.54,1072,3744,14328,-1096,-250,177
655.55,1036,3628,14096,-1164,-30,134
655.56,1000,3540,14172,-1280,-75,202
655.57,1072,3524,14108,-1498,-130,212
655.58,1248,3664,14136,-1753,-70,175
655.59,1148,3528,14080,-2070,-99,201
655.6,1192,3200,13924,-2220,-194,224
655.61,1248,3204,13736,-1866,-214,205
655.62,1196,3192,13920,-1460,-197,168
655.63,1324,3112,14292,-1112,-92,125
655.64,1244,3232,14344,-971,-67,105
655.65,1188,3208,14140,-1103,-59,98
655.66,1272,3152,14104,-1220,-33,119
655.67,1212,3200,14164,-1323,-69,130
655.68,1288,3148,14160,-1393,-26,133
655.69,1268,3016,13924,-1437,-101,129
655.7,1372,3096,14116,-1538,-137,133
655.71,1352,3136,14204,-1560,-148,123
655.72,1392,3084,14044,-1521,-88,87
655.73,1348,2976,14096,-1450,-36,67
655.74,1340,2960,14088,-1393,-11,81
655.75,1404,3044,14116,-1321,-8,65
655.76,1292,2976,14116,-1342,-28,93
655.77,1256,2872,14180,-1137,19,47
655.78,1380,2880,14132,-1104,-15,27
655.79,1288,2796,14260,-921,214,40
655.8,1312,2836,14172,-1332,-56,117
655.81,1396,2732,13896,-1643,-168,108
655.82,1396,2648,14132,-1226,-78,42
655.83,1284,2716,14132,-913,-76,29
655.84,1380,2688,14256,-980,-38,71
655.85,1368,2740,14216,-1060,16,45
655.86,1392,2724,14288,-979,-25,49
655.87,1356,2744,14244,-1030,-57,24
655.88,1544,2752,14284,-1140,-118,43
655.89,1480,2620,14288,-1182,-43,38
655.9,1324,2580,14176,-1230,-3,12
655.91,1448,2568,14168,-1189,22,15
655.92,1312,2472,14148,-1180,49,19
655.93,1336,2588,14236,-1259,46,44
655.94,1468,2420,14240,-1340,-37,27
655.95,1576,2360,14056,-1262,15,36
655.96,1412,2484,14248,-1205,-32,19
655.97,1268,2436,14192,-1235,-60,24
655.98,1452,2392,14088,-1297,-75,57
655.99,1460,2320,14124,-1166,-30,17
656.0,1504,2344,14164,-1043,-9,49
656.01,1440,2256,14284,-947,60,13
656.02,1452,2348,14212,-1095,39,36
656.03,1456,2248,14228,-1166,56,58
656.04,1552,2272,14184,-1102,81,20
656.05,1552,2316,14148,-1071,47,43
656.06,1412,2208,14244,-1068,46,39
656.07,1408,2256,14104,-952,86,17
656.08,1456,2264,14316,-835,85,40
656.09,1520,2192,14152,-798,80,32
656.1,1480,2160,14132,-762,110,27
656.11,1540,2092,14304,-677,80,31
656.12,1576,2248,14160,-554,145,33
656.13,1440,2152,14296,-470,139,27
656.14,1408,1980,14164,-398,185,10
656.15,1520,2164,14140,-244,247,19
656.16,1504,2084,14156,-193,208,46
656.17,1496,2116,14296,-131,234,9
656.18,1564,2076,14132,-92,210,39
656.19,1528,2100,14024,5,247,15
656.2,1484,2080,14240,95,240,5
656.21,1604,2108,14216,148,264,3
656.22,1496,2044,14204,256,290,-18
656.23,1520,2184,14284,329,317,-22
656.24,1544,2136,14244,374,327,-27
656.25,1572,2120,14248,380,316,-33
656.26,1516,2180,14352,450,363,-46
656.27,1448,2224,14332,426,344,-67
656.28,1408,2232,14228,492,360,-44
656.29,1464,2156,14084,512,350,-11
656.3,1432,2220,14268,551,396,-11
656.31,1496,2292,14208,713,467,-34
656.32,1392,2396,14172,682,472,-51
656.33,1420,2252,14196,680,440,-49
656.34,1408,2412,14228,733,450,-60
656.35,1468,2344,14164,707,460,-13
656.36,1468,2248,14232,671,391,-53
656.37,1416,2304,14076,705,408,-45
656.38,1512,2332,14248,799,469,-43
656.39,1492,2356,14284,1161,626,-92
656.4,1484,2540,14400,1423,685,-76
656.41,1356,2508,14188,1321,566,-110
656.42,1424,2516,14048,1267,461,-58
656.43,1284,2508,14168,1176,393,-59
656.44,1444,2520,14196,1313,394,-27
656.45,1340,2588,14392,1419,566,-63
656.46,1360,2648,14168,672,615,45
656.47,1368,2768,13648,-18,270,84
656.48,1480,2464,14460,935,636,-89
656.49,1532,2704,14296,2060,612,-172
656.5,1232,2856,14060,1380,267,-99
656.51,1456,2664,14320,1262,521,-109
656.52,1256,2780,14296,1404,845,-110
656.53,1204,2804,13456,-25,-88,121
656.54,1420,2664,13980,797,498,-12
656.55,1428,2732,14204,1659,652,-99
656.56,1144,2960,14492,1893,584,-142
656.57,1172,2964,14280,1818,558,-102
656.58,1216,3004,14228,1742,655,-88
656.59,1268,3140,14160,1694,657,-66
656.6,1132,3216,14232,1500,539,-67
656.61,1336,3284,14212,1311,487,-53
656.62,1240,3216,14096,1087,526,-62
656.63,1260,3200,14032,973,520,-27
656.64,1328,3004,13788,1133,518,-76
656.65,1256,3156,13884,1412,512,-86
656.66,1200,3156,14168,1728,435,-101
656.67,1308,3264,14148,1701,437,-94
656.68,1236,3188,14328,1682,466,-76
656.69,1236,3284,14260,1526,517,-109
656.7,1128,3428,14060,1398,543,-111
656.71,1264,3432,13892,1200,594,-103
656.72,1264,3440,13956,1055,509,-78
656.73,1104,3604,14028,1001,472,-115
656.74,1196,3524,14040,904,427,-70
656.75,1072,3548,13940,849,476,-84
656.76,1116,3612,14056,934,433,-65
656.77,1144,3644,13932,1046,456,-89
656.78,1088,3668,14028,1198,505,-95
656.79,1112,3728,14196,1382,448,-91
656.8,1208,3792,14300,1323,434,-132
656.81,1068,3684,14256,1433,784,-142
656.82,1088,3796,13888,891,529,-57
656.83,1140,3752,13756,540,532,-72
656.84,1076,3696,13788,614,479,-59
656.85,1048,3804,14012,745,398,-112
656.86,1132,3760,14048,1022,469,-114
656.87,1088,3856,13992,871,415,-103
656.88,1020,3892,13968,780,383,-53
656.89,1084,3828,14004,757,317,-52
656.9,1084,3948,14008,702,266,-56
656.91,1112,3952,14148,704,302,-58
656.92,1108,3952,14028,711,316,-57
656.93,1120,4004,14092,774,350,-75
656.94,1024,4028,13872,720,418,-79
656.95,988,3916,14004,631,401,-72
656.96,1076,3920,13788,564,403,-63
656.97,1056,3916,13936,588,458,-48
656.98,1064,4112,13876,629,450,-86
656.99,1096,4088,13884,500,379,-57
657.0,1076,4008,13876,424,367,-62
657.01,1116,3936,13864,515,392,-70
657.02,1024,4012,13920,561,404,-93
657.03,964,4100,13992,596,452,-77
657.04,960,4088,13844,523,375,-44
657.05,948,4232,13964,437,387,-36
657.06,992,4172,13960,374,363,-26
657.07,1080,4228,13876,296,346,-1
657.08,1000,4252,13936,343,343,-51
657.09,1120,4212,13952,396,352,-27
657.1,1000,4212,13788,346,318,-18
657.11,1008,4268,13968,359,341,-47
657.12,928,4192,13912,382,339,-45
657.13,1032,4208,14012,415,362,-63
657.14,1068,4192,13876,366,367,-17
657.15,1016,4208,13908,315,347,-41
657.16,952,4132,13776,260,358,-48
657.17,988,4216,13884,256,360,-54
657.18,936,4236,13828,254,322,-44
657.19,1028,4304,13848,182,336,-57
657.2,1048,4220,13936,196,346,-39
657.21,956,4232,13832,181,348,-29
657.22,996,4348,13952,164,295,-54
657.23,1044,4412,13916,182,322,-39
657.24,920,4336,13876,142,345,-57
657.25,896,4276,13856,160,316,-27
657.26,952,4324,13988,143,311,-34
657.27,900,4268,13944,97,322,-39
657.28,1044,4300,13884,114,296,-29
657.29,1044,4356,13928,84,335,-21
657.3,888,4268,13704,102,316,-26
657.31,924,4372,13728,73,337,-23
657.32,972,4304,13864,55,303,-19
657.33,960,4340,13712,61,319,-28
657.34,980,4348,13768,61,340,-23
657.35,964,4364,13932,41,284,-24
657.36,844,4368,13852,32,343,-11
657.37,924,4320,13788,15,310,-37
657.38,876,4292,13772,-9,324,12
657.39,1000,4388,13840,19,310,-26
657.4,884,4384,13764,23,293,-15
657.41,964,4336,13924,18,308,-12
657.42,948,4380,13868,24,293,-11
657.43,912,4464,13776,17,327,-39
657.44,944,4464,13812,-116,234,-19
657.45,868,4408,13872,-213,242,-4
657.46,972,4308,13832,-292,169,38
657.47,916,4248,13700,-171,264,-19
657.48,968,4388,13972,49,427,-48
657.49,844,4468,13844,88,412,-50
657.5,872,4468,13940,-25,331,-55
657.51,792,4380,13744,-243,269,-29
657.52,908,4412,13836,-332,221,0
657.53,936,4452,13936,-194,180,19
657.54,868,4408,13768,-364,91,48
657.55,828,4376,13484,-963,26,127
657.56,1116,4236,13848,-805,98,87
657.57,1212,4364,14324,321,547,-76
657.58,844,4616,13976,-57,-20,6
657.59,948,4344,13852,-532,-92,93
657.6,884,4460,13840,-562,179,81
657.61,768,4212,13508,-1144,-77,166
657.62,884,4096,13568,-798,-142,142
657.63,1064,4252,13776,-308,103,72
657.64,984,4328,14096,-120,-34,63
657.65,900,4332,14100,-60,-95,65
657.66,960,4412,13920,-219,18,80
657.67,784,4404,14000,-187,56,55
657.68,920,4388,14236,-288,55,71
657.69,960,4424,13984,-425,93,57
657.7,1024,4456,13836,-619,119,59
657.71,812,4244,13788,-638,134,55
657.72,904,4296,13828,-590,146,52
657.73,1016,4284,13844,-515,109,52
657.74,968,4200,14016,-570,98,42
657.75,1004,4292,14000,-736,31,82
657.76,1044,4132,13964,-893,-3,102
657.77,1044,4096,13952,-1036,-9,66
657.78,980,4252,13976,-1209,43,151
657.79,1024,4076,14052,-1402,2,148
657.8,988,4188,13988,-1506,-48,173
657.81,1076,4096,13876,-1711,-56,161
657.82,1104,4172,13916,-1808,-167,180
657.83,976,4012,13960,-1870,-147,174
657.84,1040,3868,13896,-1885,-76,209
657.85,1084,3976,13836,-1729,-160,200
657.86,1048,3908,13856,-1631,-69,183
657.87,1060,3880,14032,-1486,26,162
657.88,1056,3812,13940,-1411,-6,137
657.89,1072,3864,13964,-1582,-119,110
657.9,1076,3776,14260,-1333,231,106
657.91,964,3840,13860,-1668,-60,203
657.92,1124,3524,13644,-2208,-210,207
657.93,1116,3644,13920,-1743,-69,183
657.94,1084,3680,14148,-1253,-53,120
657.95,1040,3592,14076,-1444,-146,122
657.96,1244,3536,13872,-1612,-102,157
657.97,1108,3640,13928,-1611,-92,106
657.98,1064,3572,14156,-1553,-94,159
657.99,1204,3508,14104,-1753,-159,139
658.0,1240,3436,14188,-1893,-117,151
658.01,1140,3472,14224,-1830,-75,141
658.02,1180,3456,13980,-1982,-201,169
658.03,1228,3248,14004,-1914,-179,162
658.04,1112,3248,13968,-1996,-225,211
658.05,1128,3120,14088,-1996,-209,184
658.06,1224,3152,14016,-1863,-198,180
658.07,1248,3096,14156,-1712,-142,138
658.08,1228,3144,14040,-1786,-136,125
658.09,1096,3176,14168,-1832,-171,109
658.1,1208,3020,14012,-1828,-228,130
658.11,1308,2968,14068,-1798,-215,150
658.12,1236,2940,14080,-1708,-185,91
658.13,1312,2828,14228,-1606,-127,84
658.14,1404,2864,14192,-1628,-127,113
658.15,1332,2908,14224,-1570,-79,96
658.16,1292,2916,14176,-1575,-86,102
658.17,1204,2868,14208,-1560,-72,103
658.18,1316,2896,14112,-1607,-96,105
658.19,1364,2804,14256,-1594,-112,114
658.2,1376,2728,14220,-1544,-149,63
658.21,1348,2748,14100,-1483,-113,81
658.22,1404,2736,14052,-1397,-53,62
658.23,1452,2636,14240,-1307,4,60
658.24,1452,2660,14132,-1321,-19,35
658.25,1368,2492,14232,-1376,-49,51
658.26,1324,2468,14268,-1304,-31,21
658.27,1328,2560,14252,-1214,-32,23
658.28,1408,2492,14208,-1268,-20,69
658.29,1496,2400,14248,-1256,-12,18
658.3,1484,2452,14080,-1242,-66,-3
658.31,1464,2468,14328,-1212,-41,42
658.32,1476,2388,14280,-1226,-21,12
658.33,1456,2304,14252,-1181,10,21
658.34,1388,2288,14324,-1216,-2,13
658.35,1472,2372,14212,-1167,45,45
658.36,1460,2260,14284,-1136,54,-11
658.37,1464,2244,14256,-1162,39,9
658.38,1452,2256,14216,-1129,55,23
658.39,1520,2208,14196,-1097,-25,21
658.4,1460,2156,14264,-1103,-18,34
658.41,1388,2168,14248,-1060,33,29
658.42,1476,2184,14160,-1033,11,19
658.43,1416,2056,14260,-1038,36,23
658.44,1532,2160,14344,-909,81,22
658.45,1464,2104,14152,-844,1,26
658.46,1456,2148,14116,-776,87,32
658.47,1440,2100,14312,-707,93,34
658.48,1476,1984,14000,-737,84,21
658.49,1456,1996,14148,-571,146,0
658.5,1504,2008,14244,-552,90,10
658.51,1532,2040,14124,-516,84,15
658.52,1552,2036,14100,-464,59,5
658.53,1628,1980,14188,-352,128,49
658.54,1496,1964,14312,102,325,-23
658.55,1616,1988,14364,226,330,-43
658.56,1540,1992,14348,149,240,-9
658.57,1476,2064,14084,124,174,-1
658.58,1432,2008,13992,187,204,13
658.59,1584,1960,14392,552,358,-35
658.6,1476,2084,14508,616,537,-20
658.61,1336,2168,14216,-15,456,57
658.62,1456,1956,13684,-716,13,140
658.63,1736,1880,14804,710,622,-56
658.64,1508,2272,14240,1234,175,-94
658.65,1472,2036,14052,304,-82,28
658.66,1608,2080,14444,1353,696,-120
658.67,1228,2280,13784,284,183,41
658.68,1464,2032,13896,-168,-61,106
658.69,1620,2040,14128,743,534,33
658.7,1520,2252,14504,1190,669,-93
658.71,1464,2320,14512,1292,569,-84
658.72,1464,2404,14412,1159,471,-43
658.73,1420,2428,14216,1011,582,-12
658.74,1300,2456,14176,1016,567,-3
658.75,1308,2380,14296,945,292,27
658.76,1456,2376,14224,891,289,-14
658.77,1372,2296,14072,837,342,33
658.78,1360,2380,13972,753,405,21
658.79,1404,2324,13912,813,440,32
658.8,1464,2304,14028,1167,529,-43
658.81,1400,2440,14316,1597,517,-81
658.82,1428,2436,14312,1802,547,-93
658.83,1304,2508,14236,1737,615,-120
658.84,1368,2552,14280,1596,554,-77
658.85,1368,2600,14208,1497,592,-83
658.86,1348,2708,14188,1417,552,-79
658.87,1384,2712,14224,1386,542,-52
658.88,1264,2880,14232,1205,535,-83
658.89,1376,2744,14132,1049,407,-26
658.9,1368,2804,14060,1094,361,-31
658.91,1312,2780,14012,1281,458,-58
658.92,1244,2840,14092,1502,485,-53
658.93,1308,2860,14236,1796,633,-97
658.94,1180,2980,14204,1994,654,-120
658.95,1256,3060,14308,1919,637,-144
658.96,1236,2996,14316,1936,966,-146
658.97,1244,3160,13988,1394,667,-45
658.98,1360,3084,14156,1088,630,-101
658.99,1224,3164,14044,1363,648,-127
659.0,1132,3172,13992,1197,389,-113
659.01,1316,3108,14160,1488,573,-150
659.02,1284,3164,14156,1537,539,-122
659.03,1196,3308,14140,1429,518,-86
659.04,1220,3420,14044,1348,402,-34
659.05,1204,3436,13992,1221,394,-74
659.06,1244,3372,14036,1153,426,-98
659.07,1180,3540,14216,1216,462,-109
659.08,1108,3636,14056,1299,516,-129
659.09,1228,3464,14092,1232,573,-110
659.1,1180,3528,14076,1075,564,-137
659.11,1104,3476,14024,1054,505,-97
659.12,1216,3508,14148,1090,517,-108
659.13,1052,3564,13988,1095,482,-99
659.14,1180,3612,13944,1047,392,-51
659.15,1116,3612,13820,1040,445,-88
659.16,1164,3556,14028,1127,509,-78
659.17,1220,3624,13976,1175,522,-121
659.18,1084,3676,13968,1108,525,-93
659.19,1116,3792,13940,996,479,-92
659.2,1096,3832,14136,884,441,-61
659.21,1132,3676,13944,840,486,-84
659.22,1148,3920,13996,782,445,-50
659.23,1032,3780,14016,823,466,-80
659.24,1016,3916,13924,836,462,-51
659.25,1096,3880,13940,827,404,-80
659.26,1056,3928,13896,784,458,-94
659.27,1108,3960,14124,799,459,-76
659.28,1140,3928,14056,777,440,-61
659.29,1040,4116,13908,737,400,-52
659.3,1112,3988,13848,671,370,-70
659.31,1004,3860,13948,624,420,-62
659.32,1104,4020,13984,628,395,-53
659.33,1108,3964,13928,599,398,-75
659.34,1020,4068,13924,587,440,-60
659.35,1008,4004,14004,556,440,-81
659.36,1020,4136,13792,554,441,-89
659.37,908,4176,13856,488,404,-77
659.38,1008,4124,13792,433,358,-70
659.39,996,4160,13852,445,338,-29
659.4,1000,4176,13936,429,349,-48
659.41,1000,4160,13820,426,336,-21
659.42,940,4124,13840,399,336,-27
659.43,892,4204,13980,371,341,-34
659.44,1000,4176,13884,370,350,-28
659.45,1060,4320,13868,400,355,-73
659.46,996,4252,13932,369,389,-40
659.47,1008,4236,13888,324,395,-52
659.48,1068,4244,13872,324,386,-53
659.49,1012,4188,13760,304,366,-59
659.5,1016,4276,13844,233,374,-47
659.51,972,4204,13912,275,370,-34
659.52,808,4312,13976,220,326,-26
659.53,996,4320,13972,239,357,-28
659.54,988,4272,13852,270,349,-30
659.55,900,4228,14008,230,334,-19
659.56,956,4288,13860,95,294,-30
659.57,932,4324,13832,45,275,-25
659.58,940,4272,13772,-26,256,-13
659.59,976,4252,13884,112,348,-51
659.6,996,4276,14064,369,478,-85
659.61,788,4280,13900,398,463,-49
659.62,1024,4312,13880,277,400,-73
659.63,940,4296,13876,47,333,-25
659.64,968,4312,13756,-67,268,0
659.65,828,4360,13876,-227,150,72
659.66,892,4292,13468,-963,-86,143
659.67,1236,4200,14012,-205,383,-1
659.68,892,4468,14216,640,430,-119
659.69,816,4456,13940,-213,-42,28
659.7,912,4368,14004,-228,205,31
659.71,768,4256,13636,-659,89,104
659.72,840,4160,13472,-773,-176,156
659.73,1032,4144,13680,-262,97,70
659.74,996,4236,13864,99,141,26
659.75,884,4356,14140,297,-20,47
659.76,896,4420,13788,143,23,29
659.77,932,4376,14016,140,120,76
659.78,912,4316,13920,113,118,42
659.79,924,4404,14136,76,142,42
659.8,960,4416,14004,-22,251,-9
659.81,900,4476,13828,-93,261,3
659.82,892,4316,13676,-30,330,-12
659.83,876,4288,13636,98,275,-38
659.84,964,4352,13860,183,221,-7
659.85,976,4260,13964,146,181,-2
659.86,996,4284,13932,-14,177,40
659.87,936,4404,13976,-157,179,26
659.88,960,4364,13864,-249,223,12
659.89,920,4324,14008,-423,229,21
659.9,960,4396,13896,-616,188,35
659.91,1000,4412,14020,-703,157,46
659.92,924,4408,13860,-810,169,28
659.93,952,4288,13952,-997,141,62
659.94,1004,4340,13632,-1118,38,105
659.95,936,4356,13916,-1139,34,99
659.96,908,4192,13824,-1195,-2,82
659.97,928,4268,14024,-1173,-20,139
659.98,888,4228,14032,-1197,-11,142
659.99,968,4332,13860,-1250,-66,139
660.0,920,4220,13956,-1301,-158,123
660.01,1064,4220,14224,-1197,195,80
660.02,900,4176,13672,-1755,-102,183
660.03,1160,3996,13712,-2099,-220,188
660.04,1148,3832,13912,-1333,-30,107
660.05,1100,4048,14056,-1111,-39,62
660.06,1180,3944,14060,-1362,-35,114
660.07,1048,3940,13916,-1547,-54,129
660.08,964,3852,13996,-1559,-50,133
660.09,1048,3904,13988,-1548,-109,143
660.1,1072,3908,14096,-1709,-111,157
660.11,1012,3900,14128,-1788,-134,164
660.12,1188,3800,14076,-1813,-171,162
660.13,1080,3712,14232,-1806,-181,186
660.14,1188,3500,14140,-1704,-20,148
660.15,1052,3508,14080,-1905,-129,170
660.16,1128,3384,14056,-2073,-215,152
660.17,1220,3312,13988,-1840,-131,141
660.18,1152,3252,14092,-1738,-151,133
660.19,1120,3316,13952,-1756,-147,124
660.2,1156,3284,14124,-1782,-173,148
660.21,1232,3196,14100,-1836,-135,157
660.22,1312,3160,14096,-1798,-158,134
660.23,1196,3212,14200,-1719,-90,145
660.24,1264,3136,14108,-1765,-138,136
660.25,1280,3100,14192,-1800,-64,120
660.26,1208,3020,13904,-1822,-181,129
660.27,1252,3020,14196,-1694,-203,137
660.28,1248,2980,14044,-1599,-89,87
660.29,1248,2908,14132,-1537,-67,102
660.3,1352,2832,14328,-1540,-78,122
660.31,1272,2884,14160,-1576,-93,85
660.32,1324,2964,14128,-1527,-116,117
660.33,1304,2876,14220,-1561,-94,112
660.34,1348,2756,14156,-1421,-101,82
660.35,1324,2712,14296,-1369,-29,71
660.36,1460,2816,14212,-1334,-63,65
660.37,1360,2712,14292,-1299,-39,40
660.38,1404,2724,14208,-1372,-65,42
660.39,1312,2684,14204,-1279,-38,52
660.4,1396,2632,14208,-1278,-29,-4
660.41,1304,2588,14184,-1308,-105,46
660.42,1368,2608,14356,-1274,-44,0
660.43,1292,2472,14268,-1207,-42,26
660.44,1336,2436,14292,-1251,-6,27
660.45,1340,2508,14244,-1277,-21,13
660.46,1356,2504,14112,-1234,10,45
660.47,1408,2544,14312,-1285,-34,18
660.48,1436,2404,14176,-1292,-44,51
660.49,1396,2336,14244,-1172,-15,15
660.5,1576,2320,14224,-1143,-2,45
660.51,1476,2276,14280,-1096,53,28
660.52,1380,2308,14192,-1076,66,39
660.53,1432,2344,14352,-1046,34,34
660.54,1424,2320,14388,-997,90,26
660.55,1444,2392,14336,-1027,42,27
660.56,1468,2264,14176,-1126,-27,21
660.57,1480,2212,14256,-1120,-22,28
660.58,1376,2172,14240,-979,-10,32
660.59,1500,2276,14180,-979,22,-4
660.6,1400,2172,14308,-887,82,29
660.61,1376,2184,14404,-970,107,11
660.62,1532,2116,14296,-919,103,-34
660.63,1428,2116,14148,-914,77,23
660.64,1448,2032,14260,-903,75,23
660.65,1476,2088,14136,-968,2,21
660.66,1412,1972,14092,-944,-12,58
660.67,1524,2036,14296,-636,165,-1
660.68,1472,2000,14496,-402,211,-9
660.69,1500,2132,14420,-483,126,-13
660.7,1496,2012,14356,-597,29,9
660.71,1396,1956,13968,-639,-4,34
660.72,1516,1908,14188,-443,26,7
660.73,1660,1972,14440,-110,333,-18
660.74,1404,2016,14264,-390,304,34
660.75,1460,1976,13676,-1295,27,133
660.76,1876,1708,14476,-787,162,56
660.77,1528,1824,14624,629,366,-104
660.78,1280,1992,14016,-116,-265,16
660.79,1652,1740,14228,15,92,-4
660.8,1504,1944,14324,545,499,-43
660.81,1376,1952,13692,-667,-248,142
660.82,1692,1872,13980,-230,74,126
660.83,1560,1904,14280,553,528,-2
660.84,1520,2008,14560,912,590,-79
660.85,1408,2116,14616,864,514,-77
660.86,1348,2152,14284,513,412,-17
660.87,1380,2116,14232,449,438,41
660.88,1508,2132,14408,422,388,15
660.89,1488,2116,14436,282,324,13
660.9,1452,2056,14224,76,193,35
660.91,1516,2096,14176,-112,194,70
660.92,1380,1976,14024,-55,266,38
660.93,1388,1940,14128,205,297,27
660.94,1440,2020,14092,515,281,-12
660.95,1592,1996,14400,749,266,-10
660.96,1512,2076,14472,758,353,-28
660.97,1532,2232,14508,638,340,-48
660.98,1492,2132,14260,475,377,-38
660.99,1572,2012,14116,356,329,-39
661.0,1428,2084,14156,366,333,-4
661.01,1452,2136,14268,412,272,19
661.02,1424,2136,14112,343,241,22
661.03,1508,2184,14160,407,291,-6
661.04,1484,2288,14192,478,305,47
661.05,1440,2284,14172,700,341,-1
661.06,1348,2276,14160,1033,414,2
661.07,1484,2372,14220,1238,442,-6
661.08,1376,2388,14284,1274,454,-16
661.09,1408,2400,14384,1518,765,-82
661.1,1300,2528,14092,1090,487,23
661.11,1444,2440,13992,816,405,14
661.12,1484,2364,14256,1440,602,-80
661.13,1300,2596,14032,1340,362,-50
661.14,1488,2380,14088,1311,365,-41
661.15,1352,2484,14196,1766,586,-74
661.16,1436,2536,14068,1789,531,-66
661.17,1404,2652,14128,1793,552,-71
661.18,1292,2748,14196,1820,466,-77
661.19,1404,2696,14232,1916,518,-101
661.2,1336,2768,14292,2076,636,-146
661.21,1292,2936,14352,2096,810,-164
661.22,1340,2924,14216,1956,809,-172
661.23,1172,2968,14220,1661,792,-136
661.24,1240,3024,14084,1452,736,-139
661.25,1292,2948,14084,1478,706,-131
661.26,1336,2924,14232,1442,726,-144
661.27,1236,3068,14116,1384,640,-103
661.28,1156,3132,13980,1234,582,-126
661.29,1204,3096,14048,1323,570,-99
661.3,1292,3152,14060,1387,567,-85
661.31,1304,3160,14296,1341,550,-113
661.32,1216,3132,14240,1254,517,-74
661.33,1232,3256,14000,1232,504,-38
661.34,1236,3308,14192,1220,554,-100
661.35,1196,3436,14068,1255,562,-76
661.36,1164,3340,14108,1246,675,-112
661.37,1272,3392,14116,1294,635,-87
661.38,1224,3412,14272,1216,604,-99
661.39,1168,3528,14136,1188,559,-93
661.4,1116,3468,14160,1094,574,-64
661.41,1208,3504,13896,1081,530,-63
661.42,1180,3592,14132,984,452,-74
661.43,1136,3544,14028,887,425,-57
661.44,1104,3636,14004,881,430,-54
661.45,1052,3564,14084,924,439,-85
661.46,1032,3532,13972,971,485,-71
661.47,1116,3644,14128,1046,480,-97
661.48,1228,3596,14024,982,520,-100
661.49,1084,3708,13968,957,533,-90
661.5,1076,3640,14080,973,532,-119
661.51,1084,3740,13876,998,521,-86
661.52,964,3828,14044,888,511,-69
661.53,1072,3796,13968,911,449,-84
661.54,1032,3888,13984,832,479,-62
661.55,1036,3836,14116,837,448,-92
661.56,1052,3848,13928,736,450,-83
661.57,1028,3868,14028,757,406,-80
661.58,992,3928,13876,715,377,-50
661.59,1028,3964,14032,623,406,-39
661.6,1032,3964,14052,601,413,-46
661.61,1008,4020,13860,611,402,-83
661.62,1048,3932,14056,567,391,-78
661.63,1004,4012,13800,552,439,-57
661.64,964,4028,13996,516,433,-51
661.65,1020,4068,13912,522,431,-36
661.66,1088,3988,13948,561,391,-64
661.67,1048,4068,13876,549,444,-65
661.68,1008,3944,13876,546,434,-82
661.69,976,4116,13856,586,422,-66
661.7,976,4072,13872,500,409,-40
661.71,1032,4116,14020,310,309,4
661.72,916,4108,13792,159,280,-29
661.73,1004,4076,13944,308,421,-18
661.74,928,4028,14064,585,531,-73
661.75,924,4224,13940,656,502,-96
661.76,904,4188,14004,500,455,-77
661.77,924,4204,13892,277,362,-51
661.78,936,4088,13892,141,320,-48
661.79,996,4156,14120,255,306,-39
661.8,768,4204,13888,-293,209,72
661.81,1012,4048,13612,-737,-9,98
661.82,1140,4220,14376,765,652,-141
661.83,908,4328,13908,424,189,-73
661.84,956,4144,13972,-13,84,23
661.85,928,4240,13648,-316,238,69
661.86,856,3964,13300,-773,-169,140
661.87,1012,4012,13468,-215,88,110
661.88,1088,4164,14052,212,182,15
661.89,888,4172,14184,552,24,46
661.9,936,4272,13956,505,78,12
661.91,900,4324,14008,477,227,11
661.92,952,4408,14116,431,241,-27
661.93,1000,4352,13964,258,223,11
661.94,1036,4388,13940,64,287,-16
661.95,1012,4316,13588,14,344,-27
661.96,980,4288,13768,41,310,-31
661.97,968,4180,13900,208,286,-22
661.98,916,4264,13912,267,253,-17
661.99,976,4348,13916,273,275,6
662.0,1004,4284,13868,201,226,-18
662.01,968,4280,14024,88,211,-1
662.02,984,4324,14012,9,258,-7
662.03,1068,4208,13812,-60,248,15
662.04,892,4320,13756,-199,260,20
662.05,976,4360,13900,-253,215,-5
662.06,876,4380,13968,-306,203,19
662.07,956,4300,13816,-358,204,9
662.08,1032,4324,13868,-349,236,2
662.09,920,4272,14000,-304,210,26
662.1,932,4396,13992,-259,235,24
662.11,936,4360,13884,-237,252,15
662.12,944,4336,13888,-234,251,12
662.13,936,4344,14004,-218,270,-11
662.14,912,4356,13720,-353,156,2
662.15,1036,4340,14268,-256,476,-41
662.16,832,4368,13580,-827,139,67
662.17,1056,4224,13724,-1301,12,114
662.18,1012,4308,14020,-708,199,45
662.19,856,4280,14016,-820,72,75
662.2,936,4212,13860,-972,49,49
662.21,972,4292,14040,-1171,0,99
662.22,916,4220,13868,-1368,-45,113
662.23,920,4140,14044,-1280,-21,123
662.24,920,4184,14008,-1376,-166,126
662.25,1008,4136,14060,-1582,-183,184
662.26,1036,4124,14060,-1630,-81,177
662.27,1028,4096,14104,-1776,-191,217
662.28,1064,3992,13972,-1819,-160,192
662.29,1092,3964,14032,-1946,-168,209
662.3,996,3880,13960,-2048,-83,196
662.31,992,3860,13884,-2075,-226,217
662.32,1188,3692,14008,-2032,-184,198
662.33,1036,3732,14096,-1850,-137,173
662.34,980,3732,14044,-1899,-177,185
662.35,1104,3756,14044,-1840,-141,168
662.36,1132,3568,14032,-1631,-83,143
662.37,1224,3660,13932,-1655,-67,151
662.38,1148,3652,14028,-1721,-41,164
662.39,1124,3492,14172,-1713,5,125
662.4,1008,3460,14032,-1881,-66,164
662.41,1164,3492,14064,-1973,-90,144
662.42,1108,3572,14068,-2038,-145,189
662.43,1092,3484,14004,-2053,-195,174
662.44,1112,3352,14228,-1961,-209,180
662.45,1192,3336,14020,-1983,-246,192
662.46,1244,3292,14100,-1987,-132,133
662.47,1208,3280,14152,-1867,-159,149
662.48,1116,3232,14056,-1886,-185,152
662.49,1156,3280,14148,-1925,-167,169
662.5,1220,3008,14200,-1850,-173,135
662.51,1112,3020,14200,-1722,-206,145
662.52,1256,3064,14092,-1692,-155,150
662.53,1256,3024,14124,-1583,-150,132
662.54,1280,3056,14232,-1553,-45,74
662.55,1324,3016,14036,-1513,-66,89
662.56,1136,2912,14168,-1565,-75,56
662.57,1180,2892,14196,-1628,-89,53
662.58,1216,2872,14104,-1601,-136,62
662.59,1268,2784,14152,-1583,-105,70
662.6,1272,2792,14128,-1514,-136,78
662.61,1376,2724,14236,-1511,-175,77
662.62,1224,2712,14104,-1403,-69,44
662.63,1224,2704,14240,-1467,-155,84
662.64,1280,2592,14292,-1517,-74,85
662.65,1344,2700,14152,-1437,-97,50
662.66,1288,2596,14140,-1437,-113,93
662.67,1244,2644,14244,-1320,-91,67
662.68,1280,2524,14108,-1272,-25,42
662.69,1276,2532,14212,-1202,-25,26
662.7,1432,2516,14220,-1148,-6,36
662.71,1368,2456,14216,-1281,18,54
662.72,1276,2416,14204,-1308,-20,76
662.73,1484,2408,14148,-1302,-34,48
662.74,1444,2400,14244,-1195,-44,23
662.75,1320,2436,14268,-1092,-21,21
662.76,1408,2308,14136,-1020,-75,14
662.77,1480,2324,14188,-814,40,-32
662.78,1384,2456,14260,-820,108,-42
662.79,1392,2240,14292,-1009,40,-38
662.8,1368,2280,14212,-1127,103,8
662.81,1472,2252,14156,-1288,4,9
662.82,1444,2196,14288,-1521,62,62
662.83,1236,2108,14116,-1506,-67,77
662.84,1180,2112,14004,-1576,-177,111
662.85,1248,2132,14284,-1262,-119,90
662.86,1288,2176,14392,-739,82,40
662.87,1324,2292,14208,-428,66,-24
662.88,1444,2348,14316,-295,95,-90
662.89,1524,2312,14332,-346,70,-107
662.9,1584,2144,14140,-661,5,-62
662.91,1612,1872,14160,-661,36,-42
662.92,1648,1836,14420,-485,176,-47
662.93,1384,1968,14304,-897,187,46
662.94,1472,2032,13412,-1987,-119,97
662.95,1636,1764,14300,-1653,-104,67
662.96,1476,2000,14444,27,150,-91
662.97,1292,2112,13852,-905,-519,69
662.98,1536,1816,14368,-620,64,-6
662.99,1312,1968,14388,-147,339,-28
663.0,1172,1928,13880,-1281,-370,168
663.01,1596,1776,14160,-833,-83,158
663.02,1624,1900,14560,-85,369,42
663.03,1572,2116,14696,155,403,-39
663.04,1548,2164,14576,118,311,-7
663.05,1484,2080,14336,-273,234,21
663.06,1380,2012,14200,-388,226,30
663.07,1484,1972,14216,-502,124,95
663.08,1524,1900,14404,-602,30,85
663.09,1520,1884,14124,-732,28,50
663.1,1492,1828,14220,-741,12,58
663.11,1464,1764,13992,-638,77,50
663.12,1504,1804,14132,-181,123,9
663.13,1552,1668,14236,183,240,-27
663.14,1536,1772,14184,261,223,-45
663.15,1604,1788,14248,256,256,-2
663.16,1568,1824,14276,234,305,13
663.17,1584,1772,14140,198,298,27
663.18,1660,1832,14304,275,314,35
663.19,1508,1804,14232,303,378,75
663.2,1492,1848,14280,337,307,28
663.21,1604,1824,14168,424,331,49
663.22,1516,1876,14124,524,377,35
663.23,1548,1908,14176,716,402,25
663.24,1496,1972,14052,887,405,-18
663.25,1484,2112,14284,975,449,-35
663.26,1532,2024,14312,1104,492,-23
663.27,1364,2072,14456,1137,502,-46
663.28,1480,2092,14292,1055,469,-55
663.29,1584,2096,14360,1350,729,-62
663.3,1368,2164,14064,764,377,2
663.31,1412,2120,14068,678,352,7
663.32,1516,2028,14172,1240,443,-29
663.33,1324,2212,14012,1252,289,-41
663.34,1468,2200,14240,1520,444,-57
663.35,1472,2312,14312,1650,552,-71
663.36,1484,2328,14276,1621,607,-52
663.37,1524,2392,14220,1589,596,-80
663.38,1312,2432,14088,1410,559,-79
663.39,1480,2464,14288,1320,559,-79
663.4,1512,2548,14364,1463,604,-99
663.41,1360,2456,14384,1453,682,-115
663.42,1324,2464,14280,1402,626,-77
663.43,1356,2612,14176,1361,606,-68
663.44,1360,2424,14240,1518,551,-86
663.45,1504,2556,14296,1701,625,-99
663.46,1280,2688,14224,1645,592,-81
663.47,1384,2704,14004,1494,550,-63
663.48,1396,2728,14172,1558,593,-74
663.49,1340,2796,14112,1601,672,-113
663.5,1120,2772,14104,1594,560,-118
663.51,1248,2912,14096,1620,554,-120
663.52,1188,3004,14156,1496,555,-101
663.53,1200,3068,14184,1520,633,-80
663.54,1344,2896,14196,1459,680,-72
663.55,1344,3056,14140,1474,646,-75
663.56,1180,3132,14040,1398,670,-107
663.57,1104,3132,14164,1533,610,-116
663.58,1228,3140,14224,1455,604,-88
663.59,1332,3136,14192,1343,635,-126
663.6,1268,3180,14024,1219,540,-97
663.61,1184,3244,14108,1209,562,-77
663.62,1172,3208,14004,1129,539,-66
663.63,1016,3292,13964,1113,576,-91
663.64,1084,3396,14044,1287,531,-110
663.65,1180,3496,14024,1652,590,-147
663.66,1204,3488,14112,1642,609,-156
663.67,1052,3468,14172,1614,612,-180
663.68,1128,3464,14076,1538,612,-156
663.69,1088,3540,14136,1321,633,-141
663.7,1096,3604,14148,1079,528,-109
663.71,1128,3608,14032,924,523,-92
663.72,1148,3496,14048,972,465,-69
663.73,1040,3700,14008,1050,416,-105
663.74,980,3576,13908,923,454,-114
663.75,1040,3620,13840,991,467,-103
663.76,984,3748,13992,996,466,-91
663.77,1108,3812,13964,936,472,-102
663.78,1092,3800,14008,884,499,-100
663.79,1032,3876,14012,833,477,-70
663.8,1132,3744,14016,774,498,-72
663.81,1016,3852,14052,747,446,-28
663.82,1096,3752,13948,784,400,-22
663.83,1000,3884,14044,772,394,-61
663.84,1032,3876,14020,794,364,-50
663.85,1084,3964,13980,803,376,-77
663.86,1080,4000,13960,734,378,-40
663.87,988,3940,14124,737,408,-70
663.88,1072,4004,14008,737,414,-110
663.89,1016,3952,13908,707,421,-71
663.9,1052,3976,14008,573,377,-68
663.91,1060,3984,13912,394,358,-82
663.92,1060,3964,13800,305,336,-58
663.93,1012,3996,13888,367,312,-55
663.94,1096,4020,14040,627,478,-151
663.95,932,4224,14080,668,515,-90
663.96,964,4044,14008,635,459,-81
663.97,932,4084,13876,384,402,-64
663.98,944,4136,13836,235,335,-53
663.99,1024,4084,13936,409,271,-53
664.0,888,4116,14136,209,257,13
664.01,932,4104,13488,-584,147,122
664.02,1288,3968,13908,-304,246,45
664.03,1112,4164,14408,816,648,-135
664.04,848,4352,14012,584,297,-40
664.05,984,4124,13840,-12,84,44
664.06,1016,4092,14040,62,371,14
664.07,844,4068,13464,-652,39,117
664.08,1016,3904,13576,-539,-14,132
664.09,1028,3964,13772,-9,152,62
664.1,1028,4052,13960,435,58,1
664.11,1016,4176,14100,689,30,-6
664.12,1000,4244,14004,722,89,10
664.13,836,4212,13944,635,246,-17
664.14,940,4384,13980,560,223,17
664.15,992,4380,14116,430,222,-10
664.16,1012,4292,13884,242,318,-3
664.17,912,4260,13824,177,352,-47
664.18,948,4280,13808,166,325,-68
664.19,1008,4268,13852,269,327,-39
664.2,976,4196,13956,491,287,-47
664.21,1040,4220,13904,495,276,-20
664.22,1040,4132,14056,370,259,-11
664.23,928,4312,13948,265,235,1
664.24,988,4224,13856,207,218,-30
664.25,1028,4296,13804,111,271,-19
664.26,976,4280,13784,30,287,-9
664.27,884,4296,13896,-14,299,-32
664.28,984,4340,13976,-68,285,-17
664.29,1048,4372,13884,-74,294,6
664.3,1028,4256,13904,-112,288,1
664.31,836,4340,13804,-74,302,-32
664.32,936,4260,13908,-70,297,-9
664.33,948,4312,13800,20,318,-39
664.34,888,4376,13880,97,325,-27
664.35,920,4456,13980,143,392,-14
664.36,944,4492,13968,133,339,-40
664.37,1004,4376,14060,117,397,-41
664.38,812,4496,13888,14,469,2
664.39,1008,4372,13400,-692,36,105
664.4,1000,4224,13788,-220,363,7
664.41,876,4348,13836,138,341,-27
664.42,852,4308,13948,34,285,-18
664.43,964,4344,13824,-44,246,-2
664.44,944,4364,13856,-206,230,13
664.45,904,4328,13916,-97,181,21
664.46,908,4344,13944,-126,147,27
664.47,984,4292,13932,-251,150,23
664.48,944,4432,13824,-245,170,-2
664.49,984,4384,13972,-220,169,14
664.5,896,4344,14028,-309,139,7
664.51,816,4372,13876,-377,131,49
664.52,988,4412,13788,-477,146,32
664.53,912,4388,14088,-480,221,22
664.54,984,4412,13996,-507,187,25
664.55,888,4372,13828,-719,133,55
664.56,828,4316,13876,-1011,50,97
664.57,1012,4372,13912,-1095,59,97
664.58,948,4284,13872,-1227,32,106
664.59,952,4180,13928,-1330,-14,102
664.6,988,4216,13960,-1458,-74,149
664.61,964,4164,13824,-1565,-33,164
664.62,1000,4204,13908,-1652,-61,176
664.63,944,4188,13900,-1626,-59,171
664.64,1064,4216,13924,-1579,-36,165
664.65,952,4120,13940,-1795,-114,162
664.66,976,4112,13808,-1814,-131,173
664.67,1100,3920,14008,-1767,-67,177
664.68,1020,3952,14140,-1732,-68,166
664.69,1000,3948,14000,-1787,-66,170
664.7,932,3908,13984,-1866,-111,198
664.71,1052,3832,14008,-1919,-114,196
664.72,1068,3780,14008,-1957,-150,222
664.73,1116,3760,13988,-1929,-133,204
664.74,1124,3760,14040,-1914,-99,200
664.75,1192,3684,14052,-1940,-123,177
664.76,1076,3556,14096,-1901,-96,190
664.77,1184,3564,13940,-1798,-110,157
664.78,1164,3520,14016,-1867,-105,161
664.79,1160,3512,14044,-1905,-100,152
664.8,1092,3528,14048,-1832,-58,159
664.81,1060,3476,14076,-1938,-138,153
664.82,1064,3424,14184,-1953,-171,160
664.83,1204,3364,14264,-1877,-183,155
664.84,1076,3372,14224,-1854,-134,179
664.85,1116,3228,14124,-1986,-191,141
664.86,1200,3232,14028,-2006,-266,149
664.87,1224,3244,14176,-1906,-198,122
664.88,1172,3064,14032,-1792,-186,126
664.89,1160,3092,14332,-1702,-129,106
664.9,1216,3096,14088,-1685,-128,132
664.91,1272,2972,14172,-1707,-164,105
664.92,1256,2952,14132,-1677,-180,122
664.93,1160,2884,14024,-1665,-175,100
664.94,1200,2948,14012,-1504,-135,113
664.95,1252,2892,14272,-1396,-90,94
664.96,1328,2888,14356,-1385,-84,113
664.97,1220,2836,14160,-1418,-11,72
664.98,1208,2904,14200,-1500,-11,64
664.99,1284,2756,14204,-1680,-39,85
665.0,1360,2796,14224,-1653,-40,60
665.01,1304,2676,14124,-1647,-52,53
665.02,1232,2592,14104,-1721,-145,64
665.03,1380,2556,13944,-1764,-201,51
665.04,1344,2588,14240,-1690,-133,86
665.05,1320,2628,14172,-1357,18,12
665.06,1312,2516,14416,-1172,54,19
665.07,1372,2612,14376,-1319,17,14
665.08,1308,2556,14124,-1495,-133,8
665.09,1292,2332,13980,-1667,-279,77
665.1,1400,2244,14064,-1491,-232,64
665.11,1552,2336,14424,-1205,-46,50
665.12,1400,2324,14392,-1339,66,71
665.13,1336,2456,13756,-2197,53,89
665.14,1464,2100,14040,-2277,-282,72
665.15,1520,2244,14924,-963,268,-106
665.16,1360,2344,14024,-780,-352,27
665.17,1504,2152,13964,-1825,-686,117
665.18,1616,2064,14620,-928,218,-2
665.19,1360,2188,13876,-1662,-392,149
665.2,1512,1968,13880,-1872,-455,166
665.21,1648,2096,14184,-1007,93,48
665.22,1476,2208,14580,-487,253,-34
665.23,1440,2172,14716,-635,122,-15
665.24,1456,2240,14424,-772,221,30
665.25,1336,2192,14324,-1132,162,53
665.26,1364,2152,14272,-1252,54,68
665.27,1516,2084,14284,-1402,-117,76
665.28,1456,2004,14316,-1512,-99,83
665.29,1376,1800,14192,-1651,-105,52
665.3,1460,1820,14008,-1569,-42,67
665.31,1532,1720,14020,-1194,7,60
665.32,1532,1816,14296,-806,1,32
665.33,1540,1780,14296,-635,6,25
665.34,1520,1744,14492,-678,-25,37
665.35,1612,1736,14212,-711,-18,27
665.36,1584,1796,14380,-788,34,6
665.37,1540,1736,14284,-904,61,15
665.38,1572,1720,14236,-962,14,-2
665.39,1656,1736,14420,-1026,-6,3
665.4,1592,1732,14248,-1072,20,-15
665.41,1536,1800,14292,-1060,13,-19
665.42,1424,1572,14272,-940,6,-18
665.43,1532,1680,14348,-774,80,12
665.44,1444,1632,14404,-673,114,34
665.45,1532,1688,14404,-599,98,26
665.46,1520,1720,14404,-441,130,19
665.47,1500,1740,14252,-489,170,-18
665.48,1572,1548,14576,-445,272,3
665.49,1456,1748,14356,-495,189,7
665.5,1452,1632,13888,-1022,-30,68
665.51,1736,1620,14160,-717,52,36
665.52,1620,1432,14260,-510,-29,18
665.53,1596,1496,14224,-478,10,21
665.54,1564,1464,14252,-251,109,27
665.55,1548,1564,14400,-247,74,46
665.56,1596,1548,14308,-172,113,44
665.57,1588,1556,14384,-255,36,34
665.58,1644,1572,14352,-120,133,23
665.59,1560,1500,14268,-58,181,-22
665.6,1596,1480,14368,11,256,16
665.61,1552,1592,14236,104,313,-48
665.62,1560,1488,14244,125,331,-17
665.63,1444,1428,14288,57,353,-20
665.64,1536,1456,14232,138,285,-13
665.65,1684,1568,14272,296,338,-19
665.66,1556,1524,14308,269,250,-13
665.67,1576,1544,14280,283,292,-28
665.68,1544,1500,14196,286,258,16
665.69,1512,1596,14260,434,327,-4
665.7,1492,1704,14160,398,297,-27
665.71,1416,1632,14300,303,313,-13
665.72,1432,1676,14288,228,359,-19
665.73,1524,1756,14256,184,361,30
665.74,1476,1716,14304,210,357,24
665.75,1500,1748,14464,262,386,2
665.76,1556,1636,14440,254,320,-10
665.77,1620,1656,14400,302,369,-24
665.78,1476,1764,14284,295,362,33
665.79,1520,1736,14268,310,354,-7
665.8,1584,1636,14364,343,306,26
665.81,1508,1756,14284,423,303,-10
665.82,1608,1724,14296,463,339,-27
665.83,1436,1736,14224,495,328,9
665.84,1464,1740,14288,624,369,-21
665.85,1536,1820,14100,744,427,-26
665.86,1536,1832,14364,778,425,-30
665.87,1472,1852,14268,893,411,-7
665.88,1472,1824,14176,1303,436,-35
665.89,1488,1944,14068,1455,430,-11
665.9,1480,1904,14324,1653,586,-36
665.91,1460,2036,14280,1812,611,-31
665.92,1560,2128,14140,1850,580,-47
665.93,1380,2156,14276,1980,719,-92
665.94,1436,2164,14316,1899,741,-96
665.95,1360,2244,14348,1806,624,-112
665.96,1404,2340,14320,1805,524,-68
665.97,1384,2312,14260,1879,126,-24
665.98,1496,2404,14148,1852,69,-33
665.99,1496,2504,14168,1876,215,-68
666.0,1396,2364,13972,1825,201,-41
666.01,1400,2420,14196,1764,359,-30
666.02,1456,2472,14156,2080,480,-36
666.03,1472,2568,14340,2343,729,-138
666.04,1372,2752,14528,2456,860,-152
666.05,1352,2768,14052,2145,703,-122
666.06,1388,2808,14168,1821,605,-107
666.07,1376,2776,14096,1785,626,-93
666.08,1268,2844,14268,1875,637,-117
666.09,1280,3028,14276,1594,768,-38
666.1,1244,3036,13912,562,534,33
666.11,1532,2796,14384,944,720,-101
666.12,1456,2952,14552,2475,893,-258
666.13,1236,3348,13940,1557,373,-79
666.14,1516,3120,14460,1016,649,-94
666.15,1204,3136,14004,1000,712,-59
666.16,1256,3072,13476,-252,-4,124
666.17,1356,2928,13760,533,489,2
666.18,1356,3064,14036,1265,518,-85
666.19,1332,3116,14348,1629,537,-150
666.2,1140,3184,14312,1825,568,-122
666.21,1224,3264,14176,1918,636,-122
666.22,1128,3384,14232,1971,732,-122
666.23,1240,3488,14152,1791,648,-105
666.24,1236,3476,14236,1554,584,-74
666.25,1276,3536,14140,1155,621,-54
666.26,1068,3372,13976,1050,650,-78
666.27,1240,3444,13952,1081,619,-90
666.28,1204,3488,14008,1204,521,-94
666.29,1300,3488,14052,1329,623,-123
666.3,1180,3612,14024,1240,500,-111
666.31,1252,3480,14104,1188,493,-132
666.32,1236,3636,14212,886,504,-89
666.33,1120,3608,14120,875,539,-101
666.34,1148,3668,13908,815,481,-88
666.35,1128,3708,13908,722,459,-80
666.36,1128,3696,13904,652,413,-67
666.37,1176,3660,13988,606,408,-71
666.38,1168,3836,14004,587,419,-79
666.39,1204,3772,13968,657,444,-30
666.4,1016,3728,14052,712,463,-92
666.41,1100,3808,13980,827,523,-74
666.42,1004,3792,13932,861,516,-109
666.43,1056,3828,14104,1000,479,-96
666.44,1128,3968,13932,799,442,-110
666.45,1004,3888,13980,811,539,-63
666.46,968,3984,13612,41,227,11
666.47,1156,3852,14020,367,343,-50
666.48,1004,3924,13992,763,392,-84
666.49,1144,3984,13988,678,357,-72
666.5,1108,3960,13796,505,362,-44
666.51,988,3948,13920,501,349,-31
666.52,1004,4048,13888,474,267,-41
666.53,1080,4128,13864,452,264,-34
666.54,1140,4064,13940,414,279,-17
666.55,1180,4088,13852,461,338,-54
666.56,1120,4220,14084,518,380,-53
666.57,1036,4116,13920,442,373,-51
666.58,1092,4072,13876,355,375,-34
666.59,1008,4036,13928,287,361,-33
666.6,1048,4004,13764,385,365,-36
666.61,1056,4140,13900,415,358,-31
666.62,1000,4052,13804,266,271,0
666.63,1012,4084,13844,317,261,-33
666.64,980,4140,13896,359,292,-36
666.65,1008,4092,13980,347,339,-32
666.66,932,4172,13848,322,317,-36
666.67,948,4168,13980,238,315,-36
666.68,1060,4204,13868,197,329,-22
666.69,1132,4152,14088,173,324,7
666.7,1000,4216,14012,239,341,-32
666.71,968,4252,13860,291,338,-12
666.72,1028,4320,13888,251,320,-35
666.73,920,4256,13868,193,322,-8
666.74,996,4228,13816,207,343,-19
666.75,960,4260,13860,232,343,-17
666.76,924,4352,13852,203,330,-20
666.77,1004,4252,13820,104,317,-9
666.78,1044,4260,13816,79,314,-10
666.79,1032,4204,13776,54,296,-16
666.8,964,4288,13868,80,340,-25
666.81,924,4336,13864,87,349,-38
666.82,888,4264,13752,105,349,-63
666.83,1132,4324,13888,31,321,8
666.84,952,4324,13872,69,335,-26
666.85,932,4340,13772,32,285,-21
666.86,952,4256,13812,9,306,-18
666.87,980,4348,13932,-37,303,-4
666.88,964,4248,13784,-21,273,-20
666.89,1056,4204,13864,-39,310,-6
666.9,976,4392,13948,-58,242,-13
666.91,928,4304,13808,-115,272,8
666.92,996,4356,13980,-116,267,-16
666.93,964,4256,13964,-111,260,7
666.94,968,4312,13948,-88,291,-1
666.95,900,4328,13924,-100,270,-1
666.96,1012,4272,13856,-113,270,18
666.97,900,4264,13864,-125,271,18
666.98,988,4320,13976,-140,288,0
666.99,944,4272,13900,-175,253,-13
667.0,980,4328,13716,-178,243,27
667.01,1036,4280,13792,-201,249,34
667.02,956,4324,13856,-176,255,-1
667.03,884,4280,13836,-191,221,5
667.04,1000,4328,13816,-200,251,21
667.05,944,4368,13964,-219,254,24
667.06,872,4404,13848,-228,234,5
667.07,920,4352,13760,-272,243,2
667.08,912,4284,13848,-279,223,19
667.09,976,4368,13860,-242,223,32
667.1,972,4244,14020,-251,224,11
667.11,1032,4320,13836,-248,218,-15
667.12,968,4320,13940,-267,237,-4
667.13,916,4304,13876,-369,201,21
667.14,888,4228,13784,-475,183,21
667.15,932,4240,13900,-572,130,27
667.16,980,4192,13968,-477,202,29
667.17,844,4288,13964,-274,349,-1
667.18,900,4364,13996,-301,275,-18
667.19,864,4272,13956,-393,222,4
667.2,928,4280,13836,-503,167,33
667.21,800,4204,13920,-703,126,32
667.22,956,4188,14116,-639,103,60
667.23,912,4160,14068,-868,-2,133
667.24,744,4300,13412,-1653,-72,193
667.25,1100,4056,13736,-1595,-126,183
667.26,1168,4132,14528,-172,382,2
667.27,960,4264,14048,-334,-45,25
667.28,964,4092,13984,-1113,-263,140
667.29,1088,4020,13832,-1023,54,143
667.3,852,4028,13528,-1640,-239,226
667.31,1016,3780,13528,-1366,-277,235
667.32,1012,3820,13736,-526,-29,116
667.33,984,4080,14140,-288,-36,50
667.34,952,4136,14156,-345,-180,93
667.35,1012,4076,14004,-497,-39,124
667.36,948,4072,14100,-550,-22,119
667.37,972,4052,14172,-629,-10,138
667.38,964,4120,14228,-802,-8,128
667.39,952,4084,14020,-1066,31,122
667.4,956,4044,13976,-1341,113,127
667.41,1140,3968,13832,-1511,55,121
667.42,1036,3860,13876,-1396,-47,171
667.43,1024,3880,13828,-1391,-137,177
667.44,1016,3808,14084,-1429,-138,159
667.45,1204,3760,14204,-1571,-113,180
667.46,1084,3724,14288,-1695,-64,177
667.47,1140,3732,14108,-1900,-34,190
667.48,1080,3656,14100,-2133,-38,185
667.49,1052,3588,13860,-2188,-119,218
667.5,1128,3476,14036,-2037,-226,218
667.51,1168,3508,13960,-1943,-144,204
667.52,1188,3436,14040,-1943,-216,218
667.53,1128,3512,14008,-1900,-199,200
667.54,1172,3464,14184,-1793,-143,156
667.55,1092,3376,14072,-1656,-151,164
667.56,1164,3428,14028,-1512,-34,150
667.57,1136,3356,14012,-1386,-23,135
667.58,1144,3480,14104,-1330,26,135
667.59,1004,3472,14012,-1478,-58,95
667.6,1168,3228,14284,-1422,149,79
667.61,1064,3304,14072,-1588,-61,183
667.62,1244,3188,13936,-2217,-338,202
667.63,1256,3044,14020,-1941,-264,139
667.64,1160,3068,14208,-1289,-167,89
667.65,1148,3104,14020,-1418,-120,94
667.66,1276,3012,14104,-1502,-161,107
667.67,1264,2984,14152,-1438,-165,103
667.68,1316,2928,14120,-1394,-128,58
667.69,1268,2804,14144,-1408,-65,54
667.7,1316,2924,14272,-1474,-13,84
667.71,1204,2860,14192,-1521,-79,73
667.72,1312,2964,14076,-1507,-121,91
667.73,1152,2740,14132,-1618,-78,46
667.74,1260,2680,14044,-1631,-36,68
667.75,1276,2680,14180,-1625,-112,57
667.76,1348,2704,14160,-1432,-111,26
667.77,1356,2680,14104,-1405,-114,53
667.78,1308,2632,14252,-1402,-133,28
667.79,1376,2596,14164,-1337,-120,54
667.8,1176,2612,14128,-1237,-97,52
667.81,1440,2512,14204,-1119,-123,49
667.82,1400,2516,14164,-1166,-79,69
667.83,1348,2472,14164,-1235,-63,72
667.84,1352,2612,14236,-1208,9,47
667.85,1476,2544,14244,-1247,-31,43
667.86,1316,2456,14132,-1134,-16,38
667.87,1368,2548,14328,-1091,33,41
667.88,1384,2444,14132,-1027,18,44
667.89,1396,2424,14252,-982,20,25
667.9,1468,2368,14356,-992,9,62
667.91,1448,2444,14120,-987,40,29
667.92,1432,2336,14200,-995,35,9
667.93,1356,2272,14176,-1010,-5,35
667.94,1428,2284,14224,-986,-33,47
667.95,1552,2280,14112,-938,22,8
667.96,1444,2304,14264,-943,8,5
667.97,1484,2300,14348,-882,68,-10
667.98,1508,2140,14068,-847,43,-15
667.99,1504,2136,14196,-814,2,10
668.0,1416,2292,14220,-783,3,10
668.01,1588,2088,14232,-778,70,29
668.02,1384,2116,14320,-795,61,13
668.03,1432,2164,14228,-884,60,-2
668.04,1356,2148,14184,-906,19,-16
668.05,1456,2096,14280,-818,16,18
668.06,1504,2204,14180,-814,21,12
668.07,1444,2136,14172,-729,32,10
668.08,1452,1992,14208,-687,49,28
668.09,1520,2052,14132,-672,79,34
668.1,1456,2080,14256,-568,130,25
668.11,1444,1964,14196,-558,130,24
668.12,1500,2068,14252,-488,161,40
668.13,1524,2116,14124,-453,136,12
668.14,1452,1964,14216,-441,162,27
668.15,1424,2048,14356,-452,114,39
668.16,1616,2028,14288,-394,151,33
668.17,1516,1960,14204,-334,132,8
668.18,1464,2008,14220,-315,177,21
668.19,1388,1912,14212,-289,155,20
668.2,1492,1988,14344,-310,134,27
668.21,1512,1996,14292,-242,150,75
668.22,1408,2016,14240,-168,194,21
668.23,1552,1896,14336,-102,218,21
668.24,1540,1960,14248,-140,211,29
668.25,1488,1932,14076,-247,113,12
668.26,1452,1932,14192,-65,205,16
668.27,1588,1844,14308,214,360,-19
668.28,1476,2016,14388,289,322,-31
668.29,1408,2000,14204,254,286,-23
668.3,1412,2032,14292,144,187,-9
668.31,1464,1972,14096,122,169,18
668.32,1600,1976,14132,347,248,4
668.33,1572,2004,14400,540,473,-3
668.34,1476,2144,14180,227,536,48
668.35,1548,2244,13468,-607,237,109
668.36,1712,1824,14200,-106,280,33
668.37,1568,2084,14488,1257,540,-139
668.38,1496,2036,13992,416,-82,-10
668.39,1496,1928,14176,440,74,10
668.4,1556,2088,14276,1307,719,-104
668.41,1292,2144,13776,277,25,78
668.42,1556,1916,13780,140,-4,118
668.43,1524,2096,14204,1182,635,-17
668.44,1496,2248,14700,1743,746,-115
668.45,1524,2248,14488,1696,663,-126
668.46,1364,2376,14240,1369,561,-35
668.47,1464,2436,14068,1270,598,-10
668.48,1376,2488,14276,1399,591,19
668.49,1420,2424,14364,1339,492,-26
668.5,1428,2420,14348,1305,524,-47
668.51,1368,2372,14204,934,514,-17
668.52,1360,2492,14008,492,424,19
668.53,1452,2364,13956,548,411,-13
668.54,1328,2348,14088,785,379,-13
668.55,1312,2452,14176,1113,377,-73
668.56,1448,2396,14304,1184,315,-50
668.57,1276,2588,14144,1057,352,-46
668.58,1280,2564,14384,1059,417,-46
668.59,1444,2612,14276,970,485,-48
668.6,1472,2520,14072,1024,467,-49
668.61,1444,2484,14240,1084,460,-49
668.62,1432,2696,14084,1058,482,-47
668.63,1372,2728,14220,1069,489,-63
668.64,1344,2748,14060,1164,517,-63
668.65,1420,2728,14152,1307,571,-69
668.66,1256,2816,14048,1468,553,-70
668.67,1304,2864,14044,1544,594,-91
668.68,1308,2912,14272,1628,632,-68
668.69,1284,3016,14296,1489,567,-65
668.7,1316,3040,14484,1490,732,-89
668.71,1136,3068,13932,1029,542,3
668.72,1224,3036,13972,670,478,-11
668.73,1348,2904,14108,968,568,-74
668.74,1208,3052,13968,922,343,-76
668.75,1312,3104,14160,1034,374,-80
668.76,1204,3052,14128,1229,508,-80
668.77,1292,3104,14144,1132,465,-78
668.78,1188,3084,14148,1101,460,-76
668.79,1260,3256,14080,975,359,-44
668.8,1256,3212,14156,805,431,-105
668.81,1248,3280,14220,882,451,-116
668.82,1272,3352,14068,915,492,-142
668.83,1232,3304,14240,828,479,-93
668.84,1236,3200,14016,669,465,-86
668.85,1164,3260,14024,612,397,-76
668.86,1192,3188,14104,723,417,-88
668.87,1152,3300,14112,853,376,-61
668.88,1172,3408,13796,711,338,-41
668.89,1176,3208,13944,741,423,-76
668.9,1244,3372,14088,903,411,-59
668.91,1172,3256,13956,978,474,-44
668.92,1192,3444,14164,956,449,-60
668.93,1172,3508,14020,877,414,-77
668.94,1180,3452,14040,784,454,-61
668.95,1156,3624,13956,852,422,-4
668.96,1220,3576,14096,804,396,-40
668.97,1148,3552,14004,870,473,-46
668.98,1084,3648,14032,867,451,-60
668.99,1276,3636,14112,838,450,-40
669.0,1064,3628,14056,851,464,-54
669.01,1228,3624,14052,878,497,-64
669.02,1128,3712,14076,877,494,-86
669.03,1148,3684,14100,813,429,-26
669.04,1084,3744,14016,697,463,-64
669.05,1104,3764,13960,704,370,-42
669.06,1104,3748,13908,628,406,-84
669.07,1240,3732,14048,600,395,-56
669.08,1188,3860,14120,633,395,-66
669.09,1060,3740,14052,662,389,-70
669.1,1076,3844,13916,662,391,-56
669.11,1064,3824,13876,685,366,-74
669.12,1032,3804,13956,654,376,-89
669.13,1128,3828,14068,632,400,-67
669.14,1116,3904,13852,629,378,-63
669.15,1032,3812,13928,583,360,-53
669.16,1104,3868,13984,570,335,-57
669.17,1144,4000,14020,513,364,-29
669.18,1004,4024,13936,481,364,-41
669.19,1048,3960,13976,530,372,-44
669.2,1132,3936,13872,485,372,-57
669.21,1048,4000,13960,501,400,-60
669.22,1016,3988,13924,452,398,-61
669.23,996,3912,13924,495,412,-24
669.24,988,3948,14000,430,388,-54
669.25,1132,4028,13884,444,368,-36
669.26,1020,4032,13844,444,359,-52
669.27,980,4132,13872,433,380,-28
669.28,1024,4056,14048,413,371,-41
669.29,1052,4184,13900,361,383,-59
669.3,956,4212,14076,338,403,-63
669.31,1064,4140,14040,347,402,-57
669.32,956,4180,13944,305,369,-49
669.33,928,4132,13924,172,347,-37
669.34,964,4136,13780,61,259,-48
669.35,996,4104,13820,54,266,-17
669.36,964,4080,14000,256,396,-58
669.37,1008,4172,14124,427,453,-80
669.38,904,4176,13924,331,414,-85
669.39,932,4192,13820,122,335,-50
669.4,996,4224,13756,-58,288,-10
669.41,992,4104,13904,16,279,-37
669.42,888,4108,13984,31,183,-1
669.43,792,4232,13776,-466,199,92
669.44,1172,4108,13708,-781,7,100
669.45,1260,4024,14356,218,489,-58
669.46,1012,4344,14076,700,437,-116
669.47,952,4324,13740,-175,-33,18
669.48,1172,4240,14000,-116,215,27
669.49,984,4244,13664,-551,131,83
669.5,980,3992,13500,-893,-213,172
669.51,1080,3972,13684,-412,-5,107
669.52,1196,4164,14096,-67,118,40
669.53,1012,4104,14212,189,-23,31
669.54,1040,4232,14016,109,6,44
669.55,888,4176,13924,25,139,50
669.56,856,4280,14076,-23,100,56
669.57,1052,4244,13976,-168,77,55
669.58,1076,4292,14036,-262,170,44
669.59,1032,4268,13800,-329,243,58
669.6,980,4252,13784,-342,253,14
669.61,996,4272,13920,-344,241,15
669.62,1028,4164,13900,-326,216,13
669.63,1012,4116,13980,-454,117,28
669.64,1036,4172,13960,-671,65,63
669.65,1004,4040,13968,-919,18,81
669.66,1096,4156,14116,-1099,14,102
669.67,1008,4068,14248,-1331,78,118
669.68,972,4124,14148,-1601,-24,161
669.69,1124,3796,14052,-1665,-62,177
669.7,1104,3836,13996,-1623,38,164
669.71,1044,3832,13772,-1724,-16,156
669.72,1060,3752,13980,-1625,-17,149
669.73,1096,3768,14036,-1590,-50,120
669.74,1144,3680,14312,-1600,57,136
669.75,1044,3660,14212,-1620,169,180
669.76,1220,3400,13756,-2402,-239,218
669.77,1120,3520,14040,-1582,-115,137
669.78,1132,3540,14088,-1604,-346,169
669.79,1264,3468,14016,-1823,-204,179
669.8,1216,3400,14024,-1676,-153,166
669.81,1248,3308,14348,-1600,-121,156
669.82,1296,3476,14156,-1653,-187,137
669.83,1356,3356,14224,-1676,-112,119
669.84,1272,3148,14100,-1731,-108,111
669.85,1272,3260,14212,-1781,-183,158
669.86,1184,3128,14064,-1830,-191,150
669.87,1276,3104,14128,-1771,-176,162
669.88,1112,2984,13980,-1831,-132,95
669.89,1272,2744,14120,-1640,-151,112
669.9,1316,2764,14132,-1576,-119,93
669.91,1468,2592,14228,-1565,-131,74
669.92,1508,2468,14336,-1352,0,12
669.93,1280,2464,14376,-1404,-39,31
669.94,1396,2456,14220,-1355,-75,44
669.95,1348,2384,14072,-1408,-113,30
669.96,1484,2272,14172,-1246,-78,34
669.97,1488,2312,14292,-1217,-45,48
669.98,1588,2408,14296,-1212,-11,21
669.99,1420,2304,14304,-1290,-10,29
670.0,1492,2300,14228,-1358,-32,21
670.01,1564,2248,14208,-1329,-82,3
670.02,1492,2208,14316,-1304,-51,49
670.03,1464,2096,14248,-1241,-29,23
670.04,1496,2196,14204,-1319,-28,16
670.05,1440,2056,14196,-1330,-72,53
670.06,1420,2116,14128,-1314,-105,57
670.07,1496,2004,14280,-1196,34,36
670.08,1360,2096,14296,-1188,-36,37
670.09,1516,2096,14236,-1325,-19,30
670.1,1460,2092,14104,-1355,-80,32
670.11,1552,1960,14124,-1283,-85,34
670.12,1460,1880,14380,-1228,-47,30
670.13,1604,1956,14244,-1151,27,28
670.14,1548,1896,14268,-1120,35,7
670.15,1480,1876,14164,-1214,14,36
670.16,1536,1796,14196,-1189,-9,27
670.17,1576,1784,14328,-1119,38,28
670.18,1524,1708,14148,-1135,-40,24
670.19,1604,1932,14184,-1088,-16,20
670.2,1616,1748,14212,-1020,-14,28
670.21,1668,1776,14228,-1004,-15,41
670.22,1488,1672,14176,-1066,-56,18
670.23,1700,1632,14196,-1000,-87,52
670.24,1644,1568,14276,-819,-16,59
670.25,1592,1584,14236,-509,155,-31
670.26,1688,1676,14456,-329,186,-11
670.27,1580,1636,14240,-351,155,0
670.28,1460,1616,14212,-412,80,34
670.29,1628,1520,13896,-415,-14,50
670.3,1632,1508,14308,-174,54,45
670.31,1660,1568,14440,116,285,-7
670.32,1556,1724,14084,-372,251,109
670.33,1696,1568,13672,-981,-81,144
670.34,1788,1460,14776,225,475,-3
670.35,1548,1716,14192,975,159,-66
670.36,1524,1612,13852,-68,-239,65
670.37,1876,1392,14668,929,551,-69
670.38,1396,1796,14016,722,469,-32
670.39,1572,1456,13696,-210,-167,136
670.4,1728,1568,14216,722,513,11
670.41,1636,1756,14460,1317,744,-84
670.42,1660,1872,14692,1566,712,-91
670.43,1428,1900,14600,1362,587,-80
670.44,1432,1992,14408,854,566,-7
670.45,1404,1988,14156,816,516,-9
670.46,1504,1956,14460,735,367,15
670.47,1612,1880,14416,650,232,25
670.48,1608,1788,14260,617,283,10
670.49,1552,1856,14056,600,371,31
670.5,1476,1812,14052,769,409,17
670.51,1568,1864,14192,1182,479,-29
670.52,1512,1956,14148,1484,466,-33
670.53,1512,1976,14324,1622,447,-68
670.54,1532,1876,14436,1595,439,-61
670.55,1600,2020,14376,1431,452,-49
670.56,1552,2060,14208,1315,475,-50
670.57,1556,2256,14164,1249,434,-72
670.58,1432,2108,14260,1236,475,-54
670.59,1528,2264,14220,1251,482,-58
670.6,1560,2204,14196,1203,523,-43
670.61,1440,2296,14168,1160,558,-64
670.62,1372,2360,14096,1162,512,-50
670.63,1356,2296,14196,1297,485,-37
670.64,1468,2436,14276,1507,538,-39
670.65,1520,2552,14376,1757,559,-54
670.66,1404,2580,14292,1654,533,-90
670.67,1520,2584,14488,1825,781,-96
670.68,1332,2636,14108,1574,653,-8
670.69,1376,2604,13920,1030,514,17
670.7,1436,2540,14220,1438,723,-62
670.71,1368,2584,14084,1494,573,-83
670.72,1364,2756,14152,1312,357,-49
670.73,1480,2588,14184,1561,649,-128
670.74,1256,2756,14100,1516,532,-77
670.75,1436,2856,14196,1350,537,-54
670.76,1352,2864,14084,1199,394,-31
670.77,1372,2896,14352,1087,329,-65
670.78,1400,2948,14224,1193,437,-63
670.79,1292,3012,14240,1224,469,-80
670.8,1344,2896,14196,1271,502,-113
670.81,1340,2952,14224,1222,520,-94
670.82,1368,2956,14128,1067,494,-76
670.83,1392,3004,14128,1133,549,-89
670.84,1324,2972,14088,1257,542,-73
670.85,1360,3012,13984,1170,528,-89
670.86,1300,3092,14044,1136,547,-66
670.87,1312,3080,13940,1158,601,-100
670.88,1148,3136,14124,1308,634,-120
670.89,1196,3224,14064,1257,595,-114
670.9,1200,3280,14060,1077,513,-80
670.91,1216,3284,14044,984,481,-73
670.92,1268,3316,14112,933,435,-39
670.93,1248,3360,14112,842,458,-52
670.94,1204,3348,14048,879,434,-26
670.95,1220,3424,13984,808,447,-55
670.96,1296,3380,14148,785,462,-78
670.97,1272,3424,14148,828,442,-48
670.98,1200,3532,14072,814,473,-65
670.99,1248,3468,14052,795,438,-96
671.0,1208,3424,14036,772,407,-67
671.01,1224,3372,13940,785,398,-64
671.02,1140,3504,14000,771,394,-72
671.03,1112,3512,14052,865,426,-46
671.04,1204,3484,14060,910,422,-92
671.05,1140,3668,14052,819,478,-91
671.06,1228,3544,14004,873,462,-92
671.07,1164,3588,13956,872,430,-87
671.08,1188,3648,14040,787,437,-22
671.09,1084,3688,13940,777,472,-85
671.1,1128,3664,13924,838,413,-67
671.11,1088,3728,14000,821,463,-74
671.12,1092,3616,13980,798,417,-51
671.13,1132,3744,14112,756,396,-91
671.14,1096,3664,14004,755,419,-52
671.15,1136,3700,14188,683,355,-47
671.16,1132,3868,13924,813,369,-58
671.17,1224,3864,13908,760,393,-56
671.18,1252,3924,14028,739,370,-65
671.19,1208,3812,13908,784,430,-66
671.2,1200,3916,13892,718,442,-74
671.21,1152,3912,14016,729,441,-81
671.22,1100,4004,13960,690,445,-67
671.23,1140,3928,14012,658,422,-47
671.24,1212,3988,13904,660,414,-50
671.25,1084,4040,13916,580,392,-54
671.26,1056,3992,14096,602,379,-82
671.27,1032,4084,13980,557,429,-55
671.28,980,4004,13920,458,363,-38
671.29,1020,4052,13772,344,291,-24
671.3,1032,3956,13720,281,254,-30
671.31,1128,3948,13816,285,278,-20
671.32,1116,3972,14024,474,421,-48
671.33,1052,4032,14032,740,510,-85
671.34,1080,4140,14104,721,514,-112
671.35,1008,4084,13940,505,475,-78
671.36,924,4128,13780,287,392,-56
671.37,1072,4132,13804,322,386,-48
671.38,956,4168,13988,274,285,-46
671.39,868,4256,13796,-275,259,60
671.4,1156,4032,13440,-729,19,99
671.41,1316,4064,14332,401,542,-101
671.42,912,4404,14104,839,461,-149
671.43,1012,4228,13776,-3,6,31
671.44,1028,4192,13880,-40,234,20
671.45,848,4240,13736,-365,127,79
671.46,988,3984,13504,-755,-132,162
671.47,1196,3984,13524,-158,77,97
671.48,1084,4096,14056,242,131,-1
671.49,1044,4240,14192,432,-39,15
671.5,1028,4252,14104,345,92,10
671.51,988,4308,13888,251,170,49
671.52,932,4248,14008,206,134,35
671.53,1100,4300,14028,68,201,22
671.54,1104,4276,13988,-22,263,-7
671.55,1092,4288,13760,-37,341,-21
671.56,1144,4272,13548,28,286,-5
671.57,936,4232,13904,150,282,-36
671.58,984,4200,13784,193,260,-17
671.59,1088,4224,13904,58,197,1
671.6,1176,4328,13968,-40,190,-2
671.61,1104,4240,14036,-131,211,-24
671.62,1148,4228,13988,-296,191,20
671.63,1084,4164,13872,-414,183,26
671.64,1004,4228,13964,-528,190,51
671.65,1004,4220,13916,-720,102,76
671.66,1036,4212,13840,-792,132,70
671.67,1044,4228,13948,-857,98,75
671.68,1044,4168,13912,-899,115,70
671.69,1040,4100,13872,-950,96,75
671.7,1072,4224,13976,-969,66,83
671.71,1064,4116,13728,-923,72,115
671.72,1136,4040,14028,-869,136,102
671.73,984,4104,13916,-835,147,67
671.74,1140,4084,14016,-1044,19,58
671.75,1048,4076,14372,-923,411,58
671.76,900,4056,13628,-1626,-102,204
671.77,1052,3936,13764,-1943,-169,214
671.78,1192,3808,13860,-1261,3,107
671.79,1096,3848,13952,-1028,-95,88
671.8,1180,3892,14088,-1161,-111,90
671.81,1144,3900,13868,-1164,-10,121
671.82,1148,3980,14048,-1232,-28,111
671.83,1116,3844,13924,-1159,-4,122
671.84,1132,3872,13884,-1212,-90,142
671.85,1112,3792,14000,-1307,-26,134
671.86,1160,3872,14112,-1339,-34,101
671.87,1192,3800,14008,-1403,3,146
671.88,1128,3824,14148,-1639,-17,162
671.89,1156,3672,14096,-1769,-50,170
671.9,1148,3556,13956,-1977,-105,218
671.91,1144,3500,13992,-1969,-169,202
671.92,1296,3460,14020,-1779,-137,162
671.93,1208,3564,14120,-1854,-116,197
671.94,1040,3464,13936,-2014,-220,196
671.95,1280,3368,14076,-1991,-203,172
671.96,1188,3396,14032,-1844,-151,164
671.97,1284,3352,13916,-1805,-215,180
671.98,1072,3276,13956,-1812,-200,187
671.99,1240,3272,14044,-1810,-209,215
672.0,1344,3184,14084,-1775,-196,219
672.01,1280,3272,13868,-1738,-210,188
672.02,1264,3104,14136,-1660,-217,196
672.03,1328,3136,14004,-1578,-183,138
672.04,1396,3128,14200,-1495,-94,138
672.05,1280,3104,14036,-1457,-81,108
672.06,1232,3052,14188,-1506,-38,111
672.07,1236,3012,14068,-1522,-90,103
672.08,1320,3072,14296,-1512,-106,113
672.09,1268,2920,14176,-1559,-102,86
672.1,1296,2876,13992,-1591,-139,99
672.11,1368,2868,14120,-1605,-77,67
672.12,1376,2880,14076,-1532,-52,76
672.13,1284,2816,14048,-1618,-70,72
672.14,1332,2764,14040,-1602,-97,66
672.15,1316,2780,14276,-1493,-127,35
672.16,1400,2836,14192,-1493,-141,72
672.17,1432,2728,14080,-1436,-90,58
672.18,1380,2648,14296,-1429,-107,70
672.19,1380,2572,14228,-1488,-131,62
672.2,1392,2600,14132,-1407,-100,53
672.21,1452,2664,14224,-1364,-80,25
672.22,1392,2504,14232,-1400,-50,17
672.23,1420,2396,14236,-1337,-60,45
672.24,1332,2516,14192,-1398,-32,49
672.25,1404,2480,14000,-1405,-119,72
672.26,1584,2440,14240,-1298,-56,27
672.27,1504,2392,14036,-1312,-6,23
672.28,1512,2416,14288,-1230,-18,52
672.29,1380,2264,14172,-1244,-14,49
672.3,1468,2304,14248,-1298,-72,27
672.31,1464,2372,14272,-1251,-43,35
672.32,1392,2304,14360,-1213,14,60
672.33,1436,2388,14244,-1220,-38,19
672.34,1512,2212,14328,-1175,43,16
672.35,1536,2264,14296,-1181,-15,55
672.36,1564,2160,14384,-1214,-12,40
672.37,1576,2152,14304,-1213,53,17
672.38,1388,2260,14188,-1225,21,58
672.39,1496,2048,14172,-1269,-8,37
672.4,1540,2120,14392,-1193,-26,25
672.41,1556,2104,14336,-1173,-7,30
672.42,1432,2080,14440,-1167,24,53
672.43,1560,2080,14300,-1266,-69,36
672.44,1596,1956,14048,-1375,-97,54
672.45,1636,1916,14068,-1301,-107,41
672.46,1536,1888,14316,-920,86,17
672.47,1544,1880,14432,-620,159,-40
672.48,1436,1912,14336,-516,129,-37
672.49,1552,1980,14304,-696,37,-8
672.5,1388,1820,14088,-800,-58,44
672.51,1496,1808,14136,-770,-27,54
672.52,1688,1872,14388,-449,146,37
672.53,1480,1868,14368,-551,257,48
672.54,1536,1940,13752,-1343,114,64
672.55,1776,1708,14304,-1159,21,82
672.56,1892,1728,14784,227,473,-96
672.57,1404,2032,14068,272,-115,-31
672.58,1688,1788,13836,-718,-320,103
672.59,1664,1688,14564,428,541,-64
672.6,1424,1860,13788,-496,-152,84
672.61,1704,1576,13744,-477,-104,160
672.62,1668,1688,14224,394,499,-7
672.63,1624,1952,14528,785,588,-74
672.64,1648,1892,14508,999,492,-49
672.65,1652,1992,14328,730,335,-18
672.66,1672,2008,14264,579,454,2
672.67,1608,1956,14176,602,413,22
672.68,1696,1868,14336,584,322,2
672.69,1688,1888,14348,577,326,10
672.7,1536,1920,14124,417,346,8
672.71,1604,1940,14112,386,364,37
672.72,1564,1868,14044,587,361,-9
672.73,1560,1912,14184,1040,361,-5
672.74,1680,1912,14340,1365,392,-58
672.75,1604,2000,14520,1435,474,-65
672.76,1604,2100,14276,1371,448,-57
672.77,1628,2128,14296,1219,425,-49
672.78,1564,2132,14236,1242,466,-53
672.79,1640,2136,14216,1236,458,-57
672.8,1580,2128,14356,1275,470,-44
672.81,1560,2276,14288,1108,464,-53
672.82,1528,2236,14080,1090,470,-71
672.83,1616,2272,14024,1074,412,-32
672.84,1580,2380,14132,1172,433,-51
672.85,1496,2300,14320,1388,531,-62
672.86,1372,2464,14196,1590,539,-77
672.87,1404,2456,14412,1811,578,-89
672.88,1364,2556,14108,1868,556,-78
672.89,1476,2552,14448,1918,789,-89
672.9,1396,2612,14200,1849,806,-83
672.91,1484,2680,13912,1149,534,-20
672.92,1480,2568,14232,1452,692,-106
672.93,1360,2636,14000,1335,475,-55
