80.125, 4170
80.1275, 4194
80.13, 4213
80.1325, 4214
80.135, 4190
80.1375, 4222
80.14, 4222
80.1425, 4181
80.145, 4168
80.1475, 4167
80.15, 4159
80.1525, 4130
80.155, 4185
80.1575, 4190
80.16, 4176
80.1625, 4165
80.165, 4183
80.1675, 4175
80.17, 4166
80.1725, 4194
80.175, 4272
80.1775, 4330
80.18, 4388
80.1825, 4404
80.185, 4421
80.1875, 4399
80.19, 4320
80.1925, 4159
80.195, 3948
80.1975, 3725
80.2, 3440
80.2025, 3178
80.205, 2815
80.2075, 2416
80.21, 2176
80.2125, 2024
80.215, 2179
80.2175, 2514
80.22, 3089
80.2225, 3950
80.225, 4662
80.2275, 4899
80.23, 4921
80.2325, 4890
80.235, 4782
80.2375, 4655
80.24, 4566
80.2425, 4538
80.245, 4475
80.2475, 4423
80.25, 4421
80.2525, 4432
80.255, 4421
80.2575, 4412
80.26, 4437
80.2625, 4436
80.265, 4413
80.2675, 4424
80.27, 4418
80.2725, 4419
80.275, 4297
80.2775, 4410
80.28, 4386
80.2825, 4328
80.285, 4347
80.2875, 4350
80.29, 4329
80.2925, 4345
80.295, 4350
80.2975, 4310
80.3, 4314
80.3025, 4336
80.305, 4310
80.3075, 4310
80.31, 4284
80.3125, 4311
80.315, 4303
80.3175, 4281
80.32, 4275
80.3225, 4275
80.325, 4283
80.3275, 4252
80.33, 4282
80.3325, 4266
80.335, 4244
80.3375, 4248
80.34, 4224
80.3425, 4233
80.345, 4132
80.3475, 4237
80.35, 4226
80.3525, 4209
80.355, 4218
80.3575, 4199
80.36, 4226
80.3625, 4198
80.365, 4202
80.3675, 4216
80.37, 4209
80.3725, 4207
80.375, 4209
80.3775, 4200
80.38, 4185
80.3825, 4202
80.385, 4193
80.3875, 4163
80.39, 4158
80.3925, 4179
80.395, 4202
80.3975, 4164
80.4, 4196
80.4025, 4171
80.405, 4151
80.4075, 4188
80.41, 4171
80.4125, 4153
80.415, 4114
80.4175, 4153
80.42, 4143
80.4225, 4127
80.425, 4147
80.4275, 4148
80.43, 4162
80.4325, 4137
80.435, 4162
80.4375, 4143
80.44, 4130
80.4425, 4133
80.445, 4113
80.4475, 4119
80.45, 4112
80.4525, 4135
80.455, 4133
80.4575, 4115
80.46, 4128
80.4625, 4128
80.465, 4145
80.4675, 4128
80.47, 4143
80.4725, 4120
80.475, 4110
80.4775, 4161
80.48, 4156
80.4825, 4138
80.485, 4111
80.4875, 4128
80.49, 4106
80.4925, 4098
80.495, 4114
80.4975, 4132
80.5, 4138
80.5025, 4101
80.505, 4148
80.5075, 4160
80.51, 4153
80.5125, 4160
80.515, 4164
80.5175, 4175
80.52, 4181
80.5225, 4208
80.525, 4226
80.5275, 4247
80.53, 4224
80.5325, 4245
80.535, 4241
80.5375, 4254
80.54, 4284
80.5425, 4287
80.545, 4301
80.5475, 4284
80.55, 4276
80.5525, 4264
80.555, 4258
80.5575, 4278
80.56, 4256
80.5625, 4243
80.565, 4250
80.5675, 4302
80.57, 4309
80.5725, 4273
80.575, 4264
80.5775, 4255
80.58, 4238
80.5825, 4253
80.585, 4261
80.5875, 4252
80.59, 4228
80.5925, 4264
80.595, 4257
80.5975, 4232
80.6, 4244
80.6025, 4219
80.605, 4228
80.6075, 4177
80.61, 4240
80.6125, 4220
80.615, 4220
80.6175, 4212
80.62, 4217
80.6225, 4202
80.625, 4182
80.6275, 4215
80.63, 4194
80.6325, 4187
80.635, 4219
80.6375, 4211
80.64, 4198
80.6425, 4179
80.645, 4179
80.6475, 4169
80.65, 4179
80.6525, 4200
80.655, 4199
80.6575, 4194
80.66, 4183
80.6625, 4192
80.665, 4186
80.6675, 4172
80.67, 4188
80.6725, 4173
80.675, 4168
80.6775, 4147
80.68, 4197
80.6825, 4183
80.685, 4189
80.6875, 4210
80.69, 4215
80.6925, 4208
80.695, 4163
80.6975, 4163
80.7, 4175
80.7025, 4176
80.705, 4197
80.7075, 4179
80.71, 4175
80.7125, 4144
80.715, 4174
80.7175, 4189
80.72, 4180
80.7225, 4175
80.725, 4185
80.7275, 4173
80.73, 4165
80.7325, 4189
80.735, 4169
80.7375, 4145
80.74, 4182
80.7425, 4190
80.745, 4173
80.7475, 4152
80.75, 4161
80.7525, 4174
80.755, 4156
80.7575, 4175
80.76, 4180
80.7625, 4172
80.765, 4172
80.7675, 4190
80.77, 4187
80.7725, 4156
80.775, 4167
80.7775, 4155
80.78, 4179
80.7825, 4178
80.785, 4196
80.7875, 4198
80.79, 4159
80.7925, 4194
80.795, 4202
80.7975, 4188
80.8, 4150
80.8025, 4183
80.805, 4158
80.8075, 4156
80.81, 4164
80.8125, 4152
80.815, 4150
80.8175, 4110
80.82, 4150
80.8225, 4153
80.825, 4161
80.8275, 4161
80.83, 4162
80.8325, 4148
80.835, 4138
80.8375, 4164
80.84, 4164
80.8425, 4140
80.845, 4167
80.8475, 4184
80.85, 4190
80.8525, 4148
80.855, 4177
80.8575, 4181
80.86, 4179
80.8625, 4162
80.865, 4152
80.8675, 4125
80.87, 4115
80.8725, 4160
80.875, 4152
80.8775, 4158
80.88, 4167
80.8825, 4162
80.885, 4157
80.8875, 4145
80.89, 4171
80.8925, 4184
80.895, 4176
80.8975, 4131
80.9, 4147
80.9025, 4163
80.905, 4123
80.9075, 4179
80.91, 4163
80.9125, 4164
80.915, 4167
80.9175, 4147
80.92, 4166
80.9225, 4163
80.925, 4197
80.9275, 4194
80.93, 4173
80.9325, 4201
80.935, 4190
80.9375, 4185
80.94, 4164
80.9425, 4183
80.945, 4179
80.9475, 4164
80.95, 4212
80.9525, 4206
80.955, 4183
80.9575, 4135
80.96, 4172
80.9625, 4174
80.965, 4150
80.9675, 4167
80.97, 4178
80.9725, 4171
80.975, 4161
80.9775, 4204
80.98, 4163
80.9825, 4157
80.985, 4167
80.9875, 4165
80.99, 4124
80.9925, 4119
80.995, 4161
80.9975, 4169
81.0, 4165
81.0025, 4186
81.005, 4163
81.0075, 4144
81.01, 4126
81.0125, 4168
81.015, 4166
81.0175, 4155
81.02, 4175
81.0225, 4189
81.025, 4191
81.0275, 4139
81.03, 4169
81.0325, 4171
81.035, 4172
81.0375, 4169
81.04, 4184
81.0425, 4168
81.045, 4148
81.0475, 4173
81.05, 4167
81.0525, 4136
81.055, 4170
81.0575, 4152
81.06, 4159
81.0625, 4148
81.065, 4179
81.0675, 4181
81.07, 4178
81.0725, 4186
81.075, 4193
81.0775, 4187
81.08, 4164
81.0825, 4179
81.085, 4151
81.0875, 4156
81.09, 4186
81.0925, 4179
81.095, 4188
81.0975, 4174
81.1, 4202
81.1025, 4190
81.105, 4165
81.1075, 4188
81.11, 4171
81.1125, 4160
81.115, 4117
81.1175, 4159
81.12, 4163
81.1225, 4168
81.125, 4161
81.1275, 4153
81.13, 4147
81.1325, 4114
81.135, 4119
81.1375, 4084
81.14, 4076
81.1425, 4091
81.145, 4109
81.1475, 4091
81.15, 4002
81.1525, 4133
81.155, 4156
81.1575, 4129
81.16, 4166
81.1625, 4181
81.165, 4180
81.1675, 4170
81.17, 4187
81.1725, 4200
81.175, 4199
81.1775, 4197
81.18, 4188
81.1825, 4180
81.185, 4162
81.1875, 4170
81.19, 4178
81.1925, 4199
81.195, 4217
81.1975, 4212
81.2, 4201
81.2025, 4164
81.205, 4200
81.2075, 4203
81.21, 4195
81.2125, 4235
81.215, 4242
81.2175, 4222
81.22, 4193
81.2225, 4195
81.225, 4185
81.2275, 4167
81.23, 4180
81.2325, 4185
81.235, 4176
81.2375, 4169
81.24, 4211
81.2425, 4286
81.245, 4334
81.2475, 4394
81.25, 4432
81.2525, 4484
81.255, 4457
81.2575, 4384
81.26, 4218
81.2625, 3992
81.265, 3765
81.2675, 3459
81.27, 3136
81.2725, 2738
81.275, 2270
81.2775, 1993
81.28, 1964
81.2825, 2057
81.285, 2481
81.2875, 3200
81.29, 3972
81.2925, 4583
81.295, 4848
81.2975, 4853
81.3, 4772
81.3025, 4654
81.305, 4579
81.3075, 4523
81.31, 4531
81.3125, 4520
81.315, 4473
81.3175, 4486
81.32, 4485
81.3225, 4484
81.325, 4458
81.3275, 4486
81.33, 4482
81.3325, 4472
81.335, 4475
81.3375, 4484
81.34, 4466
81.3425, 4415
81.345, 4452
81.3475, 4446
81.35, 4406
81.3525, 4423
81.355, 4428
81.3575, 4404
81.36, 4372
81.3625, 4388
81.365, 4380
81.3675, 4341
81.37, 4336
81.3725, 4353
81.375, 4321
81.3775, 4308
81.38, 4321
81.3825, 4329
81.385, 4293
81.3875, 4321
81.39, 4318
81.3925, 4307
81.395, 4279
81.3975, 4304
81.4, 4261
81.4025, 4255
81.405, 4283
81.4075, 4281
81.41, 4261
81.4125, 4251
81.415, 4277
81.4175, 4248
81.42, 4230
81.4225, 4239
81.425, 4231
81.4275, 4226
81.43, 4201
81.4325, 4231
81.435, 4258
81.4375, 4219
81.44, 4189
81.4425, 4215
81.445, 4173
81.4475, 4166
81.45, 4203
81.4525, 4203
81.455, 4185
81.4575, 4213
81.46, 4205
81.4625, 4211
81.465, 4177
81.4675, 4209
81.47, 4203
81.4725, 4180
81.475, 4176
81.4775, 4186
81.48, 4176
81.4825, 4139
81.485, 4164
81.4875, 4179
81.49, 4158
81.4925, 4184
81.495, 4188
81.4975, 4192
81.5, 4176
81.5025, 4220
81.505, 4198
81.5075, 4205
81.51, 4210
81.5125, 4203
81.515, 4191
81.5175, 4167
81.52, 4184
81.5225, 4183
81.525, 4180
81.5275, 4173
81.53, 4189
81.5325, 4163
81.535, 4118
81.5375, 4143
81.54, 4156
81.5425, 4156
81.545, 4147
81.5475, 4144
81.55, 4147
81.5525, 4021
81.555, 4141
81.5575, 4138
81.56, 4103
81.5625, 4116
81.565, 4117
81.5675, 4109
81.57, 4085
81.5725, 4120
81.575, 4127
81.5775, 4118
81.58, 4136
81.5825, 4138
81.585, 4137
81.5875, 4106
81.59, 4120
81.5925, 4146
81.595, 4121
81.5975, 4160
81.6, 4184
81.6025, 4169
81.605, 4182
81.6075, 4215
81.61, 4183
81.6125, 4171
81.615, 4225
81.6175, 4209
81.62, 4195
81.6225, 4184
81.625, 4212
81.6275, 4204
81.63, 4205
81.6325, 4194
81.635, 4171
81.6375, 4182
81.64, 4158
81.6425, 4210
81.645, 4215
81.6475, 4193
81.65, 4177
81.6525, 4169
81.655, 4167
81.6575, 4146
81.66, 4172
81.6625, 4161
81.665, 4159
81.6675, 4183
81.67, 4185
81.6725, 4193
81.675, 4154
81.6775, 4161
81.68, 4174
81.6825, 4172
81.685, 4179
81.6875, 4194
81.69, 4188
81.6925, 4163
81.695, 4212
81.6975, 4190
81.7, 4159
81.7025, 4170
81.705, 4183
81.7075, 4155
81.71, 4151
81.7125, 4172
81.715, 4185
81.7175, 4158
81.72, 4156
81.7225, 4161
81.725, 4165
81.7275, 4132
81.73, 4153
81.7325, 4152
81.735, 4157
81.7375, 4183
81.74, 4187
81.7425, 4187
81.745, 4161
81.7475, 4219
81.75, 4183
81.7525, 4175
81.755, 4180
81.7575, 4195
81.76, 4169
81.7625, 4166
81.765, 4166
81.7675, 4169
81.77, 4163
81.7725, 4171
81.775, 4172
81.7775, 4177
81.78, 4154
81.7825, 4202
81.785, 4176
81.7875, 4166
81.79, 4200
81.7925, 4219
81.795, 4191
81.7975, 4161
81.8, 4173
81.8025, 4154
81.805, 4170
81.8075, 4182
81.81, 4170
81.8125, 4160
81.815, 4120
81.8175, 4162
81.82, 4156
81.8225, 4149
81.825, 4164
81.8275, 4145
81.83, 4167
81.8325, 4118
81.835, 4169
81.8375, 4167
81.84, 4177
81.8425, 4185
81.845, 4168
81.8475, 4173
81.85, 4166
81.8525, 4193
81.855, 4197
81.8575, 4158
81.86, 4164
81.8625, 4168
81.865, 4144
81.8675, 4145
81.87, 4177
81.8725, 4180
81.875, 4168
81.8775, 4167
81.88, 4173
81.8825, 4189
81.885, 4150
81.8875, 4186
81.89, 4186
81.8925, 4172
81.895, 4178
81.8975, 4187
81.9, 4165
81.9025, 4145
81.905, 4169
81.9075, 4146
81.91, 4140
81.9125, 4163
81.915, 4147
81.9175, 4159
81.92, 4124
81.9225, 4146
81.925, 4126
81.9275, 4135
81.93, 4159
81.9325, 4156
81.935, 4165
81.9375, 4106
81.94, 4155
81.9425, 4169
81.945, 4142
81.9475, 4152
81.95, 4158
81.9525, 4158
81.955, 4135
81.9575, 4166
81.96, 4161
81.9625, 4145
81.965, 4177
81.9675, 4161
81.97, 4158
81.9725, 4127
81.975, 4159
81.9775, 4163
81.98, 4150
81.9825, 4189
81.985, 4166
81.9875, 4159
81.99, 4145
81.9925, 4161
81.995, 4160
81.9975, 4152
82.0, 4155
82.0025, 4165
82.005, 4168
82.0075, 4131
82.01, 4170
82.0125, 4181
82.015, 4165
82.0175, 4155
82.02, 4136
82.0225, 4136
82.025, 4037
82.0275, 4152
82.03, 4145
82.0325, 4125
82.035, 4156
82.0375, 4165
82.04, 4161
82.0425, 4143
82.045, 4170
82.0475, 4154
82.05, 4142
82.0525, 4166
82.055, 4140
82.0575, 4146
82.06, 4141
82.0625, 4166
82.065, 4160
82.0675, 4147
82.07, 4149
82.0725, 4164
82.075, 4181
82.0775, 4182
82.08, 4173
82.0825, 4148
82.085, 4138
82.0875, 4139
82.09, 4135
82.0925, 4134
82.095, 4116
82.0975, 4150
82.1, 4145
82.1025, 4135
82.105, 4150
82.1075, 4142
82.11, 4166
82.1125, 4167
82.115, 4153
82.1175, 4143
82.12, 4145
82.1225, 4158
82.125, 4173
82.1275, 4158
82.13, 4124
82.1325, 4184
82.135, 4163
82.1375, 4136
82.14, 4124
82.1425, 4136
82.145, 4139
82.1475, 4131
82.15, 4168
82.1525, 4176
82.155, 4181
82.1575, 4177
82.16, 4174
82.1625, 4173
82.165, 4143
82.1675, 4162
82.17, 4189
82.1725, 4171
82.175, 4172
82.1775, 4162
82.18, 4201
82.1825, 4157
82.185, 4201
82.1875, 4187
82.19, 4177
82.1925, 4172
82.195, 4183
82.1975, 4192
82.2, 4159
82.2025, 4209
82.205, 4207
82.2075, 4187
82.21, 4185
82.2125, 4187
82.215, 4195
82.2175, 4166
82.22, 4177
82.2225, 4174
82.225, 4133
82.2275, 4170
82.23, 4176
82.2325, 4177
82.235, 4142
82.2375, 4186
82.24, 4162
82.2425, 4152
82.245, 4173
82.2475, 4179
82.25, 4172
82.2525, 4066
82.255, 4176
82.2575, 4160
82.26, 4122
82.2625, 4144
82.265, 4132
82.2675, 4142
82.27, 4111
82.2725, 4136
82.275, 4130
82.2775, 4102
82.28, 4119
82.2825, 4165
82.285, 4168
82.2875, 4128
82.29, 4167
82.2925, 4191
82.295, 4193
82.2975, 4216
82.3, 4221
82.3025, 4200
82.305, 4169
82.3075, 4211
82.31, 4201
82.3125, 4185
82.315, 4195
82.3175, 4188
82.32, 4187
82.3225, 4161
82.325, 4200
82.3275, 4204
82.33, 4190
82.3325, 4231
82.335, 4185
82.3375, 4201
82.34, 4177
82.3425, 4214
82.345, 4199
82.3475, 4182
82.35, 4172
82.3525, 4182
82.355, 4196
82.3575, 4169
82.36, 4222
82.3625, 4291
82.365, 4343
82.3675, 4382
82.37, 4394
82.3725, 4433
82.375, 4437
82.3775, 4347
82.38, 4197
82.3825, 3976
82.385, 3783
82.3875, 3512
82.39, 3273
82.3925, 2909
82.395, 2497
82.3975, 2233
82.4, 2074
82.4025, 2177
82.405, 2480
82.4075, 3080
82.41, 3900
82.4125, 4646
82.415, 4914
82.4175, 4957
82.42, 4944
82.4225, 4805
82.425, 4673
82.4275, 4529
82.43, 4536
82.4325, 4500
82.435, 4464
82.4375, 4487
82.44, 4474
82.4425, 4471
82.445, 4444
82.4475, 4484
82.45, 4479
82.4525, 4459
82.455, 4434
82.4575, 4439
82.46, 4433
82.4625, 4423
82.465, 4432
82.4675, 4402
82.47, 4387
82.4725, 4409
82.475, 4395
82.4775, 4378
82.48, 4340
82.4825, 4378
82.485, 4364
82.4875, 4320
82.49, 4336
82.4925, 4333
82.495, 4312
82.4975, 4279
82.5, 4315
82.5025, 4289
82.505, 4281
82.5075, 4278
82.51, 4290
82.5125, 4310
82.515, 4256
82.5175, 4279
82.52, 4279
82.5225, 4263
82.525, 4257
82.5275, 4233
82.53, 4241
82.5325, 4195
82.535, 4235
82.5375, 4246
82.54, 4243
82.5425, 4237
82.545, 4239
82.5475, 4220
82.55, 4196
82.5525, 4239
82.555, 4215
82.5575, 4200
82.56, 4193
82.5625, 4186
82.565, 4196
82.5675, 4142
82.57, 4174
82.5725, 4198
82.575, 4191
82.5775, 4215
82.58, 4228
82.5825, 4200
82.585, 4178
82.5875, 4182
82.59, 4169
82.5925, 4169
82.595, 4181
82.5975, 4170
82.6, 4175
82.6025, 4161
82.605, 4192
82.6075, 4181
82.61, 4169
82.6125, 4148
82.615, 4145
82.6175, 4160
82.62, 4138
82.6225, 4154
82.625, 4148
82.6275, 4115
82.63, 4123
82.6325, 4130
82.635, 4136
82.6375, 4143
82.64, 4182
82.6425, 4155
82.645, 4126
82.6475, 4146
82.65, 4145
82.6525, 4149
82.655, 4119
82.6575, 4163
82.66, 4168
82.6625, 4120
82.665, 4127
82.6675, 4140
82.67, 4120
82.6725, 4104
82.675, 4134
82.6775, 4102
82.68, 4109
82.6825, 4119
82.685, 4126
82.6875, 4130
82.69, 4121
82.6925, 4137
82.695, 4147
82.6975, 4157
82.7, 4177
82.7025, 4189
82.705, 4179
82.7075, 4182
82.71, 4195
82.7125, 4202
82.715, 4193
82.7175, 4223
82.72, 4233
82.7225, 4246
82.725, 4158
82.7275, 4282
82.73, 4279
82.7325, 4281
82.735, 4298
82.7375, 4306
82.74, 4282
82.7425, 4260
82.745, 4282
82.7475, 4297
82.75, 4277
82.7525, 4295
82.755, 4290
82.7575, 4294
82.76, 4291
82.7625, 4284
82.765, 4248
82.7675, 4238
82.77, 4270
82.7725, 4266
82.775, 4252
82.7775, 4233
82.78, 4254
82.7825, 4236
82.785, 4226
82.7875, 4224
82.79, 4243
82.7925, 4234
82.795, 4125
82.7975, 4253
82.8, 4229
82.8025, 4204
82.805, 4211
82.8075, 4215
82.81, 4218
82.8125, 4197
82.815, 4220
82.8175, 4224
82.82, 4215
82.8225, 4236
82.825, 4248
82.8275, 4236
82.83, 4132
82.8325, 4257
82.835, 4247
82.8375, 4240
82.84, 4209
82.8425, 4189
82.845, 4199
82.8475, 4187
82.85, 4233
82.8525, 4241
82.855, 4219
82.8575, 4228
82.86, 4217
82.8625, 4220
82.865, 4190
82.8675, 4205
82.87, 4200
82.8725, 4174
82.875, 4179
82.8775, 4179
82.88, 4190
82.8825, 4154
82.885, 4169
82.8875, 4156
82.89, 4155
82.8925, 4174
82.895, 4184
82.8975, 4186
82.9, 4137
82.9025, 4169
82.905, 4179
82.9075, 4164
82.91, 4174
82.9125, 4201
82.915, 4201
82.9175, 4167
82.92, 4203
82.9225, 4199
82.925, 4186
82.9275, 4217
82.93, 4188
82.9325, 4186
82.935, 4167
82.9375, 4198
82.94, 4183
82.9425, 4170
82.945, 4200
82.9475, 4205
82.95, 4186
82.9525, 4149
82.955, 4185
82.9575, 4184
82.96, 4182
82.9625, 4153
82.965, 4164
82.9675, 4167
82.97, 4078
82.9725, 4189
82.975, 4172
82.9775, 4169
82.98, 4179
82.9825, 4146
82.985, 4142
82.9875, 4132
82.99, 4163
82.9925, 4182
82.995, 4166
82.9975, 4156
83.0, 4147
83.0025, 4153
83.005, 4141
83.0075, 4171
83.01, 4160
83.0125, 4161
83.015, 4165
83.0175, 4176
83.02, 4157
83.0225, 4131
83.025, 4180
83.0275, 4167
83.03, 4168
83.0325, 4183
83.035, 4181
83.0375, 4167
83.04, 4146
83.0425, 4166
83.045, 4149
83.0475, 4132
83.05, 4149
83.0525, 4153
83.055, 4141
83.0575, 4138
83.06, 4132
83.0625, 4132
83.065, 4130
83.0675, 4163
83.07, 4155
83.0725, 4136
83.075, 4104
83.0775, 4151
83.08, 4159
83.0825, 4142
83.085, 4165
83.0875, 4167
83.09, 4155
83.0925, 4114
83.095, 4141
83.0975, 4168
83.1, 4158
83.1025, 4156
83.105, 4148
83.1075, 4168
83.11, 4133
83.1125, 4146
83.115, 4150
83.1175, 4133
83.12, 4130
83.1225, 4130
83.125, 4134
83.1275, 4112
83.13, 4153
83.1325, 4139
83.135, 4109
83.1375, 4164
83.14, 4172
83.1425, 4156
83.145, 4124
83.1475, 4153
83.15, 4149
83.1525, 4166
83.155, 4169
83.1575, 4171
83.16, 4185
83.1625, 4143
83.165, 4158
83.1675, 4164
83.17, 4163
83.1725, 4146
83.175, 4159
83.1775, 4157
83.18, 4139
83.1825, 4144
83.185, 4153
83.1875, 4137
83.19, 4153
83.1925, 4155
83.195, 4151
83.1975, 4121
83.2, 4175
83.2025, 4174
83.205, 4142
83.2075, 4137
83.21, 4123
83.2125, 4148
83.215, 4138
83.2175, 4185
83.22, 4175
83.2225, 4164
83.225, 4144
83.2275, 4124
83.23, 4094
83.2325, 4060
83.235, 4064
83.2375, 4086
83.24, 4076
83.2425, 4123
83.245, 4134
83.2475, 4116
83.25, 4104
83.2525, 4134
83.255, 4143
83.2575, 4129
83.26, 4160
83.2625, 4165
83.265, 4158
83.2675, 4113
83.27, 4185
83.2725, 4191
83.275, 4194
83.2775, 4193
83.28, 4203
83.2825, 4178
83.285, 4171
83.2875, 4183
83.29, 4173
83.2925, 4154
83.295, 4188
83.2975, 4180
83.3, 4167
83.3025, 4149
83.305, 4193
83.3075, 4178
83.31, 4163
83.3125, 4182
83.315, 4184
83.3175, 4200
83.32, 4159
83.3225, 4211
83.325, 4196
83.3275, 4174
83.33, 4202
83.3325, 4181
83.335, 4191
83.3375, 4223
83.34, 4317
83.3425, 4368
83.345, 4392
83.3475, 4452
83.35, 4479
83.3525, 4439
83.355, 4280
83.3575, 4149
83.36, 3914
83.3625, 3631
83.365, 3343
83.3675, 2969
83.37, 2525
83.3725, 2148
83.375, 1966
83.3775, 1984
83.38, 2146
83.3825, 2694
83.385, 3530
83.3875, 4335
83.39, 4741
83.3925, 4908
83.395, 4875
83.3975, 4745
83.4, 4643
83.4025, 4575
83.405, 4524
83.4075, 4502
83.41, 4502
83.4125, 4485
83.415, 4456
83.4175, 4470
83.42, 4471
83.4225, 4470
83.425, 4440
83.4275, 4474
83.43, 4462
83.4325, 4449
83.435, 4452
83.4375, 4453
83.44, 4451
83.4425, 4430
83.445, 4434
83.4475, 4417
83.45, 4395
83.4525, 4405
83.455, 4393
83.4575, 4371
83.46, 4348
83.4625, 4354
83.465, 4357
83.4675, 4319
83.47, 4305
83.4725, 4310
83.475, 4317
83.4775, 4288
83.48, 4301
83.4825, 4288
83.485, 4276
83.4875, 4277
83.49, 4282
83.4925, 4298
83.495, 4273
83.4975, 4296
83.5, 4293
83.5025, 4252
83.505, 4256
83.5075, 4264
83.51, 4231
83.5125, 4235
83.515, 4241
83.5175, 4254
83.52, 4221
83.5225, 4226
83.525, 4197
83.5275, 4194
83.53, 4171
83.5325, 4182
83.535, 4198
83.5375, 4170
83.54, 4183
83.5425, 4184
83.545, 4208
83.5475, 4157
83.55, 4171
83.5525, 4177
83.555, 4148
83.5575, 4183
83.56, 4204
83.5625, 4175
83.565, 4153
83.5675, 4164
83.57, 4171
83.5725, 4159
83.575, 4169
83.5775, 4197
83.58, 4187
83.5825, 4180
83.585, 4194
83.5875, 4192
83.59, 4149
83.5925, 4172
83.595, 4190
83.5975, 4180
83.6, 4147
83.6025, 4155
83.605, 4164
83.6075, 4152
83.61, 4176
83.6125, 4200
83.615, 4191
83.6175, 4141
83.62, 4154
83.6225, 4150
83.625, 4151
83.6275, 4162
83.63, 4149
83.6325, 4147
83.635, 4146
83.6375, 4153
83.64, 4161
83.6425, 4121
83.645, 4134
83.6475, 4148
83.65, 4142
83.6525, 4116
83.655, 4114
83.6575, 4104
83.66, 4084
83.6625, 4097
83.665, 4106
83.6675, 4120
83.67, 4096
83.6725, 4119
83.675, 4134
83.6775, 4139
83.68, 4139
83.6825, 4138
83.685, 4157
83.6875, 4050
83.69, 4187
83.6925, 4171
83.695, 4173
83.6975, 4192
83.7, 4203
83.7025, 4198
83.705, 4209
83.7075, 4215
83.71, 4197
83.7125, 4196
83.715, 4224
83.7175, 4226
83.72, 4228
83.7225, 4193
83.725, 4246
83.7275, 4228
83.73, 4227
83.7325, 4214
83.735, 4248
83.7375, 4239
83.74, 4219
83.7425, 4224
83.745, 4250
83.7475, 4215
83.75, 4240
83.7525, 4213
83.755, 4200
83.7575, 4094
83.76, 4210
83.7625, 4227
83.765, 4208
83.7675, 4205
83.77, 4202
83.7725, 4183
83.775, 4149
83.7775, 4195
83.78, 4204
83.7825, 4222
83.785, 4210
83.7875, 4210
83.79, 4196
83.7925, 4174
83.795, 4208
83.7975, 4220
83.8, 4201
83.8025, 4192
83.805, 4213
83.8075, 4190
83.81, 4150
83.8125, 4206
83.815, 4173
83.8175, 4148
83.82, 4179
83.8225, 4164
83.825, 4167
83.8275, 4059
83.83, 4188
83.8325, 4167
83.835, 4162
83.8375, 4193
83.84, 4199
83.8425, 4208
83.845, 4160
83.8475, 4190
83.85, 4173
83.8525, 4165
83.855, 4162
83.8575, 4165
83.86, 4193
83.8625, 4064
83.865, 4193
83.8675, 4204
83.87, 4175
83.8725, 4181
83.875, 4176
83.8775, 4163
83.88, 4123
83.8825, 4160
83.885, 4159
83.8875, 4124
83.89, 4139
83.8925, 4159
83.895, 4160
83.8975, 4113
83.9, 4157
83.9025, 4150
83.905, 4147
83.9075, 4142
83.91, 4185
83.9125, 4183
83.915, 4151
83.9175, 4193
83.92, 4187
83.9225, 4178
83.925, 4178
83.9275, 4153
83.93, 4162
83.9325, 4129
83.935, 4178
83.9375, 4187
83.94, 4193
83.9425, 4198
83.945, 4188
83.9475, 4176
83.95, 4149
83.9525, 4175
83.955, 4183
83.9575, 4165
83.96, 4169
83.9625, 4201
83.965, 4163
83.9675, 4154
83.97, 4165
83.9725, 4161
83.975, 4156
83.9775, 4175
83.98, 4190
83.9825, 4182
83.985, 4178
83.9875, 4192
83.99, 4154
83.9925, 4139
83.995, 4138
83.9975, 4151
84.0, 4175
84.0025, 4138
84.005, 4197
84.0075, 4182
84.01, 4150
84.0125, 4179
84.015, 4179
84.0175, 4186
84.02, 4047
84.0225, 4191
84.025, 4184
84.0275, 4167
84.03, 4168
84.0325, 4171
84.035, 4153
84.0375, 4115
84.04, 4166
84.0425, 4161
84.045, 4134
84.0475, 4155
84.05, 4156
84.0525, 4166
84.055, 4146
84.0575, 4166
84.06, 4142
84.0625, 4149
84.065, 4177
84.0675, 4174
84.07, 4156
84.0725, 4141
84.075, 4146
84.0775, 4140
84.08, 4134
84.0825, 4130
84.085, 4142
84.0875, 4146
84.09, 4053
84.0925, 4185
84.095, 4185
84.0975, 4157
84.1, 4177
84.1025, 4172
84.105, 4151
84.1075, 4130
84.11, 4175
84.1125, 4165
84.115, 4187
84.1175, 4177
84.12, 4191
84.1225, 4183
84.125, 4155
84.1275, 4174
84.13, 4158
84.1325, 4156
84.135, 4163
84.1375, 4170
84.14, 4172
84.1425, 4129
84.145, 4174
84.1475, 4167
84.15, 4164
84.1525, 4169
84.155, 4172
84.1575, 4174
84.16, 4134
84.1625, 4164
84.165, 4183
84.1675, 4158
84.17, 4177
84.1725, 4190
84.175, 4172
84.1775, 4136
84.18, 4157
84.1825, 4166
84.185, 4165
84.1875, 4167
84.19, 4157
84.1925, 4158
84.195, 4118
84.1975, 4164
84.2, 4166
84.2025, 4160
84.205, 4203
84.2075, 4175
84.21, 4166
84.2125, 4133
84.215, 4176
84.2175, 4170
84.22, 4170
84.2225, 4163
84.225, 4177
84.2275, 4169
84.23, 4174
84.2325, 4163
84.235, 4173
84.2375, 4158
84.24, 4176
84.2425, 4156
84.245, 4165
84.2475, 4139
84.25, 4174
84.2525, 4142
84.255, 4149
84.2575, 4169
84.26, 4161
84.2625, 4145
84.265, 4111
84.2675, 4137
84.27, 4138
84.2725, 4128
84.275, 4119
84.2775, 4145
84.28, 4117
84.2825, 4109
84.285, 4152
84.2875, 4145
84.29, 4150
84.2925, 4170
84.295, 4170
84.2975, 4174
84.3, 4154
84.3025, 4189
84.305, 4184
84.3075, 4157
84.31, 4176
84.3125, 4154
84.315, 4138
84.3175, 4139
84.32, 4176
84.3225, 4188
84.325, 4169
84.3275, 4172
84.33, 4160
84.3325, 4158
84.335, 4136
84.3375, 4180
84.34, 4213
84.3425, 4192
84.345, 4178
84.3475, 4180
84.35, 4172
84.3525, 4149
84.355, 4174
84.3575, 4178
84.36, 4187
84.3625, 4196
84.365, 4191
84.3675, 4175
84.37, 4070
84.3725, 4198
84.375, 4193
84.3775, 4180
84.38, 4219
84.3825, 4201
84.385, 4184
84.3875, 4140
84.39, 4173
84.3925, 4164
84.395, 4166
84.3975, 4169
84.4, 4186
84.4025, 4172
84.405, 4149
84.4075, 4169
84.41, 4169
84.4125, 4152
84.415, 4153
84.4175, 4162
84.42, 4155
84.4225, 4120
84.425, 4151
84.4275, 4137
84.43, 4148
84.4325, 4137
84.435, 4118
84.4375, 4107
84.44, 4057
84.4425, 4083
84.445, 4085
84.4475, 4087
84.45, 4145
84.4525, 4151
84.455, 4156
84.4575, 4119
84.46, 4134
84.4625, 4144
84.465, 4141
84.4675, 4161
84.47, 4160
84.4725, 4170
84.475, 4161
84.4775, 4179
84.48, 4192
84.4825, 4177
84.485, 4199
84.4875, 4193
84.49, 4189
84.4925, 4167
84.495, 4204
84.4975, 4184
84.5, 4176
84.5025, 4163
84.505, 4172
84.5075, 4173
84.51, 4142
84.5125, 4203
84.515, 4224
84.5175, 4175
84.52, 4182
84.5225, 4191
84.525, 4179
84.5275, 4155
84.53, 4184
84.5325, 4167
84.535, 4182
84.5375, 4203
84.54, 4274
84.5425, 4323
84.545, 4330
84.5475, 4408
84.55, 4412
84.5525, 4415
84.555, 4345
84.5575, 4191
84.56, 3991
84.5625, 3721
84.565, 3488
84.5675, 3167
84.57, 2801
84.5725, 2344
84.575, 2112
84.5775, 2039
84.58, 2166
84.5825, 2506
84.585, 3171
84.5875, 3980
84.59, 4621
84.5925, 4900
84.595, 4930
84.5975, 4828
84.6, 4722
84.6025, 4622
84.605, 4541
84.6075, 4520
84.61, 4505
84.6125, 4487
84.615, 4451
84.6175, 4463
84.62, 4471
84.6225, 4445
84.625, 4424
84.6275, 4442
84.63, 4432
84.6325, 4425
84.635, 4433
84.6375, 4447
84.64, 4402
84.6425, 4417
84.645, 4412
84.6475, 4407
84.65, 4341
84.6525, 4385
84.655, 4363
84.6575, 4353
84.66, 4343
84.6625, 4336
84.665, 4339
84.6675, 4327
84.67, 4345
84.6725, 4331
84.675, 4314
84.6775, 4302
84.68, 4319
84.6825, 4304
84.685, 4263
84.6875, 4294
84.69, 4292
84.6925, 4286
84.695, 4292
84.6975, 4280
84.7, 4269
84.7025, 4243
84.705, 4255
84.7075, 4257
84.71, 4248
84.7125, 4254
84.715, 4265
84.7175, 4263
84.72, 4229
84.7225, 4240
84.725, 4229
84.7275, 4217
84.73, 4221
84.7325, 4232
84.735, 4251
84.7375, 4203
84.74, 4235
84.7425, 4214
84.745, 4189
84.7475, 4183
84.75, 4175
84.7525, 4164
84.755, 4151
84.7575, 4175
84.76, 4168
84.7625, 4151
84.765, 4177
84.7675, 4173
84.77, 4162
84.7725, 4127
84.775, 4174
84.7775, 4180
84.78, 4155
84.7825, 4156
84.785, 4135
84.7875, 4143
84.79, 4122
84.7925, 4149
84.795, 4153
84.7975, 4148
84.8, 4169
84.8025, 4161
84.805, 4152
84.8075, 4134
84.81, 4126
84.8125, 4121
84.815, 4130
84.8175, 4143
84.82, 4133
84.8225, 4132
84.825, 4114
84.8275, 4144
84.83, 4138
84.8325, 4133
84.835, 4149
84.8375, 4145
84.84, 4151
84.8425, 4108
84.845, 4145
84.8475, 4149
84.85, 4133
84.8525, 4134
84.855, 4159
84.8575, 4164
84.86, 4106
84.8625, 4129
84.865, 4140
84.8675, 4123
84.87, 4125
84.8725, 4153
84.875, 4145
84.8775, 4127
84.88, 4180
84.8825, 4185
84.885, 4177
84.8875, 4194
84.89, 4197
84.8925, 4202
84.895, 4176
84.8975, 4243
84.9, 4231
84.9025, 4203
84.905, 4201
84.9075, 4248
84.91, 4247
84.9125, 4208
84.915, 4242
84.9175, 4249
84.92, 4242
84.9225, 4238
84.925, 4242
84.9275, 4260
84.93, 4229
84.9325, 4260
84.935, 4258
84.9375, 4255
84.94, 4269
84.9425, 4244
84.945, 4245
84.9475, 4219
84.95, 4232
84.9525, 4230
84.955, 4237
84.9575, 4250
84.96, 4233
84.9625, 4247
84.965, 4201
84.9675, 4229
84.97, 4230
84.9725, 4219
84.975, 4208
84.9775, 4213
84.98, 4233
84.9825, 4184
84.985, 4223
84.9875, 4204
84.99, 4196
84.9925, 4192
84.995, 4179
84.9975, 4197
85.0, 4150
85.0025, 4165
85.005, 4176
85.0075, 4170
85.01, 4198
85.0125, 4205
85.015, 4201
85.0175, 4168
85.02, 4213
85.0225, 4208
85.025, 4173
85.0275, 4178
85.03, 4159
85.0325, 4172
85.035, 4146
85.0375, 4192
85.04, 4175
85.0425, 4181
85.045, 4171
85.0475, 4165
85.05, 4149
85.0525, 4137
85.055, 4151
85.0575, 4167
85.06, 4139
85.0625, 4171
85.065, 4173
85.0675, 4162
85.07, 4148
85.0725, 4178
85.075, 4180
85.0775, 4156
85.08, 4144
85.0825, 4151
85.085, 4130
85.0875, 4115
85.09, 4159
85.0925, 4166
85.095, 4149
85.0975, 4156
85.1, 4164
85.1025, 4167
85.105, 4149
85.1075, 4182
85.11, 4181
85.1125, 4185
85.115, 4168
85.1175, 4145
85.12, 4177
85.1225, 4129
85.125, 4157
85.1275, 4142
85.13, 4133
85.1325, 4159
85.135, 4174
85.1375, 4143
85.14, 4127
85.1425, 4149
85.145, 4165
85.1475, 4140
85.15, 4131
85.1525, 4144
85.155, 4140
85.1575, 4127
85.16, 4175
85.1625, 4166
85.165, 4146
85.1675, 4139
85.17, 4133
85.1725, 4151
85.175, 4145
85.1775, 4186
85.18, 4159
85.1825, 4164
85.185, 4153
85.1875, 4133
85.19, 4123
85.1925, 4114
85.195, 4147
85.1975, 4150
85.2, 4136
85.2025, 4153
85.205, 4126
85.2075, 4127
85.21, 4113
85.2125, 4156
85.215, 4141
85.2175, 4141
85.22, 4143
85.2225, 4151
85.225, 4128
85.2275, 4105
85.23, 4154
85.2325, 4154
85.235, 4156
85.2375, 4158
85.24, 4170
85.2425, 4149
85.245, 4125
85.2475, 4169
85.25, 4155
85.2525, 4133
85.255, 4158
85.2575, 4169
85.26, 4158
85.2625, 4031
85.265, 4180
85.2675, 4126
85.27, 4128
85.2725, 4141
85.275, 4151
85.2775, 4158
85.28, 4152
85.2825, 4171
85.285, 4168
85.2875, 4147
85.29, 4169
85.2925, 4160
85.295, 4156
85.2975, 4128
85.3, 4144
85.3025, 4154
85.305, 4140
85.3075, 4156
85.31, 4170
85.3125, 4179
85.315, 4147
85.3175, 4145
85.32, 4139
85.3225, 4126
85.325, 4157
85.3275, 4192
85.33, 4166
85.3325, 4151
85.335, 4179
85.3375, 4160
85.34, 4159
85.3425, 4179
85.345, 4178
85.3475, 4169
85.35, 4138
85.3525, 4174
85.355, 4145
85.3575, 4132
85.36, 4149
85.3625, 4158
85.365, 4165
85.3675, 4149
85.37, 4170
85.3725, 4167
85.375, 4148
85.3775, 4161
85.38, 4169
85.3825, 4149
85.385, 4128
85.3875, 4166
85.39, 4167
85.3925, 4140
85.395, 4185
85.3975, 4179
85.4, 4173
85.4025, 4140
85.405, 4182
85.4075, 4164
85.41, 4142
85.4125, 4158
85.415, 4171
85.4175, 4168
85.42, 4157
85.4225, 4198
85.425, 4192
85.4275, 4182
85.43, 4178
85.4325, 4166
85.435, 4163
85.4375, 4144
85.44, 4154
85.4425, 4166
85.445, 4166
85.4475, 4173
85.45, 4167
85.4525, 4192
85.455, 4124
85.4575, 4174
85.46, 4179
85.4625, 4184
85.465, 4152
85.4675, 4177
85.47, 4165
85.4725, 4135
85.475, 4148
85.4775, 4143
85.48, 4146
85.4825, 4144
85.485, 4153
85.4875, 4180
85.49, 4159
85.4925, 4188
85.495, 4179
85.4975, 4145
85.5, 4133
85.5025, 4109
85.505, 4097
85.5075, 4037
85.51, 4082
85.5125, 4072
85.515, 4100
85.5175, 4131
85.52, 4163
85.5225, 4141
85.525, 4117
85.5275, 4161
85.53, 4123
85.5325, 4126
85.535, 4157
85.5375, 4186
85.54, 4177
85.5425, 4148
85.545, 4179
85.5475, 4150
85.55, 4145
85.5525, 4172
85.555, 4162
85.5575, 4169
85.56, 4161
85.5625, 4189
85.565, 4187
85.5675, 4173
85.57, 4188
85.5725, 4217
85.575, 4185
85.5775, 4137
85.58, 4196
85.5825, 4199
85.585, 4188
85.5875, 4187
85.59, 4179
85.5925, 4156
85.595, 4140
85.5975, 4176
85.6, 4171
85.6025, 4167
85.605, 4230
85.6075, 4301
85.61, 4354
85.6125, 4354
85.615, 4417
85.6175, 4449
85.62, 4404
85.6225, 4281
85.625, 4116
85.6275, 3902
85.63, 3598
85.6325, 3371
85.635, 3020
85.6375, 2606
85.64, 2200
85.6425, 2020
85.645, 1998
85.6475, 2142
85.65, 2624
85.6525, 3405
85.655, 4225
85.6575, 4750
85.66, 4943
85.6625, 4902
85.665, 4774
85.6675, 4646
85.67, 4548
85.6725, 4512
85.675, 4512
85.6775, 4502
85.68, 4480
85.6825, 4452
85.685, 4480
85.6875, 4482
85.69, 4485
85.6925, 4480
85.695, 4479
85.6975, 4446
85.7, 4389
85.7025, 4422
85.705, 4429
85.7075, 4392
85.71, 4392
85.7125, 4392
85.715, 4374
85.7175, 4333
85.72, 4371
85.7225, 4369
85.725, 4337
85.7275, 4343
85.73, 4315
85.7325, 4314
85.735, 4296
85.7375, 4307
85.74, 4332
85.7425, 4313
85.745, 4342
85.7475, 4321
85.75, 4297
85.7525, 4250
85.755, 4273
85.7575, 4256
85.76, 4242
85.7625, 4234
85.765, 4259
85.7675, 4252
85.77, 4213
85.7725, 4238
85.775, 4230
85.7775, 4221
85.78, 4242
85.7825, 4231
85.785, 4217
85.7875, 4185
85.79, 4210
85.7925, 4200
85.795, 4211
85.7975, 4209
85.8, 4185
85.8025, 4162
85.805, 4150
85.8075, 4195
85.81, 4191
85.8125, 4181
85.815, 4209
85.8175, 4211
85.82, 4199
85.8225, 4176
85.825, 4221
85.8275, 4225
85.83, 4210
85.8325, 4225
85.835, 4198
85.8375, 4197
85.84, 4205
85.8425, 4227
85.845, 4199
85.8475, 4185
85.85, 4211
85.8525, 4187
85.855, 4185
85.8575, 4171
85.86, 4213
85.8625, 4198
85.865, 4161
85.8675, 4182
85.87, 4182
85.8725, 4173
85.875, 4163
85.8775, 4202
85.88, 4192
85.8825, 4187
85.885, 4183
85.8875, 4190
85.89, 4151
85.8925, 4145
85.895, 4174
85.8975, 4175
85.9, 4185
85.9025, 4185
85.905, 4165
85.9075, 4164
85.91, 4152
85.9125, 4167
85.915, 4163
85.9175, 4160
85.92, 4146
85.9225, 4157
85.925, 4132
85.9275, 4113
85.93, 4121
85.9325, 4115
85.935, 4104
85.9375, 4105
85.94, 4120
85.9425, 4138
85.945, 4108
85.9475, 4140
85.95, 4145
85.9525, 4128
85.955, 4153
85.9575, 4150
85.96, 4152
85.9625, 4164
85.965, 4184
85.9675, 4182
85.97, 4205
85.9725, 4204
85.975, 4210
85.9775, 4206
85.98, 4096
85.9825, 4216
85.985, 4211
85.9875, 4212
85.99, 4230
85.9925, 4229
85.995, 4212
85.9975, 4196
86.0, 4217
86.0025, 4247
86.005, 4226
86.0075, 4243
86.01, 4236
86.0125, 4218
86.015, 4192
86.0175, 4232
86.02, 4221
86.0225, 4228
86.025, 4221
86.0275, 4222
86.03, 4213
86.0325, 4171
86.035, 4202
86.0375, 4199
86.04, 4207
86.0425, 4194
86.045, 4218
86.0475, 4212
86.05, 4156
86.0525, 4221
86.055, 4194
86.0575, 4148
86.06, 4148
86.0625, 4193
86.065, 4190
86.0675, 4168
86.07, 4192
86.0725, 4180
86.075, 4173
86.0775, 4188
86.08, 4212
86.0825, 4209
86.085, 4158
86.0875, 4186
86.09, 4196
86.0925, 4169
86.095, 4178
86.0975, 4189
86.1, 4183
86.1025, 4139
86.105, 4183
86.1075, 4164
86.11, 4185
86.1125, 4192
86.115, 4177
86.1175, 4187
86.12, 4155
86.1225, 4189
86.125, 4198
86.1275, 4181
86.13, 4170
86.1325, 4183
86.135, 4186
86.1375, 4166
86.14, 4209
86.1425, 4195
86.145, 4178
86.1475, 4174
86.15, 4208
86.1525, 4210
86.155, 4163
86.1575, 4187
86.16, 4173
86.1625, 4180
86.165, 4210
86.1675, 4209
86.17, 4197
86.1725, 4144
86.175, 4188
86.1775, 4182
86.18, 4185
86.1825, 4186
86.185, 4186
86.1875, 4215
86.19, 4187
86.1925, 4191
86.195, 4146
86.1975, 4133
86.2, 4151
86.2025, 4153
86.205, 4153
86.2075, 4131
86.21, 4174
86.2125, 4171
86.215, 4149
86.2175, 4180
86.22, 4168
86.2225, 4175
86.225, 4134
86.2275, 4159
86.23, 4160
86.2325, 4171
86.235, 4167
86.2375, 4171
86.24, 4172
86.2425, 4167
86.245, 4194
86.2475, 4181
86.25, 4157
86.2525, 4168
86.255, 4180
86.2575, 4161
86.26, 4056
86.2625, 4211
86.265, 4196
86.2675, 4167
86.27, 4196
86.2725, 4212
86.275, 4196
86.2775, 4142
86.28, 4178
86.2825, 4177
86.285, 4174
86.2875, 4173
86.29, 4165
86.2925, 4158
86.295, 4111
86.2975, 4162
86.3, 4132
86.3025, 4129
86.305, 4134
86.3075, 4166
86.31, 4167
86.3125, 4138
86.315, 4188
86.3175, 4190
86.32, 4156
86.3225, 4168
86.325, 4168
86.3275, 4161
86.33, 4138
86.3325, 4168
86.335, 4177
86.3375, 4176
86.34, 4188
86.3425, 4181
86.345, 4182
86.3475, 4070
86.35, 4188
86.3525, 4183
86.355, 4167
86.3575, 4171
86.36, 4168
86.3625, 4176
86.365, 4149
86.3675, 4170
86.37, 4159
86.3725, 4164
86.375, 4164
86.3775, 4179
86.38, 4171
86.3825, 4163
86.385, 4190
86.3875, 4192
86.39, 4184
86.3925, 4160
86.395, 4166
86.3975, 4163
86.4, 4137
86.4025, 4178
86.405, 4175
86.4075, 4158
86.41, 4164
86.4125, 4164
86.415, 4136
86.4175, 4126
86.42, 4167
86.4225, 4183
86.425, 4166
86.4275, 4167
86.43, 4150
86.4325, 4167
86.435, 4142
86.4375, 4168
86.44, 4164
86.4425, 4160
86.445, 4167
86.4475, 4180
86.45, 4172
86.4525, 4140
86.455, 4187
86.4575, 4191
86.46, 4161
86.4625, 4163
86.465, 4154
86.4675, 4169
86.47, 4147
86.4725, 4165
86.475, 4160
86.4775, 4141
86.48, 4148
86.4825, 4160
86.485, 4163
86.4875, 4040
86.49, 4163
86.4925, 4175
86.495, 4158
86.4975, 4136
86.5, 4170
86.5025, 4150
86.505, 4102
86.5075, 4131
86.51, 4126
86.5125, 4140
86.515, 4165
86.5175, 4172
86.52, 4159
86.5225, 4139
86.525, 4197
86.5275, 4168
86.53, 4147
86.5325, 4174
86.535, 4180
86.5375, 4183
86.54, 4156
86.5425, 4194
86.545, 4175
86.5475, 4127
86.55, 4151
86.5525, 4160
86.555, 4151
86.5575, 4121
86.56, 4189
86.5625, 4189
86.565, 4177
86.5675, 4164
86.57, 4180
86.5725, 4179
86.575, 4156
86.5775, 4212
86.58, 4191
86.5825, 4134
86.585, 4156
86.5875, 4169
86.59, 4170
86.5925, 4162
86.595, 4162
86.5975, 4154
86.6, 4168
86.6025, 4153
86.605, 4176
86.6075, 4199
86.61, 4162
86.6125, 4163
86.615, 4168
86.6175, 4145
86.62, 4149
86.6225, 4166
86.625, 4172
86.6275, 4133
86.63, 4175
86.6325, 4184
86.635, 4169
86.6375, 4181
86.64, 4166
86.6425, 4177
86.645, 4178
86.6475, 4194
86.65, 4143
86.6525, 4119
86.655, 4088
86.6575, 4090
86.66, 4083
86.6625, 4047
86.665, 4094
86.6675, 4113
86.67, 4127
86.6725, 4145
86.675, 4157
86.6775, 4148
86.68, 4120
86.6825, 4157
86.685, 4165
86.6875, 4167
86.69, 4180
86.6925, 4175
86.695, 4181
86.6975, 4150
86.7, 4177
86.7025, 4175
86.705, 4169
86.7075, 4177
86.71, 4188
86.7125, 4180
86.715, 4169
86.7175, 4191
86.72, 4197
86.7225, 4188
86.725, 4199
86.7275, 4192
86.73, 4205
86.7325, 4188
86.735, 4200
86.7375, 4165
86.74, 4164
86.7425, 4187
86.745, 4174
86.7475, 4175
86.75, 4152
86.7525, 4185
86.755, 4208
86.7575, 4247
86.76, 4324
86.7625, 4386
86.765, 4392
86.7675, 4412
86.77, 4455
86.7725, 4395
86.775, 4255
86.7775, 4094
86.78, 3884
86.7825, 3600
86.785, 3290
86.7875, 2953
86.79, 2483
86.7925, 2135
86.795, 2003
86.7975, 2041
86.8, 2241
86.8025, 2824
86.805, 3673
86.8075, 4373
86.81, 4748
86.8125, 4858
86.815, 4814
86.8175, 4717
86.82, 4568
86.8225, 4531
86.825, 4519
86.8275, 4486
86.83, 4467
86.8325, 4464
86.835, 4474
86.8375, 4467
86.84, 4492
86.8425, 4502
86.845, 4508
86.8475, 4509
86.85, 4511
86.8525, 4472
86.855, 4408
86.8575, 4427
86.86, 4424
86.8625, 4386
86.865, 4410
86.8675, 4415
86.87, 4398
86.8725, 4383
86.875, 4387
86.8775, 4363
86.88, 4342
86.8825, 4345
86.885, 4352
86.8875, 4343
86.89, 4310
86.8925, 4322
86.895, 4311
86.8975, 4325
86.9, 4321
86.9025, 4299
86.905, 4299
86.9075, 4285
86.91, 4334
86.9125, 4307
86.915, 4303
86.9175, 4298
86.92, 4294
86.9225, 4283
86.925, 4245
86.9275, 4284
86.93, 4279
86.9325, 4275
86.935, 4266
86.9375, 4272
86.94, 4261
86.9425, 4210
86.945, 4231
86.9475, 4247
86.95, 4233
86.9525, 4242
86.955, 4230
86.9575, 4230
86.96, 4202
86.9625, 4213
86.965, 4202
86.9675, 4191
86.97, 4182
86.9725, 4196
86.975, 4210
86.9775, 4089
86.98, 4227
86.9825, 4217
86.985, 4209
86.9875, 4204
86.99, 4189
86.9925, 4184
86.995, 4175
86.9975, 4219
87.0, 4212
87.0025, 4207
87.005, 4206
87.0075, 4213
87.01, 4186
87.0125, 4151
87.015, 4188
87.0175, 4168
87.02, 4171
87.0225, 4172
87.025, 4184
87.0275, 4157
87.03, 4138
87.0325, 4196
87.035, 4171
87.0375, 4174
87.04, 4182
87.0425, 4173
87.045, 4164
87.0475, 4139
87.05, 4180
87.0525, 4159
87.055, 4150
87.0575, 4167
87.06, 4146
87.0625, 4118
87.065, 4089
87.0675, 4120
87.07, 4116
87.0725, 4103
87.075, 4119
87.0775, 4116
87.08, 4116
87.0825, 4079
87.085, 4091
87.0875, 4098
87.09, 4086
87.0925, 4082
87.095, 4112
87.0975, 4113
87.1, 4098
87.1025, 4131
87.105, 4174
87.1075, 4151
87.11, 4177
87.1125, 4165
87.115, 4172
87.1175, 4201
87.12, 4224
87.1225, 4207
87.125, 4218
87.1275, 4238
87.13, 4216
87.1325, 4229
87.135, 4195
87.1375, 4262
87.14, 4251
87.1425, 4230
87.145, 4232
87.1475, 4224
87.15, 4218
87.1525, 4217
87.155, 4253
87.1575, 4252
87.16, 4240
87.1625, 4242
87.165, 4233
87.1675, 4226
87.17, 4193
87.1725, 4215
87.175, 4210
87.1775, 4240
87.18, 4243
87.1825, 4251
87.185, 4241
87.1875, 4218
87.19, 4234
87.1925, 4228
87.195, 4217
87.1975, 4205
87.2, 4225
87.2025, 4213
87.205, 4094
87.2075, 4240
87.21, 4229
87.2125, 4210
87.215, 4210
87.2175, 4231
87.22, 4201
87.2225, 4158
87.225, 4205
87.2275, 4189
87.23, 4183
87.2325, 4193
87.235, 4207
87.2375, 4183
87.24, 4164
87.2425, 4200
87.245, 4218
87.2475, 4187
87.25, 4171
87.2525, 4187
87.255, 4183
87.2575, 4160
87.26, 4192
87.2625, 4184
87.265, 4149
87.2675, 4185
87.27, 4183
87.2725, 4169
87.275, 4122
87.2775, 4168
87.28, 4185
87.2825, 4174
87.285, 4181
87.2875, 4187
87.29, 4169
87.2925, 4178
87.295, 4167
87.2975, 4160
87.3, 4168
87.3025, 4187
87.305, 4168
87.3075, 4132
87.31, 4100
87.3125, 4157
87.315, 4176
87.3175, 4134
87.32, 4170
87.3225, 4157
87.325, 4159
87.3275, 4142
87.33, 4157
87.3325, 4182
87.335, 4155
87.3375, 4162
87.34, 4163
87.3425, 4170
87.345, 4147
87.3475, 4178
87.35, 4156
87.3525, 4179
87.355, 4171
87.3575, 4159
87.36, 4193
87.3625, 4170
87.365, 4200
87.3675, 4162
87.37, 4142
87.3725, 4137
87.375, 4129
87.3775, 4151
87.38, 4150
87.3825, 4179
87.385, 4164
87.3875, 4155
87.39, 4162
87.3925, 4173
87.395, 4179
87.3975, 4135
87.4, 4154
87.4025, 4169
87.405, 4154
87.4075, 4165
87.41, 4164
87.4125, 4173
87.415, 4154
87.4175, 4177
87.42, 4182
87.4225, 4181
87.425, 4159
87.4275, 4125
87.43, 4121
87.4325, 4092
87.435, 4148
87.4375, 4171
87.44, 4181
87.4425, 4180
87.445, 4188
87.4475, 4183
87.45, 4174
87.4525, 4196
87.455, 4182
87.4575, 4168
87.46, 4163
87.4625, 4163
87.465, 4154
87.4675, 4150
87.47, 4173
87.4725, 4162
87.475, 4179
87.4775, 4187
87.48, 4189
87.4825, 4165
87.485, 4151
87.4875, 4213
87.49, 4183
87.4925, 4180
87.495, 4182
87.4975, 4204
87.5, 4206
87.5025, 4142
87.505, 4190
87.5075, 4154
87.51, 4171
87.5125, 4180
87.515, 4155
87.5175, 4164
87.52, 4146
87.5225, 4159
87.525, 4148
87.5275, 4153
87.53, 4146
87.5325, 4189
87.535, 4194
87.5375, 4157
87.54, 4180
87.5425, 4193
87.545, 4177
87.5475, 4200
87.55, 4194
87.5525, 4170
87.555, 4121
87.5575, 4142
87.56, 4146
87.5625, 4160
87.565, 4167
87.5675, 4184
87.57, 4173
87.5725, 4143
87.575, 4177
87.5775, 4185
87.58, 4184
87.5825, 4196
87.585, 4182
87.5875, 4167
87.59, 4134
87.5925, 4182
87.595, 4200
87.5975, 4175
87.6, 4162
87.6025, 4216
87.605, 4180
87.6075, 4161
87.61, 4191
87.6125, 4177
87.615, 4178
87.6175, 4202
87.62, 4163
87.6225, 4173
87.625, 4132
87.6275, 4181
87.63, 4168
87.6325, 4178
87.635, 4170
87.6375, 4204
87.64, 4211
87.6425, 4098
87.645, 4227
87.6475, 4183
87.65, 4166
87.6525, 4172
87.655, 4141
87.6575, 4143
87.66, 4116
87.6625, 4172
87.665, 4167
87.6675, 4159
87.67, 4202
87.6725, 4168
87.675, 4156
87.6775, 4113
87.68, 4136
87.6825, 4111
87.685, 4128
87.6875, 4078
87.69, 4112
87.6925, 4112
87.695, 4101
87.6975, 4150
87.7, 4182
87.7025, 4158
87.705, 4162
87.7075, 4171
87.71, 4170
87.7125, 4140
87.715, 4168
87.7175, 4165
87.72, 4181
87.7225, 4187
87.725, 4192
87.7275, 4182
87.73, 4155
87.7325, 4180
87.735, 4182
87.7375, 4190
87.74, 4217
87.7425, 4220
87.745, 4204
87.7475, 4084
87.75, 4220
87.7525, 4215
87.755, 4208
87.7575, 4192
87.76, 4192
87.7625, 4183
87.765, 4162
87.7675, 4182
87.77, 4170
87.7725, 4173
87.775, 4173
87.7775, 4201
87.78, 4200
87.7825, 4148
87.785, 4354
87.7875, 4388
87.79, 4374
87.7925, 4417
87.795, 4421
87.7975, 4326
87.8, 4134
87.8025, 3984
87.805, 3765
87.8075, 3468
87.81, 3231
87.8125, 2885
87.815, 2402
87.8175, 2110
87.82, 1965
87.8225, 2040
87.825, 2323
87.8275, 2960
87.83, 3822
87.8325, 4561
87.835, 4846
87.8375, 4915
87.84, 4853
87.8425, 4740
87.845, 4640
87.8475, 4551
87.85, 4520
87.8525, 4370
87.855, 4460
87.8575, 4463
87.86, 4436
87.8625, 4438
87.865, 4426
87.8675, 4424
87.87, 4405
87.8725, 4436
87.875, 4413
87.8775, 4409
87.88, 4410
87.8825, 4402
87.885, 4406
87.8875, 4368
87.89, 4390
87.8925, 4381
87.895, 4361
87.8975, 4354
87.9, 4361
87.9025, 4353
87.905, 4311
87.9075, 4335
87.91, 4333
87.9125, 4324
87.915, 4320
87.9175, 4289
87.92, 4282
87.9225, 4209
87.925, 4305
87.9275, 4317
87.93, 4292
87.9325, 4278
87.935, 4265
87.9375, 4283
87.94, 4260
87.9425, 4276
87.945, 4265
87.9475, 4256
87.95, 4273
87.9525, 4258
87.955, 4229
87.9575, 4193
87.96, 4228
87.9625, 4214
87.965, 4227
87.9675, 4212
87.97, 4241
87.9725, 4208
87.975, 4165
87.9775, 4182
87.98, 4177
87.9825, 4185
87.985, 4180
87.9875, 4180
87.99, 4183
87.9925, 4185
87.995, 4199
87.9975, 4192
88.0, 4200
88.0025, 4216
88.005, 4193
88.0075, 4174
88.01, 4137
88.0125, 4167
88.015, 4144
88.0175, 4165
88.02, 4165
88.0225, 4179
88.025, 4183
88.0275, 4145
88.03, 4178
88.0325, 4183
88.035, 4155
88.0375, 4194
88.04, 4186
88.0425, 4170
88.045, 4156
88.0475, 4171
88.05, 4151
88.0525, 4153
88.055, 4162
88.0575, 4146
88.06, 4150
88.0625, 4126
88.065, 4161
88.0675, 4155
88.07, 4139
88.0725, 4128
88.075, 4136
88.0775, 4134
88.08, 4118
88.0825, 4170
88.085, 4162
88.0875, 4124
88.09, 4114
88.0925, 4123
88.095, 4127
88.0975, 4097
88.1, 4135
88.1025, 4134
88.105, 4125
88.1075, 4127
88.11, 4112
88.1125, 4097
88.115, 4091
88.1175, 4086
88.12, 4118
88.1225, 4125
88.125, 4157
88.1275, 4156
88.13, 4162
88.1325, 4125
88.135, 4177
88.1375, 4170
88.14, 4191
88.1425, 4211
88.145, 4215
88.1475, 4242
88.15, 4212
88.1525, 4241
88.155, 4235
88.1575, 4234
88.16, 4230
88.1625, 4200
88.165, 4219
88.1675, 4213
88.17, 4241
88.1725, 4229
88.175, 4225
88.1775, 4228
88.18, 4234
88.1825, 4235
88.185, 4214
88.1875, 4259
88.19, 4225
88.1925, 4238
88.195, 4203
88.1975, 4228
88.2, 4214
88.2025, 4176
88.205, 4222
88.2075, 4198
88.21, 4197
88.2125, 4195
88.215, 4229
88.2175, 4224
88.22, 4206
88.2225, 4201
88.225, 4189
88.2275, 4210
88.23, 4199
88.2325, 4193
88.235, 4184
88.2375, 4180
88.24, 4191
88.2425, 4189
88.245, 4178
88.2475, 4178
88.25, 4172
88.2525, 4169
88.255, 4160
88.2575, 4205
88.26, 4205
88.2625, 4197
88.265, 4199
88.2675, 4195
88.27, 4186
88.2725, 4143
88.275, 4179
88.2775, 4177
88.28, 4178
88.2825, 4187
88.285, 4169
88.2875, 4180
88.29, 4165
88.2925, 4186
88.295, 4167
88.2975, 4167
88.3, 4207
88.3025, 4185
88.305, 4182
88.3075, 4165
88.31, 4188
88.3125, 4170
88.315, 4140
88.3175, 4174
88.32, 4182
88.3225, 4188
88.325, 4148
88.3275, 4180
88.33, 4132
88.3325, 4144
88.335, 4146
88.3375, 4150
88.34, 4155
88.3425, 4127
88.345, 4175
88.3475, 4176
88.35, 4161
88.3525, 4193
88.355, 4184
88.3575, 4180
88.36, 4145
88.3625, 4173
88.365, 4180
88.3675, 4157
88.37, 4181
88.3725, 4192
88.375, 4171
88.3775, 4173
88.38, 4182
88.3825, 4176
88.385, 4204
88.3875, 4181
88.39, 4195
88.3925, 4186
88.395, 4167
88.3975, 4195
88.4, 4170
88.4025, 4180
88.405, 4157
88.4075, 4180
88.41, 4193
88.4125, 4068
88.415, 4198
88.4175, 4177
88.42, 4170
88.4225, 4171
88.425, 4175
88.4275, 4171
88.43, 4038
88.4325, 4170
88.435, 4171
88.4375, 4169
88.44, 4184
88.4425, 4197
88.445, 4177
88.4475, 4154
88.45, 4160
88.4525, 4165
88.455, 4191
88.4575, 4200
88.46, 4178
88.4625, 4189
88.465, 4158
88.4675, 4167
88.47, 4177
88.4725, 4183
88.475, 4179
88.4775, 4197
88.48, 4187
88.4825, 4163
88.485, 4220
88.4875, 4225
88.49, 4206
88.4925, 4190
88.495, 4201
88.4975, 4216
88.5, 4186
88.5025, 4206
88.505, 4194
88.5075, 4209
88.51, 4207
88.5125, 4214
88.515, 4206
88.5175, 4159
88.52, 4193
88.5225, 4176
88.525, 4184
88.5275, 4194
88.53, 4203
88.5325, 4204
88.535, 4135
88.5375, 4188
88.54, 4172
88.5425, 4169
88.545, 4187
88.5475, 4184
88.55, 4165
88.5525, 4135
88.555, 4177
88.5575, 4199
88.56, 4173
88.5625, 4174
88.565, 4186
88.5675, 4157
88.57, 4145
88.5725, 4176
88.575, 4159
88.5775, 4145
88.58, 4177
88.5825, 4161
88.585, 4176
88.5875, 4137
88.59, 4168
88.5925, 4179
88.595, 4166
88.5975, 4169
88.6, 4190
88.6025, 4190
88.605, 4154
88.6075, 4188
88.61, 4169
88.6125, 4173
88.615, 4184
88.6175, 4197
88.62, 4157
88.6225, 4133
88.625, 4171
88.6275, 4179
88.63, 4167
88.6325, 4159
88.635, 4161
88.6375, 4151
88.64, 4123
88.6425, 4163
88.645, 4175
88.6475, 4169
88.65, 4176
88.6525, 4175
88.655, 4179
88.6575, 4151
88.66, 4193
88.6625, 4180
88.665, 4158
88.6675, 4170
88.67, 4181
88.6725, 4163
88.675, 4133
88.6775, 4155
88.68, 4180
88.6825, 4180
88.685, 4164
88.6875, 4167
88.69, 4164
88.6925, 4148
88.695, 4163
88.6975, 4151
88.7, 4158
88.7025, 4179
88.705, 4192
88.7075, 4176
88.71, 4146
88.7125, 4167
88.715, 4174
88.7175, 4152
88.72, 4168
88.7225, 4170
88.725, 4162
88.7275, 4148
88.73, 4156
88.7325, 4163
88.735, 4150
88.7375, 4160
88.74, 4177
88.7425, 4165
88.745, 4165
88.7475, 4195
88.75, 4195
88.7525, 4177
88.755, 4154
88.7575, 4155
88.76, 4164
88.7625, 4143
88.765, 4183
88.7675, 4193
88.77, 4165
88.7725, 4177
88.775, 4173
88.7775, 4169
88.78, 4164
88.7825, 4172
88.785, 4173
88.7875, 4162
88.79, 4169
88.7925, 4171
88.795, 4156
88.7975, 4108
88.8, 4149
88.8025, 4141
88.805, 4149
88.8075, 4169
88.81, 4161
88.8125, 4142
88.815, 4124
88.8175, 4105
88.82, 4130
88.8225, 4120
88.825, 4130
88.8275, 4112
88.83, 4116
88.8325, 4100
88.835, 4159
88.8375, 4150
88.84, 4143
88.8425, 4148
88.845, 4170
88.8475, 4121
88.85, 4103
88.8525, 4165
88.855, 4173
88.8575, 4171
88.86, 4196
88.8625, 4177
88.865, 4172
88.8675, 4148
88.87, 4150
88.8725, 4137
88.875, 4136
88.8775, 4162
88.88, 4172
88.8825, 4175
88.885, 4128
88.8875, 4180
88.89, 4163
88.8925, 4161
88.895, 4156
88.8975, 4169
88.9, 4156
88.9025, 4154
88.905, 4178
88.9075, 4138
88.91, 4125
88.9125, 4152
88.915, 4171
88.9175, 4199
88.92, 4280
88.9225, 4338
88.925, 4372
88.9275, 4386
88.93, 4446
88.9325, 4435
88.935, 4324
88.9375, 4136
88.94, 3969
88.9425, 3665
88.945, 3373
88.9475, 3043
88.95, 2621
88.9525, 2202
88.955, 1971
88.9575, 1984
88.96, 2120
88.9625, 2634
88.965, 3426
88.9675, 4150
88.97, 4606
88.9725, 4789
88.975, 4807
88.9775, 4703
88.98, 4569
88.9825, 4523
88.985, 4495
88.9875, 4474
88.99, 4425
88.9925, 4460
88.995, 4461
88.9975, 4470
89.0, 4482
89.0025, 4488
89.005, 4500
89.0075, 4468
89.01, 4493
89.0125, 4477
89.015, 4472
89.0175, 4422
89.02, 4445
89.0225, 4421
89.025, 4388
89.0275, 4409
89.03, 4413
89.0325, 4414
89.035, 4416
89.0375, 4405
89.04, 4398
89.0425, 4344
89.045, 4370
89.0475, 4372
89.05, 4374
89.0525, 4371
89.055, 4372
89.0575, 4345
89.06, 4311
89.0625, 4318
89.065, 4290
89.0675, 4288
89.07, 4283
89.0725, 4283
89.075, 4293
89.0775, 4267
89.08, 4301
89.0825, 4288
89.085, 4265
89.0875, 4293
89.09, 4290
89.0925, 4296
89.095, 4294
89.0975, 4288
89.1, 4272
89.1025, 4251
89.105, 4238
89.1075, 4231
89.11, 4226
89.1125, 4204
89.115, 4215
89.1175, 4230
89.12, 4211
89.1225, 4210
89.125, 4213
89.1275, 4198
89.13, 4187
89.1325, 4218
89.135, 4224
89.1375, 4222
89.14, 4260
89.1425, 4237
89.145, 4237
89.1475, 4178
89.15, 4197
89.1525, 4202
89.155, 4223
89.1575, 4192
89.16, 4175
89.1625, 4189
89.165, 4162
89.1675, 4196
89.17, 4160
89.1725, 4152
89.175, 4141
89.1775, 4158
89.18, 4163
89.1825, 4164
89.185, 4174
89.1875, 4164
89.19, 4172
89.1925, 4175
89.195, 4158
89.1975, 4166
89.2, 4133
89.2025, 4169
89.205, 4161
89.2075, 4153
89.21, 4159
89.2125, 4166
89.215, 4133
89.2175, 4096
89.22, 4133
89.2225, 4121
89.225, 4116
89.2275, 4150
89.23, 4147
89.2325, 4108
89.235, 4021
89.2375, 4145
89.24, 4139
89.2425, 4116
89.245, 4135
89.2475, 4121
89.25, 4130
89.2525, 4118
89.255, 4161
89.2575, 4130
89.26, 4121
89.2625, 4140
89.265, 4140
89.2675, 4135
89.27, 4103
89.2725, 4179
89.275, 4163
89.2775, 4141
89.28, 4163
89.2825, 4163
89.285, 4171
89.2875, 4157
89.29, 4214
89.2925, 4227
89.295, 4223
89.2975, 4224
89.3, 4233
89.3025, 4210
89.305, 4178
89.3075, 4208
89.31, 4225
89.3125, 4232
89.315, 4222
89.3175, 4205
89.32, 4197
89.3225, 4172
89.325, 4198
89.3275, 4190
89.33, 4218
89.3325, 4201
89.335, 4215
89.3375, 4226
89.34, 4208
89.3425, 4234
89.345, 4225
89.3475, 4225
89.35, 4224
89.3525, 4198
89.355, 4197
89.3575, 4202
89.36, 4221
89.3625, 4218
89.365, 4239
89.3675, 4206
89.37, 4199
89.3725, 4201
89.375, 4160
89.3775, 4200
89.38, 4199
89.3825, 4177
89.385, 4194
89.3875, 4198
89.39, 4205
89.3925, 4174
89.395, 4183
89.3975, 4173
89.4, 4162
89.4025, 4181
89.405, 4172
89.4075, 4177
89.41, 4152
89.4125, 4182
89.415, 4178
89.4175, 4181
89.42, 4173
89.4225, 4182
89.425, 4182
89.4275, 4139
89.43, 4182
89.4325, 4179
89.435, 4164
89.4375, 4185
89.44, 4154
89.4425, 4158
89.445, 4135
89.4475, 4154
89.45, 4166
89.4525, 4141
89.455, 4156
89.4575, 4156
89.46, 4149
89.4625, 4144
89.465, 4183
89.4675, 4159
89.47, 4136
89.4725, 4150
89.475, 4164
89.4775, 4143
89.48, 4034
89.4825, 4167
89.485, 4172
89.4875, 4170
89.49, 4172
89.4925, 4178
89.495, 4167
89.4975, 4147
89.5, 4170
89.5025, 4174
89.505, 4172
89.5075, 4172
89.51, 4169
89.5125, 4169
89.515, 4137
89.5175, 4169
89.52, 4178
89.5225, 4166
89.525, 4177
89.5275, 4181
89.53, 4174
89.5325, 4134
89.535, 4206
89.5375, 4203
89.54, 4185
89.5425, 4181
89.545, 4202
89.5475, 4172
89.55, 4141
89.5525, 4186
89.555, 4164
89.5575, 4180
89.56, 4206
89.5625, 4222
89.565, 4198
89.5675, 4171
89.57, 4183
89.5725, 4180
89.575, 4159
89.5775, 4142
89.58, 4133
89.5825, 4123
89.585, 4133
89.5875, 4158
89.59, 4160
89.5925, 4175
89.595, 4183
89.5975, 4189
89.6, 4221
89.6025, 4181
89.605, 4165
89.6075, 4161
89.61, 4141
89.6125, 4144
89.615, 4161
89.6175, 4152
89.62, 4135
89.6225, 4166
89.625, 4179
89.6275, 4160
89.63, 4190
89.6325, 4200
89.635, 4182
89.6375, 4118
89.64, 4173
89.6425, 4178
89.645, 4184
89.6475, 4187
89.65, 4199
89.6525, 4194
89.655, 4183
89.6575, 4231
89.66, 4215
89.6625, 4220
89.665, 4209
89.6675, 4230
89.67, 4229
89.6725, 4229
89.675, 4234
89.6775, 4201
89.68, 4193
89.6825, 4202
89.685, 4202
89.6875, 4159
89.69, 4134
89.6925, 4176
89.695, 4216
89.6975, 4204
89.7, 4211
89.7025, 4207
89.705, 4175
89.7075, 4167
89.71, 4207
89.7125, 4185
89.715, 4183
89.7175, 4206
89.72, 4197
89.7225, 4173
89.725, 4050
89.7275, 4192
89.73, 4189
89.7325, 4185
89.735, 4177
89.7375, 4185
89.74, 4180
89.7425, 4119
89.745, 4146
89.7475, 4153
89.75, 4141
89.7525, 4174
89.755, 4162
89.7575, 4147
89.76, 4129
89.7625, 4150
89.765, 4170
89.7675, 4168
89.77, 4158
89.7725, 4181
89.775, 4172
89.7775, 4147
89.78, 4165
89.7825, 4169
89.785, 4171
89.7875, 4183
89.79, 4155
89.7925, 4134
89.795, 4100
89.7975, 4140
89.8, 4140
89.8025, 4154
89.805, 4150
89.8075, 4144
89.81, 4146
89.8125, 4127
89.815, 4146
89.8175, 4144
89.82, 4153
89.8225, 4160
89.825, 4154
89.8275, 4155
89.83, 4037
89.8325, 4184
89.835, 4157
89.8375, 4149
89.84, 4164
89.8425, 4190
89.845, 4198
89.8475, 4172
89.85, 4176
89.8525, 4197
89.855, 4189
89.8575, 4163
89.86, 4158
89.8625, 4126
89.865, 4098
89.8675, 4135
89.87, 4131
89.8725, 4110
89.875, 4115
89.8775, 4121
89.88, 4145
89.8825, 4119
89.885, 4144
89.8875, 4119
89.89, 4127
89.8925, 4170
89.895, 4179
89.8975, 4206
89.9, 4176
89.9025, 4207
89.905, 4196
89.9075, 4188
89.91, 4218
89.9125, 4228
89.915, 4201
89.9175, 4157
89.92, 4189
89.9225, 4200
89.925, 4191
89.9275, 4191
89.93, 4196
89.9325, 4186
89.935, 4140
89.9375, 4167
89.94, 4146
89.9425, 4172
89.945, 4173
89.9475, 4197
89.95, 4197
89.9525, 4135
89.955, 4168
89.9575, 4181
89.96, 4193
89.9625, 4186
89.965, 4239
89.9675, 4279
89.97, 4271
89.9725, 4360
89.975, 4387
89.9775, 4410
89.98, 4322
89.9825, 4189
89.985, 3986
89.9875, 3752
89.99, 3496
89.9925, 3262
89.995, 2928
89.9975, 2494
90.0, 2215
90.0025, 2020
90.005, 2065
90.0075, 2360
90.01, 2910
90.0125, 3740
90.015, 4517
90.0175, 4831
90.02, 4939
90.0225, 4920
90.025, 4799
90.0275, 4671
90.03, 4561
90.0325, 4539
90.035, 4494
90.0375, 4481
90.04, 4439
90.0425, 4484
90.045, 4481
90.0475, 4503
90.05, 4506
90.0525, 4506
90.055, 4499
90.0575, 4449
90.06, 4489
90.0625, 4445
90.065, 4394
90.0675, 4413
90.07, 4404
90.0725, 4378
90.075, 4330
90.0775, 4361
90.08, 4355
90.0825, 4337
90.085, 4346
90.0875, 4341
90.09, 4312
90.0925, 4289
90.095, 4337
90.0975, 4334
90.1, 4337
90.1025, 4332
90.105, 4327
90.1075, 4297
90.11, 4256
90.1125, 4299
90.115, 4269
90.1175, 4271
90.12, 4285
90.1225, 4278
90.125, 4263
90.1275, 4140
90.13, 4279
90.1325, 4257
90.135, 4249
90.1375, 4246
90.14, 4234
90.1425, 4216
90.145, 4198
90.1475, 4220
90.15, 4220
90.1525, 4214
90.155, 4223
90.1575, 4224
90.16, 4195
90.1625, 4184
90.165, 4199
90.1675, 4189
90.17, 4184
90.1725, 4194
90.175, 4185
90.1775, 4178
90.18, 4151
90.1825, 4185
90.185, 4186
90.1875, 4173
90.19, 4175
90.1925, 4180
90.195, 4180
90.1975, 4062
90.2, 4207
90.2025, 4228
90.205, 4175
90.2075, 4195
90.21, 4205
90.2125, 4192
90.215, 4162
90.2175, 4213
90.22, 4209
90.2225, 4210
90.225, 4207
90.2275, 4203
90.23, 4218
90.2325, 4180
90.235, 4222
90.2375, 4188
90.24, 4186
90.2425, 4219
90.245, 4184
90.2475, 4191
90.25, 4137
90.2525, 4166
90.255, 4175
90.2575, 4182
90.26, 4210
90.2625, 4212
90.265, 4191
90.2675, 4197
90.27, 4204
90.2725, 4195
90.275, 4158
90.2775, 4158
90.28, 4147
90.2825, 4150
90.285, 4088
90.2875, 4154
90.29, 4161
90.2925, 4145
90.295, 4137
90.2975, 4115
90.3, 4131
90.3025, 4126
90.305, 4165
90.3075, 4158
90.31, 4166
90.3125, 4152
90.315, 4186
90.3175, 4185
90.32, 4190
90.3225, 4218
90.325, 4219
90.3275, 4203
90.33, 4200
90.3325, 4216
90.335, 4210
90.3375, 4177
90.34, 4233
90.3425, 4238
90.345, 4204
90.3475, 4215
90.35, 4210
90.3525, 4231
90.355, 4178
90.3575, 4205
90.36, 4220
90.3625, 4235
90.365, 4246
90.3675, 4258
90.37, 4245
90.3725, 4225
90.375, 4252
90.3775, 4235
90.38, 4232
90.3825, 4217
90.385, 4217
90.3875, 4212
90.39, 4185
90.3925, 4203
90.395, 4201
90.3975, 4202
90.4, 4203
90.4025, 4189
90.405, 4175
90.4075, 4177
90.41, 4204
90.4125, 4193
90.415, 4185
90.4175, 4200
90.42, 4181
90.4225, 4186
90.425, 4172
90.4275, 4187
90.43, 4185
90.4325, 4173
90.435, 4174
90.4375, 4175
90.44, 4167
90.4425, 4177
90.445, 4169
90.4475, 4194
90.45, 4180
90.4525, 4173
90.455, 4176
90.4575, 4162
90.46, 4166
90.4625, 4198
90.465, 4172
90.4675, 4178
90.47, 4181
90.4725, 4169
90.475, 4183
90.4775, 4145
90.48, 4186
90.4825, 4188
90.485, 4189
90.4875, 4186
90.49, 4169
90.4925, 4161
90.495, 4142
90.4975, 4180
90.5, 4138
90.5025, 4155
90.505, 4175
90.5075, 4158
90.51, 4155
90.5125, 4119
90.515, 4166
90.5175, 4147
90.52, 4168
90.5225, 4172
90.525, 4183
90.5275, 4180
90.53, 4157
90.5325, 4208
90.535, 4187
90.5375, 4182
90.54, 4179
90.5425, 4185
90.545, 4168
90.5475, 4165
90.55, 4180
90.5525, 4182
90.555, 4173
90.5575, 4182
90.56, 4201
90.5625, 4222
90.565, 4168
90.5675, 4197
90.57, 4187
90.5725, 4154
90.575, 4172
90.5775, 4180
90.58, 4191
90.5825, 4151
90.585, 4176
90.5875, 4174
90.59, 4178
90.5925, 4158
90.595, 4170
90.5975, 4149
90.6, 4148
90.6025, 4171
90.605, 4173
90.6075, 4172
90.61, 4172
90.6125, 4164
90.615, 4166
90.6175, 4161
90.62, 4153
90.6225, 4161
90.625, 4183
90.6275, 4189
90.63, 4164
90.6325, 4187
90.635, 4142
90.6375, 4179
90.64, 4155
90.6425, 4150
90.645, 4142
90.6475, 4182
90.65, 4171
90.6525, 4140
90.655, 4174
90.6575, 4158
90.66, 4158
90.6625, 4171
90.665, 4192
90.6675, 4181
90.67, 4166
90.6725, 4195
90.675, 4180
90.6775, 4169
90.68, 4167
90.6825, 4188
90.685, 4193
90.6875, 4180
90.69, 4188
90.6925, 4204
90.695, 4183
90.6975, 4177
90.7, 4174
90.7025, 4158
90.705, 4119
90.7075, 4168
90.71, 4185
90.7125, 4178
90.715, 4191
90.7175, 4178
90.72, 4183
90.7225, 4155
90.725, 4186
90.7275, 4194
90.73, 4189
90.7325, 4161
90.735, 4159
90.7375, 4161
90.74, 4153
90.7425, 4178
90.745, 4162
90.7475, 4154
90.75, 4165
90.7525, 4170
90.755, 4165
90.7575, 4143
90.76, 4158
90.7625, 4155
90.765, 4149
90.7675, 4170
90.77, 4205
90.7725, 4166
90.775, 4137
90.7775, 4163
90.78, 4141
90.7825, 4153
90.785, 4197
90.7875, 4192
90.79, 4191
90.7925, 4158
90.795, 4181
90.7975, 4165
90.8, 4180
90.8025, 4182
90.805, 4164
90.8075, 4155
90.81, 4156
90.8125, 4187
90.815, 4197
90.8175, 4187
90.82, 4184
90.8225, 4193
90.825, 4181
90.8275, 4147
90.83, 4187
90.8325, 4183
90.835, 4173
90.8375, 4165
90.84, 4178
90.8425, 4195
90.845, 4174
90.8475, 4177
90.85, 4165
90.8525, 4139
90.855, 4156
90.8575, 4166
90.86, 4197
90.8625, 4149
90.865, 4179
90.8675, 4198
90.87, 4168
90.8725, 4167
90.875, 4195
90.8775, 4199
90.88, 4051
90.8825, 4190
90.885, 4163
90.8875, 4148
90.89, 4140
90.8925, 4126
90.895, 4124
90.8975, 4100
90.9, 4115
90.9025, 4099
90.905, 4113
90.9075, 4141
90.91, 4164
90.9125, 4150
90.915, 4139
90.9175, 4143
90.92, 4171
90.9225, 4159
90.925, 4170
90.9275, 4184
90.93, 4183
90.9325, 4157
90.935, 4189
90.9375, 4173
90.94, 4152
90.9425, 4186
90.945, 4180
90.9475, 4198
90.95, 4175
90.9525, 4186
90.955, 4175
90.9575, 4158
90.96, 4184
90.9625, 4189
90.965, 4146
90.9675, 4134
90.97, 4175
90.9725, 4183
90.975, 4189
90.9775, 4182
90.98, 4178
90.9825, 4176
90.985, 4153
90.9875, 4205
90.99, 4211
90.9925, 4279
90.995, 4330
90.9975, 4381
91.0, 4418
91.0025, 4429
91.005, 4473
91.0075, 4376
91.01, 4245
91.0125, 4046
91.015, 3801
91.0175, 3485
91.02, 3135
91.0225, 2800
91.025, 2325
91.0275, 2034
91.03, 1940
91.0325, 1996
91.035, 2389
91.0375, 3061
91.04, 3885
91.0425, 4471
91.045, 4771
91.0475, 4837
91.05, 4764
91.0525, 4641
91.055, 4508
91.0575, 4516
91.06, 4525
91.0625, 4517
91.065, 4496
91.0675, 4498
91.07, 4489
91.0725, 4502
91.075, 4532
91.0775, 4530
91.08, 4505
91.0825, 4512
91.085, 4511
91.0875, 4506
91.09, 4475
91.0925, 4442
91.095, 4438
91.0975, 4438
91.1, 4436
91.1025, 4432
91.105, 4421
91.1075, 4400
91.11, 4428
91.1125, 4407
91.115, 4362
91.1175, 4354
91.12, 4351
91.1225, 4354
91.125, 4287
91.1275, 4336
91.13, 4307
91.1325, 4307
91.135, 4316
91.1375, 4320
91.14, 4317
91.1425, 4290
91.145, 4295
91.1475, 4291
91.15, 4263
91.1525, 4274
91.155, 4299
91.1575, 4286
91.16, 4144
91.1625, 4283
91.165, 4255
91.1675, 4243
91.17, 4232
91.1725, 4208
91.175, 4203
91.1775, 4170
91.18, 4221
91.1825, 4225
91.185, 4207
91.1875, 4213
91.19, 4227
91.1925, 4224
91.195, 4198
91.1975, 4223
91.2, 4223
91.2025, 4204
91.205, 4189
91.2075, 4187
91.21, 4191
91.2125, 4176
91.215, 4200
91.2175, 4194
91.22, 4205
91.2225, 4196
91.225, 4196
91.2275, 4152
91.23, 4134
91.2325, 4188
91.235, 4177
91.2375, 4152
91.24, 4179
91.2425, 4179
91.245, 4161
91.2475, 4124
91.25, 4181
91.2525, 4183
91.255, 4166
91.2575, 4187
91.26, 4175
91.2625, 4189
91.265, 4157
91.2675, 4185
91.27, 4185
91.2725, 4171
91.275, 4183
91.2775, 4193
91.28, 4193
91.2825, 4158
91.285, 4183
91.2875, 4186
91.29, 4176
91.2925, 4176
91.295, 4182
91.2975, 4180
91.3, 4127
91.3025, 4170
91.305, 4145
91.3075, 4137
91.31, 4124
91.3125, 4119
91.315, 4111
91.3175, 4086
91.32, 4099
91.3225, 4095
91.325, 4075
91.3275, 4110
91.33, 4094
91.3325, 4103
91.335, 4087
91.3375, 4126
91.34, 4116
91.3425, 4129
91.345, 4139
91.3475, 4127
91.35, 4142
91.3525, 4095
91.355, 4148
91.3575, 4144
91.36, 4148
91.3625, 4171
91.365, 4176
91.3675, 4198
91.37, 4167
91.3725, 4203
91.375, 4202
91.3775, 4164
91.38, 4169
91.3825, 4183
91.385, 4186
91.3875, 4172
91.39, 4211
91.3925, 4200
91.395, 4171
91.3975, 4177
91.4, 4195
91.4025, 4176
91.405, 4132
91.4075, 4167
91.41, 4178
91.4125, 4161
91.415, 4188
91.4175, 4196
91.42, 4186
91.4225, 4178
91.425, 4190
91.4275, 4184
91.43, 4179
91.4325, 4198
91.435, 4165
91.4375, 4172
91.44, 4133
91.4425, 4171
91.445, 4161
91.4475, 4163
91.45, 4164
91.4525, 4181
91.455, 4180
91.4575, 4153
91.46, 4166
91.4625, 4168
91.465, 4157
91.4675, 4174
91.47, 4202
91.4725, 4182
91.475, 4152
91.4775, 4150
91.48, 4152
91.4825, 4159
91.485, 4149
91.4875, 4161
91.49, 4174
91.4925, 4153
91.495, 4156
91.4975, 4163
91.5, 4160
91.5025, 4161
91.505, 4184
91.5075, 4186
91.51, 4157
91.5125, 4190
91.515, 4195
91.5175, 4188
91.52, 4177
91.5225, 4185
91.525, 4210
91.5275, 4183
91.53, 4211
91.5325, 4210
91.535, 4203
91.5375, 4179
91.54, 4201
91.5425, 4175
91.545, 4145
91.5475, 4175
91.55, 4164
91.5525, 4165
91.555, 4181
91.5575, 4191
91.56, 4183
91.5625, 4159
91.565, 4194
91.5675, 4176
91.57, 4151
91.5725, 4137
91.575, 4193
91.5775, 4168
91.58, 4127
91.5825, 4150
91.585, 4166
91.5875, 4160
91.59, 4181
91.5925, 4167
91.595, 4168
91.5975, 4111
91.6, 4151
91.6025, 4161
91.605, 4157
91.6075, 4161
91.61, 4138
91.6125, 4144
91.615, 4114
91.6175, 4153
91.62, 4158
91.6225, 4163
91.625, 4157
91.6275, 4172
91.63, 4150
91.6325, 4127
91.635, 4155
91.6375, 4158
91.64, 4163
91.6425, 4189
91.645, 4182
91.6475, 4163
91.65, 4128
91.6525, 4181
91.655, 4154
91.6575, 4145
91.66, 4137
91.6625, 4175
91.665, 4194
91.6675, 4164
91.67, 4193
91.6725, 4184
91.675, 4150
91.6775, 4160
91.68, 4165
91.6825, 4158
91.685, 4139
91.6875, 4203
91.69, 4204
91.6925, 4169
91.695, 4191
91.6975, 4184
91.7, 4178
91.7025, 4058
91.705, 4190
91.7075, 4186
91.71, 4188
91.7125, 4202
91.715, 4215
91.7175, 4199
91.72, 4155
91.7225, 4170
91.725, 4165
91.7275, 4170
91.73, 4155
91.7325, 4171
91.735, 4166
91.7375, 4080
91.74, 4158
91.7425, 4146
91.745, 4140
91.7475, 4185
91.75, 4167
91.7525, 4150
91.755, 4126
91.7575, 4176
91.76, 4160
91.7625, 4158
91.765, 4185
91.7675, 4197
91.77, 4188
91.7725, 4146
91.775, 4162
91.7775, 4158
91.78, 4161
91.7825, 4145
91.785, 4153
91.7875, 4159
91.79, 4130
91.7925, 4175
91.795, 4157
91.7975, 4144
91.8, 4146
91.8025, 4162
91.805, 4185
91.8075, 4152
91.81, 4184
91.8125, 4173
91.815, 4150
91.8175, 4160
91.82, 4148
91.8225, 4148
91.825, 4134
91.8275, 4193
91.83, 4163
91.8325, 4162
91.835, 4173
91.8375, 4163
91.84, 4152
91.8425, 4120
91.845, 4166
91.8475, 4180
91.85, 4172
91.8525, 4168
91.855, 4183
91.8575, 4182
91.86, 4151
91.8625, 4182
91.865, 4189
91.8675, 4173
91.87, 4162
91.8725, 4182
91.875, 4164
91.8775, 4142
91.88, 4194
91.8825, 4184
91.885, 4205
91.8875, 4170
91.89, 4152
91.8925, 4142
91.895, 4091
91.8975, 4127
91.9, 4135
91.9025, 4134
91.905, 4153
91.9075, 4159
91.91, 4120
91.9125, 4106
91.915, 4131
91.9175, 4135
91.92, 4139
91.9225, 4157
91.925, 4163
91.9275, 4175
91.93, 4157
91.9325, 4204
91.935, 4183
91.9375, 4177
91.94, 4186
91.9425, 4196
91.945, 4189
91.9475, 4173
91.95, 4185
91.9525, 4183
91.955, 4172
91.9575, 4187
91.96, 4178
91.9625, 4183
91.965, 4176
91.9675, 4194
91.97, 4217
91.9725, 4223
91.975, 4189
91.9775, 4178
91.98, 4184
91.9825, 4171
91.985, 4206
91.9875, 4201
91.99, 4205
91.9925, 4232
91.995, 4310
91.9975, 4353
92.0, 4349
92.0025, 4409
92.005, 4411
92.0075, 4397
92.01, 4268
92.0125, 4098
92.015, 3881
92.0175, 3579
92.02, 3388
92.0225, 3056
92.025, 2642
92.0275, 2252
92.03, 2068
92.0325, 2036
92.035, 2199
92.0375, 2654
92.04, 3414
92.0425, 4277
92.045, 4759
92.0475, 4963
92.05, 4963
92.0525, 4821
92.055, 4717
92.0575, 4619
92.06, 4542
92.0625, 4528
92.065, 4475
92.0675, 4452
92.07, 4338
92.0725, 4454
92.075, 4448
92.0775, 4462
92.08, 4469
92.0825, 4462
92.085, 4431
92.0875, 4423
92.09, 4419
92.0925, 4397
92.095, 4379
92.0975, 4393
92.1, 4398
92.1025, 4384
92.105, 4270
92.1075, 4386
92.11, 4380
92.1125, 4375
92.115, 4358
92.1175, 4337
92.12, 4317
92.1225, 4186
92.125, 4317
92.1275, 4328
92.13, 4303
92.1325, 4281
92.135, 4279
92.1375, 4293
92.14, 4225
92.1425, 4267
92.145, 4261
92.1475, 4256
92.15, 4268
92.1525, 4267
92.155, 4262
92.1575, 4212
92.16, 4255
92.1625, 4249
92.165, 4261
92.1675, 4251
92.17, 4229
92.1725, 4223
92.175, 4204
92.1775, 4213
92.18, 4227
92.1825, 4224
92.185, 4213
92.1875, 4219
92.19, 4213
92.1925, 4213
92.195, 4236
92.1975, 4223
92.2, 4216
92.2025, 4217
92.205, 4211
92.2075, 4176
92.21, 4150
92.2125, 4182
92.215, 4163
92.2175, 4185
92.22, 4177
92.2225, 4191
92.225, 4196
92.2275, 4164
92.23, 4203
92.2325, 4198
92.235, 4189
92.2375, 4192
92.24, 4188
92.2425, 4160
92.245, 4148
92.2475, 4195
92.25, 4195
92.2525, 4187
92.255, 4204
92.2575, 4202
92.26, 4203
92.2625, 4192
92.265, 4186
92.2675, 4181
92.27, 4168
92.2725, 4179
92.275, 4193
92.2775, 4159
92.28, 4094
92.2825, 4146
92.285, 4174
92.2875, 4179
92.29, 4179
92.2925, 4176
92.295, 4173
92.2975, 4142
92.3, 4163
92.3025, 4163
92.305, 4152
92.3075, 4149
92.31, 4139
92.3125, 4139
92.315, 4115
92.3175, 4163
92.32, 4153
92.3225, 4161
92.325, 4176
92.3275, 4173
92.33, 4175
92.3325, 4148
92.335, 4189
92.3375, 4187
92.34, 4174
92.3425, 4204
92.345, 4234
92.3475, 4204
92.35, 4188
92.3525, 4195
92.355, 4205
92.3575, 4210
92.36, 4208
92.3625, 4210
92.365, 4203
92.3675, 4191
92.37, 4237
92.3725, 4266
92.375, 4241
92.3775, 4236
92.38, 4236
92.3825, 4247
92.385, 4233
92.3875, 4251
92.39, 4239
92.3925, 4248
92.395, 4237
92.3975, 4214
92.4, 4207
92.4025, 4211
92.405, 4209
92.4075, 4200
92.41, 4196
92.4125, 4229
92.415, 4238
92.4175, 4204
92.42, 4166
92.4225, 4200
92.425, 4198
92.4275, 4182
92.43, 4170
92.4325, 4183
92.435, 4177
92.4375, 4161
92.44, 4151
92.4425, 4161
92.445, 4174
92.4475, 4155
92.45, 4172
92.4525, 4184
92.455, 4166
92.4575, 4185
92.46, 4190
92.4625, 4179
92.465, 4178
92.4675, 4161
92.47, 4171
92.4725, 4158
92.475, 4190
92.4775, 4193
92.48, 4181
92.4825, 4191
92.485, 4205
92.4875, 4173
92.49, 4153
92.4925, 4184
92.495, 4139
92.4975, 4128
92.5, 4148
92.5025, 4174
92.505, 4154
92.5075, 4110
92.51, 4168
92.5125, 4159
92.515, 4144
92.5175, 4153
92.52, 4170
92.5225, 4168
92.525, 4126
92.5275, 4178
92.53, 4166
92.5325, 4168
92.535, 4182
92.5375, 4166
92.54, 4154
92.5425, 4137
92.545, 4193
92.5475, 4167
92.55, 4174
92.5525, 4162
92.555, 4166
92.5575, 4177
92.56, 4139
92.5625, 4180
92.565, 4176
92.5675, 4174
92.57, 4190
92.5725, 4184
92.575, 4174
92.5775, 4173
92.58, 4206
92.5825, 4184
92.585, 4185
92.5875, 4183
92.59, 4181
92.5925, 4162
92.595, 4129
92.5975, 4186
92.6, 4174
92.6025, 4173
92.605, 4175
92.6075, 4180
92.61, 4194
92.6125, 4150
92.615, 4200
92.6175, 4177
92.62, 4166
92.6225, 4195
92.625, 4169
92.6275, 4158
92.63, 4116
92.6325, 4158
92.635, 4142
92.6375, 4138
92.64, 4144
92.6425, 4171
92.645, 4173
92.6475, 4147
92.65, 4191
92.6525, 4160
92.655, 4155
92.6575, 4185
92.66, 4179
92.6625, 4167
92.665, 4151
92.6675, 4152
92.67, 4163
92.6725, 4163
92.675, 4133
92.6775, 4162
92.68, 4149
92.6825, 4127
92.685, 4153
92.6875, 4137
92.69, 4155
92.6925, 4152
92.695, 4149
92.6975, 4161
92.7, 4058
92.7025, 4169
92.705, 4140
92.7075, 4149
92.71, 4148
92.7125, 4185
92.715, 4161
92.7175, 4169
92.72, 4179
92.7225, 4173
92.725, 4165
92.7275, 4159
92.73, 4167
92.7325, 4158
92.735, 4102
92.7375, 4155
92.74, 4155
92.7425, 4148
92.745, 4151
92.7475, 4145
92.75, 4152
92.7525, 4122
92.755, 4149
92.7575, 4168
92.76, 4157
92.7625, 4156
92.765, 4172
92.7675, 4157
92.77, 4038
92.7725, 4153
92.775, 4147
92.7775, 4173
92.78, 4159
92.7825, 4140
92.785, 4128
92.7875, 4101
92.79, 4150
92.7925, 4159
92.795, 4138
92.7975, 4132
92.8, 4123
92.8025, 4123
92.805, 4122
92.8075, 4157
92.81, 4165
92.8125, 4171
92.815, 4141
92.8175, 4136
92.82, 4141
92.8225, 4110
92.825, 4145
92.8275, 4138
92.83, 4142
92.8325, 4145
92.835, 4161
92.8375, 4144
92.84, 4126
92.8425, 4153
92.845, 4143
92.8475, 4131
92.85, 4145
92.8525, 4154
92.855, 4135
92.8575, 4127
92.86, 4162
92.8625, 4141
92.865, 4135
92.8675, 4135
92.87, 4154
92.8725, 4150
92.875, 4127
92.8775, 4189
92.88, 4167
92.8825, 4133
92.885, 4149
92.8875, 4142
92.89, 4114
92.8925, 4098
92.895, 4140
92.8975, 4157
92.9, 4171
92.9025, 4196
92.905, 4190
92.9075, 4191
92.91, 4179
92.9125, 4207
92.915, 4198
92.9175, 4178
92.92, 4195
92.9225, 4200
92.925, 4190
92.9275, 4147
92.93, 4175
92.9325, 4180
92.935, 4170
92.9375, 4182
92.94, 4195
92.9425, 4196
92.945, 4190
92.9475, 4214
92.95, 4197
92.9525, 4179
92.955, 4171
92.9575, 4187
92.96, 4172
92.9625, 4154
92.965, 4231
92.9675, 4294
92.97, 4366
92.9725, 4393
92.975, 4432
92.9775, 4430
92.98, 4397
92.9825, 4352
92.985, 4198
92.9875, 3989
92.99, 3724
92.9925, 3432
92.995, 3074
92.9975, 2674
93.0, 2227
93.0025, 1968
93.005, 1918
93.0075, 2038
93.01, 2513
93.0125, 3267
93.015, 4026
93.0175, 4573
93.02, 4810
93.0225, 4850
93.025, 4741
93.0275, 4636
93.03, 4560
93.0325, 4507
93.035, 4519
93.0375, 4517
93.04, 4505
93.0425, 4505
93.045, 4511
93.0475, 4498
93.05, 4468
93.0525, 4482
93.055, 4473
93.0575, 4457
93.06, 4462
93.0625, 4449
93.065, 4457
93.0675, 4440
93.07, 4472
93.0725, 4465
93.075, 4439
93.0775, 4438
93.08, 4450
93.0825, 4410
93.085, 4353
93.0875, 4393
93.09, 4392
93.0925, 4383
93.095, 4388
93.0975, 4380
93.1, 4368
93.1025, 4329
93.105, 4367
93.1075, 4329
93.11, 4334
93.1125, 4345
93.115, 4332
93.1175, 4335
93.12, 4280
93.1225, 4299
93.125, 4298
93.1275, 4306
93.13, 4309
93.1325, 4275
93.135, 4257
93.1375, 4226
93.14, 4266
93.1425, 4241
93.145, 4257
93.1475, 4231
93.15, 4251
93.1525, 4256
93.155, 4228
93.1575, 4245
93.16, 4265
93.1625, 4233
93.165, 4224
93.1675, 4231
93.17, 4197
93.1725, 4150
93.175, 4196
93.1775, 4213
93.18, 4217
93.1825, 4211
93.185, 4228
93.1875, 4212
93.19, 4188
93.1925, 4225
93.195, 4218
93.1975, 4213
93.2, 4205
93.2025, 4221
93.205, 4221
93.2075, 4172
93.21, 4223
93.2125, 4195
93.215, 4211
93.2175, 4233
93.22, 4217
93.2225, 4181
93.225, 4169
93.2275, 4192
93.23, 4185
93.2325, 4169
93.235, 4175
93.2375, 4186
93.24, 4197
93.2425, 4170
93.245, 4217
93.2475, 4209
93.25, 4215
93.2525, 4218
93.255, 4197
93.2575, 4189
93.26, 4162
93.2625, 4194
93.265, 4195
93.2675, 4180
93.27, 4185
93.2725, 4160
93.275, 4162
93.2775, 4120
93.28, 4164
93.2825, 4127
93.285, 4115
93.2875, 4084
93.29, 4091
93.2925, 4087
93.295, 4087
93.2975, 4121
93.3, 4110
93.3025, 4115
93.305, 4102
93.3075, 4115
93.31, 4120
93.3125, 4001
93.315, 4152
93.3175, 4152
93.32, 4124
93.3225, 4136
93.325, 4147
93.3275, 4154
93.33, 4139
93.3325, 4192
93.335, 4178
93.3375, 4169
93.34, 4188
93.3425, 4193
93.345, 4204
93.3475, 4166
93.35, 4183
93.3525, 4181
93.355, 4186
93.3575, 4220
93.36, 4223
93.3625, 4209
93.365, 4091
93.3675, 4211
93.37, 4191
93.3725, 4187
93.375, 4209
93.3775, 4190
93.38, 4195
93.3825, 4174
93.385, 4207
93.3875, 4197
93.39, 4195
93.3925, 4191
93.395, 4186
93.3975, 4197
93.4, 4151
93.4025, 4178
93.405, 4198
93.4075, 4193
93.41, 4201
93.4125, 4207
93.415, 4209
93.4175, 4180
93.42, 4140
93.4225, 4145
93.425, 4155
93.4275, 4122
93.43, 4191
93.4325, 4185
93.435, 4053
93.4375, 4187
93.44, 4181
93.4425, 4208
93.445, 4191
93.4475, 4164
93.45, 4145
93.4525, 4126
93.455, 4154
93.4575, 4157
93.46, 4154
93.4625, 4146
93.465, 4149
93.4675, 4136
93.47, 4090
93.4725, 4145
93.475, 4138
93.4775, 4150
93.48, 4131
93.4825, 4145
93.485, 4165
93.4875, 4136
93.49, 4189
93.4925, 4171
93.495, 4165
93.4975, 4144
93.5, 4176
93.5025, 4180
93.505, 4148
93.5075, 4194
93.51, 4176
93.5125, 4161
93.515, 4136
93.5175, 4137
93.52, 4144
93.5225, 4129
93.525, 4156
93.5275, 4143
93.53, 4158
93.5325, 4172
93.535, 4169
93.5375, 4157
93.54, 4113
93.5425, 4142
93.545, 4154
93.5475, 4167
93.55, 4166
93.5525, 4171
93.555, 4168
93.5575, 4130
93.56, 4177
93.5625, 4167
93.565, 4159
93.5675, 4186
93.57, 4173
93.5725, 4150
93.575, 4101
93.5775, 4178
93.58, 4157
93.5825, 4137
93.585, 4148
93.5875, 4149
93.59, 4156
93.5925, 4119
93.595, 4147
93.5975, 4143
93.6, 4131
93.6025, 4143
93.605, 4159
93.6075, 4169
93.61, 4134
93.6125, 4158
93.615, 4148
93.6175, 4132
93.62, 4159
93.6225, 4171
93.625, 4156
93.6275, 4142
93.63, 4184
93.6325, 4173
93.635, 4172
93.6375, 4169
93.64, 4162
93.6425, 4182
93.645, 4140
93.6475, 4146
93.65, 4134
93.6525, 4145
93.655, 4153
93.6575, 4148
93.66, 4166
93.6625, 4138
93.665, 4185
93.6675, 4189
93.67, 4191
93.6725, 4215
93.675, 4206
93.6775, 4185
93.68, 4157
93.6825, 4206
93.685, 4198
93.6875, 4180
93.69, 4199
93.6925, 4192
93.695, 4204
93.6975, 4184
93.7, 4209
93.7025, 4206
93.705, 4195
93.7075, 4217
93.71, 4222
93.7125, 4182
93.715, 4137
93.7175, 4174
93.72, 4181
93.7225, 4178
93.725, 4171
93.7275, 4170
93.73, 4194
93.7325, 4149
93.735, 4186
93.7375, 4169
93.74, 4167
93.7425, 4166
93.745, 4177
93.7475, 4184
93.75, 4054
93.7525, 4196
93.755, 4181
93.7575, 4210
93.76, 4188
93.7625, 4188
93.765, 4191
93.7675, 4137
93.77, 4178
93.7725, 4185
93.775, 4157
93.7775, 4154
93.78, 4135
93.7825, 4155
93.785, 4122
93.7875, 4162
93.79, 4147
93.7925, 4165
93.795, 4172
93.7975, 4182
93.8, 4165
93.8025, 4099
93.805, 4114
93.8075, 4107
93.81, 4141
93.8125, 4160
93.815, 4148
93.8175, 4135
93.82, 4118
93.8225, 4131
93.825, 4104
93.8275, 4118
93.83, 4138
93.8325, 4124
93.835, 4156
93.8375, 4118
93.84, 4170
93.8425, 4166
93.845, 4173
93.8475, 4193
93.85, 4199
93.8525, 4202
93.855, 4157
93.8575, 4196
93.86, 4193
93.8625, 4187
93.865, 4187
93.8675, 4160
93.87, 4154
93.8725, 4144
93.875, 4169
93.8775, 4169
93.88, 4163
93.8825, 4170
93.885, 4160
93.8875, 4172
93.89, 4107
93.8925, 4165
93.895, 4184
93.8975, 4148
93.9, 4157
93.9025, 4167
93.905, 4183
93.9075, 4147
93.91, 4236
93.9125, 4323
93.915, 4372
93.9175, 4403
93.92, 4434
93.9225, 4445
93.925, 4371
93.9275, 4233
93.93, 4064
93.9325, 3844
93.935, 3579
93.9375, 3359
93.94, 2997
93.9425, 2544
93.945, 2216
93.9475, 2014
93.95, 1997
93.9525, 2238
93.955, 2741
93.9575, 3538
93.96, 4335
93.9625, 4788
93.965, 4930
93.9675, 4916
93.97, 4821
93.9725, 4682
93.975, 4592
93.9775, 4478
93.98, 4489
93.9825, 4465
93.985, 4464
93.9875, 4456
93.99, 4457
93.9925, 4438
93.995, 4447
93.9975, 4470
94.0, 4457
94.0025, 4419
94.005, 4428
94.0075, 4424
94.01, 4395
94.0125, 4372
94.015, 4397
94.0175, 4396
94.02, 4375
94.0225, 4374
94.025, 4345
94.0275, 4338
94.03, 4289
94.0325, 4359
94.035, 4340
94.0375, 4318
94.04, 4330
94.0425, 4331
94.045, 4309
94.0475, 4248
94.05, 4271
94.0525, 4271
94.055, 4262
94.0575, 4284
94.06, 4258
94.0625, 4259
94.065, 4192
94.0675, 4245
94.07, 4247
94.0725, 4244
94.075, 4243
94.0775, 4254
94.08, 4235
94.0825, 4169
94.085, 4206
94.0875, 4210
94.09, 4225
94.0925, 4220
94.095, 4206
94.0975, 4195
94.1, 4205
94.1025, 4211
94.105, 4174
94.1075, 4172
94.11, 4198
94.1125, 4210
94.115, 4205
94.1175, 4159
94.12, 4193
94.1225, 4185
94.125, 4180
94.1275, 4168
94.13, 4182
94.1325, 4173
94.135, 4142
94.1375, 4174
94.14, 4188
94.1425, 4182
94.145, 4175
94.1475, 4186
94.15, 4198
94.1525, 4148
94.155, 4182
94.1575, 4192
94.16, 4189
94.1625, 4218
94.165, 4196
94.1675, 4167
94.17, 4126
94.1725, 4169
94.175, 4183
94.1775, 4179
94.18, 4185
94.1825, 4173
94.185, 4185
94.1875, 4184
94.19, 4223
94.1925, 4209
94.195, 4185
94.1975, 4177
94.2, 4175
94.2025, 4159
94.205, 4152
94.2075, 4194
94.21, 4169
94.2125, 4182
94.215, 4184
94.2175, 4196
94.22, 4185
94.2225, 4131
94.225, 4166
94.2275, 4141
94.23, 4143
94.2325, 4145
94.235, 4138
94.2375, 4144
94.24, 4136
94.2425, 4180
94.245, 4195
94.2475, 4180
94.25, 4193
94.2525, 4175
94.255, 4182
94.2575, 4154
94.26, 4212
94.2625, 4215
94.265, 4201
94.2675, 4211
94.27, 4235
94.2725, 4212
94.275, 4222
94.2775, 4245
94.28, 4214
94.2825, 4206
94.285, 4210
94.2875, 4210
94.29, 4225
94.2925, 4110
94.295, 4225
94.2975, 4205
94.3, 4222
94.3025, 4232
94.305, 4213
94.3075, 4209
94.31, 4215
94.3125, 4259
94.315, 4253
94.3175, 4228
94.32, 4247
94.3225, 4221
94.325, 4225
94.3275, 4192
94.33, 4237
94.3325, 4237
94.335, 4234
94.3375, 4250
94.34, 4233
94.3425, 4210
94.345, 4187
94.3475, 4233
94.35, 4219
94.3525, 4231
94.355, 4245
94.3575, 4227
94.36, 4218
94.3625, 4158
94.365, 4190
94.3675, 4175
94.37, 4175
94.3725, 4180
94.375, 4172
94.3775, 4163
94.38, 4137
94.3825, 4163
94.385, 4165
94.3875, 4164
94.39, 4161
94.3925, 4170
94.395, 4184
94.3975, 4133
94.4, 4175
94.4025, 4158
94.405, 4161
94.4075, 4159
94.41, 4183
94.4125, 4172
94.415, 4140
94.4175, 4179
94.42, 4156
94.4225, 4164
94.425, 4170
94.4275, 4184
94.43, 4172
94.4325, 4136
94.435, 4153
94.4375, 4164
94.44, 4171
94.4425, 4167
94.445, 4155
94.4475, 4180
94.45, 4160
94.4525, 4206
94.455, 4189
94.4575, 4161
94.46, 4177
94.4625, 4176
94.465, 4174
94.4675, 4197
94.47, 4192
94.4725, 4154
94.475, 4159
94.4775, 4131
94.48, 4196
94.4825, 4192
94.485, 4136
94.4875, 4179
94.49, 4183
94.4925, 4165
94.495, 4189
94.4975, 4175
94.5, 4176
94.5025, 4153
94.505, 4190
94.5075, 4171
94.51, 4178
94.5125, 4160
94.515, 4158
94.5175, 4158
94.52, 4062
94.5225, 4190
94.525, 4188
94.5275, 4178
94.53, 4178
94.5325, 4160
94.535, 4177
94.5375, 4151
94.54, 4185
94.5425, 4178
94.545, 4167
94.5475, 4145
94.55, 4221
94.5525, 4206
94.555, 4193
94.5575, 4189
94.56, 4169
94.5625, 4154
94.565, 4164
94.5675, 4156
94.57, 4168
94.5725, 4129
94.575, 4169
94.5775, 4165
94.58, 4138
94.5825, 4160
94.585, 4173
94.5875, 4169
94.59, 4127
94.5925, 4168
94.595, 4176
94.5975, 4166
94.6, 4167
94.6025, 4164
94.605, 4160
94.6075, 4122
94.61, 4185
94.6125, 4172
94.615, 4168
94.6175, 4168
94.62, 4163
94.6225, 4160
94.625, 4129
94.6275, 4183
94.63, 4168
94.6325, 4157
94.635, 4181
94.6375, 4164
94.64, 4155
94.6425, 4137
94.645, 4157
94.6475, 4156
94.65, 4149
94.6525, 4163
94.655, 4182
94.6575, 4198
94.66, 4155
94.6625, 4201
94.665, 4180
94.6675, 4179
94.67, 4181
94.6725, 4188
94.675, 4157
94.6775, 4114
94.68, 4139
94.6825, 4127
94.685, 4126
94.6875, 4151
94.69, 4147
94.6925, 4149
94.695, 4116
94.6975, 4148
94.7, 4144
94.7025, 4141
94.705, 4148
94.7075, 4148
94.71, 4155
94.7125, 4133
94.715, 4162
94.7175, 4164
94.72, 4152
94.7225, 4126
94.725, 4173
94.7275, 4178
94.73, 4140
94.7325, 4198
94.735, 4192
94.7375, 4194
94.74, 4179
94.7425, 4190
94.745, 4184
94.7475, 4132
94.75, 4157
94.7525, 4179
94.755, 4164
94.7575, 4147
94.76, 4142
94.7625, 4151
94.765, 4117
94.7675, 4152
94.77, 4170
94.7725, 4154
94.775, 4162
94.7775, 4184
94.78, 4186
94.7825, 4147
94.785, 4183
94.7875, 4187
94.79, 4185
94.7925, 4172
94.795, 4159
94.7975, 4176
94.8, 4140
94.8025, 4176
94.805, 4177
94.8075, 4147
94.81, 4174
94.8125, 4162
94.815, 4172
94.8175, 4140
94.82, 4199
94.8225, 4150
94.825, 4166
94.8275, 4188
94.83, 4175
94.8325, 4175
94.8349999999, 4147
94.8374999999, 4191
94.8399999999, 4216
94.8424999999, 4198
94.8449999999, 4185
94.8474999999, 4184
94.8499999999, 4175
94.8524999999, 4176
94.8549999999, 4162
94.8574999999, 4191
94.8599999999, 4273
94.8624999999, 4371
94.8649999999, 4401
94.8674999999, 4429
94.8699999999, 4321
94.8724999999, 4469
94.8749999999, 4393
94.8774999999, 4239
94.8799999999, 4016
94.8824999999, 3771
94.8849999999, 3478
94.8874999999, 3084
94.8899999999, 2730
94.8924999999, 2252
94.8949999999, 1964
94.8974999999, 1860
94.8999999999, 1974
94.9024999999, 2384
94.9049999999, 3086
94.9074999999, 3980
94.9099999999, 4569
94.9124999999, 4815
94.9149999999, 4879
94.9174999999, 4816
94.9199999999, 4686
94.9224999999, 4569
94.9249999999, 4555
94.9274999999, 4547
94.9299999999, 4513
94.9324999999, 4498
94.9349999999, 4496
94.9374999999, 4510
94.9399999999, 4472
94.9424999999, 4514
94.9449999999, 4495
94.9474999999, 4474
94.9499999999, 4485
94.9524999999, 4485
94.9549999999, 4495
94.9574999999, 4469
94.9599999999, 4472
94.9624999999, 4456
94.9649999999, 4427
94.9674999999, 4427
94.9699999999, 4430
94.9724999999, 4418
94.9749999999, 4387
94.9774999999, 4413
94.9799999999, 4399
94.9824999999, 4383
94.9849999999, 4371
94.9874999999, 4383
94.9899999999, 4358
94.9924999999, 4327
94.9949999999, 4338
94.9974999999, 4342
94.9999999999, 4329
95.0024999999, 4319
95.0049999999, 4294
95.0074999999, 4281
95.0099999999, 4178
95.0124999999, 4309
95.0149999999, 4299
95.0174999999, 4297
95.0199999999, 4298
95.0224999999, 4279
95.0249999999, 4266
95.0274999999, 4223
95.0299999999, 4269
95.0324999999, 4254
95.0349999999, 4276
95.0374999999, 4259
95.0399999999, 4262
95.0424999999, 4269
95.0449999999, 4223
95.0474999999, 4236
95.0499999999, 4236
95.0524999999, 4223
95.0549999999, 4239
95.0574999999, 4229
95.0599999999, 4215
95.0624999999, 4187
95.0649999999, 4233
95.0674999999, 4208
95.0699999999, 4196
95.0724999999, 4212
95.0749999999, 4225
95.0774999999, 4226
95.0799999999, 4193
95.0824999999, 4203
95.0849999999, 4206
95.0874999999, 4189
95.0899999999, 4212
95.0924999999, 4212
95.0949999999, 4210
95.0974999999, 4164
95.0999999999, 4198
95.1024999999, 4196
95.1049999999, 4208
95.1074999999, 4177
95.1099999999, 4171
95.1124999999, 4189
95.1149999999, 4173
95.1174999999, 4196
95.1199999999, 4199
95.1224999999, 4204
95.1249999999, 4219
95.1274999999, 4244
95.1299999999, 4249
95.1324999999, 4230
95.1349999999, 4219
95.1374999999, 4203
95.1399999999, 4193
95.1424999999, 4222
95.1449999999, 4224
95.1474999999, 4202
95.1499999999, 4180
95.1524999999, 4200
95.1549999999, 4174
95.1574999999, 4183
95.1599999999, 4205
95.1624999999, 4197
95.1649999999, 4180
95.1674999999, 4128
95.1699999999, 4176
95.1724999999, 4171
95.1749999999, 4163
95.1774999999, 4160
95.1799999999, 4147
95.1824999999, 4123
95.1849999999, 4096
95.1874999999, 4111
95.1899999999, 4136
95.1924999999, 4136
95.1949999999, 4140
95.1974999999, 4150
95.1999999999, 4160
95.2024999999, 4128
95.2049999999, 4157
95.2074999999, 4156
95.2099999999, 4142
95.2124999999, 4158
95.2149999999, 4165
95.2174999999, 4166
95.2199999999, 4039
95.2224999999, 4188
95.2249999999, 4192
95.2274999999, 4182
95.2299999999, 4176
95.2324999999, 4180
95.2349999999, 4189
95.2374999999, 4068
95.2399999999, 4198
95.2424999999, 4198
95.2449999999, 4200
95.2474999999, 4209
95.2499999999, 4219
95.2524999999, 4208
95.2549999999, 4173
95.2574999999, 4190
95.2599999999, 4202
95.2624999999, 4192
95.2649999999, 4185
95.2674999999, 4198
95.2699999999, 4181
95.2724999999, 4163
95.2749999999, 4221
95.2774999999, 4220
95.2799999999, 4212
95.2824999999, 4219
95.2849999999, 4212
95.2874999999, 4192
95.2899999999, 4180
95.2924999999, 4203
95.2949999999, 4212
95.2974999999, 4196
95.2999999999, 4188
95.3024999999, 4194
95.3049999999, 4186
95.3074999999, 4170
95.3099999999, 4182
95.3124999999, 4174
95.3149999999, 4182
95.3174999999, 4169
95.3199999999, 4174
95.3224999999, 4175
95.3249999999, 4123
95.3274999999, 4166
95.3299999999, 4157
95.3324999999, 4158
95.3349999999, 4142
95.3374999999, 4176
95.3399999999, 4162
95.3424999999, 4133
95.3449999999, 4158
95.3474999999, 4166
95.3499999999, 4174
95.3524999999, 4165
95.3549999999, 4166
95.3574999999, 4172
95.3599999999, 4144
95.3624999999, 4166
95.3649999999, 4178
95.3674999999, 4180
95.3699999999, 4164
95.3724999999, 4151
95.3749999999, 4164
95.3774999999, 4133
95.3799999999, 4165
95.3824999999, 4168
95.3849999999, 4161
95.3874999999, 4132
95.3899999999, 4164
95.3924999999, 4166
95.3949999999, 4132
95.3974999999, 4155
95.3999999999, 4127
95.4024999999, 4118
95.4049999999, 4133
95.4074999999, 4170
95.4099999999, 4168
95.4124999999, 4084
95.4149999999, 4104
95.4174999999, 4119
95.4199999999, 4153
95.4224999999, 4173
95.4249999999, 4161
95.4274999999, 4159
95.4299999999, 4148
95.4324999999, 4158
95.4349999999, 4174
95.4374999999, 4164
95.4399999999, 4175
95.4424999999, 4146
95.4449999999, 4141
95.4474999999, 4016
95.4499999999, 4157
95.4524999999, 4137
95.4549999999, 4175
95.4574999999, 4167
95.4599999999, 4147
95.4624999999, 4158
95.4649999999, 4111
95.4674999999, 4161
95.4699999999, 4162
95.4724999999, 4156
95.4749999999, 4148
95.4774999999, 4172
95.4799999999, 4169
95.4824999999, 4137
95.4849999999, 4175
95.4874999999, 4171
95.4899999999, 4177
95.4924999999, 4165
95.4949999999, 4170
95.4974999999, 4167
95.4999999999, 4128
95.5024999999, 4162
95.5049999999, 4118
95.5074999999, 4137
95.5099999999, 4154
95.5124999999, 4158
95.5149999999, 4150
95.5174999999, 4045
95.5199999999, 4166
95.5224999999, 4181
95.5249999999, 4159
95.5274999999, 4151
95.5299999999, 4177
95.5324999999, 4169
95.5349999999, 4132
95.5374999999, 4167
95.5399999999, 4170
95.5424999999, 4181
95.5449999999, 4144
95.5474999999, 4133
95.5499999999, 4132
95.5524999999, 4106
95.5549999999, 4151
95.5574999999, 4178
95.5599999999, 4161
95.5624999999, 4176
95.5649999999, 4185
95.5674999999, 4165
95.5699999999, 4142
95.5724999999, 4158
95.5749999999, 4160
95.5774999999, 4147
95.5799999999, 4144
95.5824999999, 4170
95.5849999999, 4167
95.5874999999, 4126
95.5899999999, 4151
95.5924999999, 4160
95.5949999999, 4169
95.5974999999, 4180
95.5999999999, 4175
95.6024999999, 4177
95.6049999999, 4173
95.6074999999, 4200
95.6099999999, 4188
95.6124999999, 4158
95.6149999999, 4145
95.6174999999, 4165
95.6199999999, 4187
95.6224999999, 4055
95.6249999999, 4174
95.6274999999, 4149
95.6299999999, 4111
95.6324999999, 4082
95.6349999999, 4135
95.6374999999, 4136
95.6399999999, 4100
95.6424999999, 4134
95.6449999999, 4117
95.6474999999, 4098
95.6499999999, 4092
95.6524999999, 4140
95.6549999999, 4148
95.6574999999, 4127
95.6599999999, 4150
95.6624999999, 4163
95.6649999999, 4187
95.6674999999, 4197
95.6699999999, 4189
95.6724999999, 4204
95.6749999999, 4065
95.6774999999, 4171
95.6799999999, 4165
95.6824999999, 4179
95.6849999999, 4189
95.6874999999, 4195
95.6899999999, 4175
95.6924999999, 4068
95.6949999999, 4204
95.6974999999, 4198
95.6999999999, 4170
95.7024999999, 4149
95.7049999999, 4158
95.7074999999, 4157
95.7099999999, 4112
95.7124999999, 4143
95.7149999999, 4165
95.7174999999, 4156
95.7199999999, 4172
95.7224999999, 4160
95.7249999999, 4178
95.7274999999, 4161
95.7299999999, 4164
95.7324999999, 4163
95.7349999999, 4169
95.7374999999, 4182
95.7399999999, 4230
95.7424999999, 4317
95.7449999999, 4313
95.7474999999, 4403
95.7499999999, 4424
95.7524999999, 4436
95.7549999999, 4338
95.7574999999, 4195
95.7599999999, 3979
95.7624999999, 3737
95.7649999999, 3493
95.7674999999, 3175
95.7699999999, 2825
95.7724999999, 2349
95.7749999999, 2081
95.7774999999, 1956
95.7799999999, 2037
95.7824999999, 2374
95.7849999999, 3053
95.7874999999, 3934
95.7899999999, 4570
95.7924999999, 4869
95.7949999999, 4945
95.7974999999, 4873
95.7999999999, 4774
95.8024999999, 4617
95.8049999999, 4545
95.8074999999, 4529
95.8099999999, 4492
95.8124999999, 4464
95.8149999999, 4423
95.8174999999, 4472
95.8199999999, 4477
95.8224999999, 4477
95.8249999999, 4476
95.8274999999, 4459
95.8299999999, 4443
95.8324999999, 4426
95.8349999999, 4434
95.8374999999, 4431
95.8399999999, 4431
95.8424999999, 4420
95.8449999999, 4399
95.8474999999, 4384
95.8499999999, 4349
95.8524999999, 4390
95.8549999999, 4369
95.8574999999, 4370
95.8599999999, 4362
95.8624999999, 4340
95.8649999999, 4329
95.8674999999, 4280
95.8699999999, 4321
95.8724999999, 4310
95.8749999999, 4306
95.8774999999, 4321
95.8799999999, 4326
95.8824999999, 4299
95.8849999999, 4251
95.8874999999, 4282
95.8899999999, 4275
95.8924999999, 4267
95.8949999999, 4281
95.8974999999, 4272
95.8999999999, 4271
95.9024999999, 4237
95.9049999999, 4252
95.9074999999, 4245
95.9099999999, 4230
95.9124999999, 4231
95.9149999999, 4223
95.9174999999, 4214
95.9199999999, 4200
95.9224999999, 4231
95.9249999999, 4211
95.9274999999, 4212
95.9299999999, 4212
95.9324999999, 4210
95.9349999999, 4213
95.9374999999, 4150
95.9399999999, 4196
95.9424999999, 4210
95.9449999999, 4188
95.9474999999, 4187
95.9499999999, 4187
95.9524999999, 4193
95.9549999999, 4166
95.9574999999, 4209
95.9599999999, 4194
95.9624999999, 4187
95.9649999999, 4179
95.9674999999, 4194
95.9699999999, 4201
95.9724999999, 4161
95.9749999999, 4190
95.9774999999, 4195
95.9799999999, 4181
95.9824999999, 4180
95.9849999999, 4171
95.9874999999, 4158
95.9899999999, 4127
95.9924999999, 4179
95.9949999999, 4159
95.9974999999, 4168
95.9999999999, 4200
96.0024999999, 4162
96.0049999999, 4164
96.0074999999, 4152
96.0099999999, 4173
96.0124999999, 4175
96.0149999999, 4155
96.0174999999, 4164
96.0199999999, 4187
96.0224999999, 4169
96.0249999999, 4153
96.0274999999, 4187
96.0299999999, 4177
96.0324999999, 4165
96.0349999999, 4173
96.0374999999, 4158
96.0399999999, 4175
96.0424999999, 4109
96.0449999999, 4117
96.0474999999, 4139
96.0499999999, 4129
96.0524999999, 4151
96.0549999999, 4143
96.0574999999, 4147
96.0599999999, 4116
96.0624999999, 4147
96.0649999999, 4137
96.0674999999, 4148
96.0699999999, 4165
96.0724999999, 4179
96.0749999999, 4172
96.0774999999, 4163
96.0799999999, 4210
96.0824999999, 4204
96.0849999999, 4197
96.0874999999, 4194
96.0899999999, 4199
96.0924999999, 4201
96.0949999999, 4200
96.0974999999, 4223
96.0999999999, 4214
96.1024999999, 4227
96.1049999999, 4234
96.1074999999, 4224
96.1099999999, 4231
96.1124999999, 4186
96.1149999999, 4241
96.1174999999, 4230
96.1199999999, 4216
96.1224999999, 4234
96.1249999999, 4239
96.1274999999, 4251
96.1299999999, 4193
96.1324999999, 4241
96.1349999999, 4240
96.1374999999, 4223
96.1399999999, 4252
96.1424999999, 4236
96.1449999999, 4243
96.1474999999, 4176
96.1499999999, 4224
96.1524999999, 4244
96.1549999999, 4225
96.1574999999, 4193
96.1599999999, 4189
96.1624999999, 4186
96.1649999999, 4146
96.1674999999, 4195
96.1699999999, 4210
96.1724999999, 4219
96.1749999999, 4231
96.1774999999, 4229
96.1799999999, 4219
96.1824999999, 4219
96.1849999999, 4219
96.1874999999, 4215
96.1899999999, 4208
96.1924999999, 4213
96.1949999999, 4196
96.1974999999, 4192
96.1999999999, 4133
96.2024999999, 4165
96.2049999999, 4177
96.2074999999, 4195
96.2099999999, 4183
96.2124999999, 4220
96.2149999999, 4210
96.2174999999, 4146
96.2199999999, 4190
96.2224999999, 4189
96.2249999999, 4191
96.2274999999, 4188
96.2299999999, 4190
96.2324999999, 4184
96.2349999999, 4071
96.2374999999, 4210
96.2399999999, 4198
96.2424999999, 4205
96.2449999999, 4198
96.2474999999, 4170
96.2499999999, 4157
96.2524999999, 4128
96.2549999999, 4179
96.2574999999, 4175
96.2599999999, 4179
96.2624999999, 4185
96.2649999999, 4198
96.2674999999, 4184
96.2699999999, 4146
96.2724999999, 4180
96.2749999999, 4185
96.2774999999, 4194
96.2799999999, 4198
96.2824999999, 4170
96.2849999999, 4168
96.2874999999, 4152
96.2899999999, 4166
96.2924999999, 4154
96.2949999999, 4153
96.2974999999, 4178
96.2999999999, 4178
96.3024999999, 4168
96.3049999999, 4143
96.3074999999, 4175
96.3099999999, 4179
96.3124999999, 4188
96.3149999999, 4202
96.3174999999, 4178
96.3199999999, 4164
96.3224999999, 4149
96.3249999999, 4165
96.3274999999, 4158
96.3299999999, 4161
96.3324999999, 4159
96.3349999999, 4162
96.3374999999, 4140
96.3399999999, 4118
96.3424999999, 4182
96.3449999999, 4186
96.3474999999, 4185
96.3499999999, 4210
96.3524999999, 4200
96.3549999999, 4182
96.3574999999, 4122
96.3599999999, 4119
96.3624999999, 4142
96.3649999999, 4151
96.3674999999, 4156
96.3699999999, 4139
96.3724999999, 4158
96.3749999999, 4114
96.3774999999, 4164
96.3799999999, 4139
96.3824999999, 4134
96.3849999999, 4161
96.3874999999, 4177
96.3899999999, 4145
96.3924999999, 4122
96.3949999999, 4191
96.3974999999, 4162
96.3999999999, 4157
96.4024999999, 4166
96.4049999999, 4161
96.4074999999, 4161
96.4099999999, 4135
96.4124999999, 4193
96.4149999999, 4197
96.4174999999, 4178
96.4199999999, 4175
96.4224999999, 4176
96.4249999999, 4167
96.4274999999, 4141
96.4299999999, 4183
96.4324999999, 4175
96.4349999999, 4183
96.4374999999, 4180
96.4399999999, 4175
96.4424999999, 4202
96.4449999999, 4152
96.4474999999, 4178
96.4499999999, 4179
96.4524999999, 4166
96.4549999999, 4156
96.4574999999, 4175
96.4599999999, 4165
96.4624999999, 4144
96.4649999999, 4195
96.4674999999, 4177
96.4699999999, 4159
96.4724999999, 4164
96.4749999999, 4171
96.4774999999, 4155
96.4799999999, 4126
96.4824999999, 4155
96.4849999999, 4165
96.4874999999, 4148
96.4899999999, 4157
96.4924999999, 4148
96.4949999999, 4126
96.4974999999, 4113
96.4999999999, 4167
96.5024999999, 4151
96.5049999999, 4142
96.5074999999, 4138
96.5099999999, 4137
96.5124999999, 4125
96.5149999999, 4025
96.5174999999, 4167
96.5199999999, 4182
96.5224999999, 4150
96.5249999999, 4163
96.5274999999, 4162
96.5299999999, 4114
96.5324999999, 4103
96.5349999999, 4116
96.5374999999, 4139
96.5399999999, 4144
96.5424999999, 4170
96.5449999999, 4161
96.5474999999, 4199
96.5499999999, 4177
96.5524999999, 4213
96.5549999999, 4223
96.5574999999, 4226
96.5599999999, 4200
96.5624999999, 4178
96.5649999999, 4178
96.5674999999, 4164
96.5699999999, 4219
96.5724999999, 4201
96.5749999999, 4200
96.5774999999, 4177
96.5799999999, 4177
96.5824999999, 4191
96.5849999999, 4169
96.5874999999, 4184
96.5899999999, 4183
96.5924999999, 4206
96.5949999999, 4197
96.5974999999, 4206
96.5999999999, 4215
96.6024999999, 4082
96.6049999999, 4196
96.6074999999, 4200
96.6099999999, 4207
96.6124999999, 4206
96.6149999999, 4200
96.6174999999, 4213
96.6199999999, 4201
96.6224999999, 4333
96.6249999999, 4360
96.6274999999, 4352
96.6299999999, 4387
96.6324999999, 4418
96.6349999999, 4366
96.6374999999, 4204
96.6399999999, 4062
96.6424999999, 3846
96.6449999999, 3546
96.6474999999, 3292
96.6499999999, 2938
96.6524999999, 2491
96.6549999999, 2094
96.6574999999, 1919
96.6599999999, 1913
96.6624999999, 2150
96.6649999999, 2671
96.6674999999, 3554
96.6699999999, 4462
96.6724999999, 4830
96.6749999999, 4987
96.6774999999, 4977
96.6799999999, 4839
96.6824999999, 4715
96.6849999999, 4614
96.6874999999, 4564
96.6899999999, 4514
96.6924999999, 4506
96.6949999999, 4488
96.6974999999, 4482
96.6999999999, 4476
96.7024999999, 4477
96.7049999999, 4478
96.7074999999, 4467
96.7099999999, 4465
96.7124999999, 4491
96.7149999999, 4459
96.7174999999, 4444
96.7199999999, 4420
96.7224999999, 4395
96.7249999999, 4338
96.7274999999, 4376
96.7299999999, 4389
96.7324999999, 4355
96.7349999999, 4367
96.7374999999, 4361
96.7399999999, 4337
96.7424999999, 4296
96.7449999999, 4353
96.7474999999, 4339
96.7499999999, 4326
96.7524999999, 4309
96.7549999999, 4307
96.7574999999, 4298
96.7599999999, 4265
96.7624999999, 4289
96.7649999999, 4262
96.7674999999, 4256
96.7699999999, 4260
96.7724999999, 4242
96.7749999999, 4256
96.7774999999, 4227
96.7799999999, 4261
96.7824999999, 4254
96.7849999999, 4256
96.7874999999, 4262
96.7899999999, 4261
96.7924999999, 4235
96.7949999999, 4202
96.7974999999, 4244
96.7999999999, 4250
96.8024999999, 4219
96.8049999999, 4211
96.8074999999, 4204
96.8099999999, 4212
96.8124999999, 4108
96.8149999999, 4238
96.8174999999, 4224
96.8199999999, 4224
96.8224999999, 4253
96.8249999999, 4215
96.8274999999, 4221
96.8299999999, 4189
96.8324999999, 4178
96.8349999999, 4195
96.8374999999, 4203
96.8399999999, 4207
96.8424999999, 4213
96.8449999999, 4196
96.8474999999, 4168
96.8499999999, 4190
96.8524999999, 4191
96.8549999999, 4196
96.8574999999, 4186
96.8599999999, 4197
96.8624999999, 4196
96.8649999999, 4186
96.8674999999, 4226
96.8699999999, 4216
96.8724999999, 4202
96.8749999999, 4207
96.8774999999, 4205
96.8799999999, 4180
96.8824999999, 4157
96.8849999999, 4188
96.8874999999, 4176
96.8899999999, 4157
96.8924999999, 4192
96.8949999999, 4219
96.8974999999, 4226
96.8999999999, 4202
96.9024999999, 4206
96.9049999999, 4197
96.9074999999, 4169
96.9099999999, 4155
96.9124999999, 4194
96.9149999999, 4166
96.9174999999, 4140
96.9199999999, 4178
96.9224999999, 4176
96.9249999999, 4179
96.9274999999, 4199
96.9299999999, 4180
96.9324999999, 4174
96.9349999999, 4142
96.9374999999, 4175
96.9399999999, 4147
96.9424999999, 4131
96.9449999999, 4129
96.9474999999, 4139
96.9499999999, 4130
96.9524999999, 4120
96.9549999999, 4153
96.9574999999, 4152
96.9599999999, 4181
96.9624999999, 4191
96.9649999999, 4192
96.9674999999, 4183
96.9699999999, 4172
96.9724999999, 4207
96.9749999999, 4215
96.9774999999, 4222
96.9799999999, 4217
96.9824999999, 4210
96.9849999999, 4213
96.9874999999, 4163
96.9899999999, 4220
96.9924999999, 4232
96.9949999999, 4240
96.9974999999, 4236
96.9999999999, 4244
97.0024999999, 4253
97.0049999999, 4232
97.0074999999, 4221
97.0099999999, 4212
97.0124999999, 4227
97.0149999999, 4260
97.0174999999, 4285
97.0199999999, 4228
97.0224999999, 4185
97.0249999999, 4212
97.0274999999, 4239
97.0299999999, 4247
97.0324999999, 4205
97.0349999999, 4271
97.0374999999, 4248
97.0399999999, 4224
97.0424999999, 4233
97.0449999999, 4259
97.0474999999, 4272
97.0499999999, 4273
97.0524999999, 4244
97.0549999999, 4222
97.0574999999, 4145
97.0599999999, 4207
97.0624999999, 4227
97.0649999999, 4198
97.0674999999, 4189
97.0699999999, 4194
97.0724999999, 4196
97.0749999999, 4167
97.0774999999, 4195
97.0799999999, 4196
97.0824999999, 4208
97.0849999999, 4202
97.0874999999, 4206
97.0899999999, 4196
97.0924999999, 4155
97.0949999999, 4204
97.0974999999, 4221
97.0999999999, 4190
97.1024999999, 4178
97.1049999999, 4172
97.1074999999, 4154
97.1099999999, 4037
97.1124999999, 4171
97.1149999999, 4173
97.1174999999, 4167
97.1199999999, 4153
97.1224999999, 4144
97.1249999999, 4169
97.1274999999, 4154
97.1299999999, 4168
97.1324999999, 4174
97.1349999999, 4169
97.1374999999, 4159
97.1399999999, 4158
97.1424999999, 4137
97.1449999999, 4135
97.1474999999, 4173
97.1499999999, 4158
97.1524999999, 4159
97.1549999999, 4167
97.1574999999, 4186
97.1599999999, 4160
97.1624999999, 4131
97.1649999999, 4167
97.1674999999, 4160
97.1699999999, 4157
97.1724999999, 4153
97.1749999999, 4157
97.1774999999, 4164
97.1799999999, 4136
97.1824999999, 4160
97.1849999999, 4127
97.1874999999, 4124
97.1899999999, 4137
97.1924999999, 4149
97.1949999999, 4151
97.1974999999, 4049
97.1999999999, 4186
97.2024999999, 4197
97.2049999999, 4203
97.2074999999, 4181
97.2099999999, 4170
97.2124999999, 4171
97.2149999999, 4128
97.2174999999, 4160
97.2199999999, 4163
97.2224999999, 4159
97.2249999999, 4151
97.2274999999, 4150
97.2299999999, 4167
97.2324999999, 4131
97.2349999999, 4147
97.2374999999, 4158
97.2399999999, 4167
97.2424999999, 4162
97.2449999999, 4171
97.2474999999, 4160
97.2499999999, 4118
97.2524999999, 4186
97.2549999999, 4163
97.2574999999, 4174
97.2599999999, 4184
97.2624999999, 4158
97.2649999999, 4159
97.2674999999, 4120
97.2699999999, 4180
97.2724999999, 4173
97.2749999999, 4144
97.2774999999, 4135
97.2799999999, 4155
97.2824999999, 4139
97.2849999999, 4092
97.2874999999, 4143
97.2899999999, 4145
97.2924999999, 4138
97.2949999999, 4170
97.2974999999, 4166
97.2999999999, 4165
97.3024999999, 4150
97.3049999999, 4173
97.3074999999, 4159
97.3099999999, 4146
97.3124999999, 4176
97.3149999999, 4167
97.3174999999, 4160
97.3199999999, 4119
97.3224999999, 4148
97.3249999999, 4155
97.3274999999, 4152
97.3299999999, 4177
97.3324999999, 4175
97.3349999999, 4178
97.3374999999, 4104
97.3399999999, 4141
97.3424999999, 4161
97.3449999999, 4152
97.3474999999, 4161
97.3499999999, 4154
97.3524999999, 4155
97.3549999999, 4126
97.3574999999, 4140
97.3599999999, 4160
97.3624999999, 4158
97.3649999999, 4163
97.3674999999, 4171
97.3699999999, 4178
97.3724999999, 4125
97.3749999999, 4165
97.3774999999, 4141
97.3799999999, 4153
97.3824999999, 4156
97.3849999999, 4159
97.3874999999, 4155
97.3899999999, 4126
97.3924999999, 4145
97.3949999999, 4174
97.3974999999, 4157
97.3999999999, 4142
97.4024999999, 4151
97.4049999999, 4157
97.4074999999, 4128
97.4099999999, 4163
97.4124999999, 4147
97.4149999999, 4148
97.4174999999, 4154
97.4199999999, 4175
97.4224999999, 4156
97.4249999999, 4128
97.4274999999, 4177
97.4299999999, 4179
97.4324999999, 4161
97.4349999999, 4164
97.4374999999, 4183
97.4399999999, 4213
97.4424999999, 4168
97.4449999999, 4195
97.4474999999, 4185
97.4499999999, 4174
97.4524999999, 4159
97.4549999999, 4161
97.4574999999, 4190
97.4599999999, 4154
97.4624999999, 4159
97.4649999999, 4166
97.4674999999, 4165
97.4699999999, 4146
97.4724999999, 4169
97.4749999999, 4169
97.4774999999, 4161
97.4799999999, 4175
97.4824999999, 4168
97.4849999999, 4174
97.4874999999, 4161
97.4899999999, 4159
97.4924999999, 4165
97.4949999999, 4119
97.4974999999, 4153
97.4999999999, 4157
97.5024999999, 4161
97.5049999999, 4175
97.5074999999, 4174
97.5099999999, 4181
97.5124999999, 4128
97.5149999999, 4169
97.5174999999, 4170
97.5199999999, 4155
97.5224999999, 4148
97.5249999999, 4145
97.5274999999, 4147
97.5299999999, 4113
97.5324999999, 4143
97.5349999999, 4142
97.5374999999, 4143
97.5399999999, 4171
97.5424999999, 4180
97.5449999999, 4169
97.5474999999, 4121
97.5499999999, 4156
97.5524999999, 4156
97.5549999999, 4179
97.5574999999, 4168
97.5599999999, 4162
97.5624999999, 4176
97.5649999999, 4129
97.5674999999, 4185
97.5699999999, 4169
97.5724999999, 4175
97.5749999999, 4174
97.5774999999, 4186
97.5799999999, 4168
97.5824999999, 4136
97.5849999999, 4163
97.5874999999, 4169
97.5899999999, 4154
97.5924999999, 4154
97.5949999999, 4169
97.5974999999, 4186
97.5999999999, 4125
97.6024999999, 4179
97.6049999999, 4194
97.6074999999, 4185
97.6099999999, 4167
97.6124999999, 4176
97.6149999999, 4177
97.6174999999, 4137
97.6199999999, 4183
97.6224999999, 4171
97.6249999999, 4162
97.6274999999, 4162
97.6299999999, 4177
97.6324999999, 4190
97.6349999999, 4137
97.6374999999, 4166
97.6399999999, 4161
97.6424999999, 4169
97.6449999999, 4160
97.6474999999, 4142
97.6499999999, 4114
97.6524999999, 4126
97.6549999999, 4113
97.6574999999, 4139
97.6599999999, 4118
97.6624999999, 4109
97.6649999999, 4117
97.6674999999, 4133
97.6699999999, 4032
97.6724999999, 4154
97.6749999999, 4159
97.6774999999, 4156
97.6799999999, 4177
97.6824999999, 4186
97.6849999999, 4174
97.6874999999, 4150
97.6899999999, 4203
97.6924999999, 4185
97.6949999999, 4170
97.6974999999, 4174
97.6999999999, 4179
97.7024999999, 4161
97.7049999999, 4145
97.7074999999, 4169
97.7099999999, 4153
97.7124999999, 4151
97.7149999999, 4178
97.7174999999, 4157
97.7199999999, 4186
97.7224999999, 4137
97.7249999999, 4165
97.7274999999, 4143
97.7299999999, 4145
97.7324999999, 4161
97.7349999999, 4162
97.7374999999, 4179
97.7399999999, 4131
97.7424999999, 4158
97.7449999999, 4187
97.7474999999, 4233
97.7499999999, 4300
97.7524999999, 4349
97.7549999999, 4398
97.7574999999, 4400
97.7599999999, 4474
97.7624999999, 4452
97.7649999999, 4322
97.7674999999, 4164
97.7699999999, 3963
97.7724999999, 3645
97.7749999999, 3340
97.7774999999, 2998
97.7799999999, 2588
97.7824999999, 2168
97.7849999999, 1932
97.7874999999, 1959
97.7899999999, 2098
97.7924999999, 2627
97.7949999999, 3450
97.7974999999, 4219
97.7999999999, 4641
97.8024999999, 4851
97.8049999999, 4844
97.8074999999, 4753
97.8099999999, 4605
97.8124999999, 4536
97.8149999999, 4501
97.8174999999, 4504
97.8199999999, 4491
97.8224999999, 4491
97.8249999999, 4468
97.8274999999, 4486
97.8299999999, 4521
97.8324999999, 4497
97.8349999999, 4482
97.8374999999, 4480
97.8399999999, 4468
97.8424999999, 4463
97.8449999999, 4419
97.8474999999, 4461
97.8499999999, 4453
97.8524999999, 4462
97.8549999999, 4425
97.8574999999, 4422
97.8599999999, 4404
97.8624999999, 4379
97.8649999999, 4422
97.8674999999, 4383
97.8699999999, 4380
97.8724999999, 4365
97.8749999999, 4363
97.8774999999, 4357
97.8799999999, 4328
97.8824999999, 4342
97.8849999999, 4329
97.8874999999, 4330
97.8899999999, 4356
97.8924999999, 4366
97.8949999999, 4351
97.8974999999, 4297
97.8999999999, 4329
97.9024999999, 4311
97.9049999999, 4297
97.9074999999, 4299
97.9099999999, 4290
97.9124999999, 4304
97.9149999999, 4274
97.9174999999, 4288
97.9199999999, 4289
97.9224999999, 4272
97.9249999999, 4274
97.9274999999, 4265
97.9299999999, 4254
97.9324999999, 4232
97.9349999999, 4292
97.9374999999, 4290
97.9399999999, 4266
97.9424999999, 4259
97.9449999999, 4254
97.9474999999, 4235
97.9499999999, 4207
97.9524999999, 4206
97.9549999999, 4211
97.9574999999, 4213
97.9599999999, 4202
97.9624999999, 4197
97.9649999999, 4214
97.9674999999, 4162
97.9699999999, 4205
97.9724999999, 4203
97.9749999999, 4224
97.9774999999, 4237
97.9799999999, 4224
97.9824999999, 4208
97.9849999999, 4195
97.9874999999, 4245
97.9899999999, 4226
97.9924999999, 4224
97.9949999999, 4217
97.9974999999, 4215
97.9999999999, 4213
98.0024999999, 4181
98.0049999999, 4208
98.0074999999, 4198
98.0099999999, 4167
98.0124999999, 4166
98.0149999999, 4199
98.0174999999, 4201
98.0199999999, 4168
98.0224999999, 4187
98.0249999999, 4180
98.0274999999, 4194
98.0299999999, 4180
98.0324999999, 4171
98.0349999999, 4174
98.0374999999, 4079
98.0399999999, 4199
98.0424999999, 4188
98.0449999999, 4174
98.0474999999, 4180
98.0499999999, 4199
98.0524999999, 4192
98.0549999999, 4168
98.0574999999, 4169
98.0599999999, 4159
98.0624999999, 4165
98.0649999999, 4154
98.0674999999, 4155
98.0699999999, 4141
98.0724999999, 4127
98.0749999999, 4153
98.0774999999, 4153
98.0799999999, 4126
98.0824999999, 4102
98.0849999999, 4106
98.0874999999, 4111
98.0899999999, 4078
98.0924999999, 4129
98.0949999999, 4124
98.0974999999, 4132
98.0999999999, 4134
98.1024999999, 4127
98.1049999999, 4145
98.1074999999, 4119
98.1099999999, 4154
98.1124999999, 4168
98.1149999999, 4171
98.1174999999, 4150
98.1199999999, 4164
98.1224999999, 4172
98.1249999999, 4136
98.1274999999, 4180
98.1299999999, 4156
98.1324999999, 4161
98.1349999999, 4186
98.1374999999, 4195
98.1399999999, 4194
98.1424999999, 4163
98.1449999999, 4202
98.1474999999, 4174
98.1499999999, 4143
98.1524999999, 4167
98.1549999999, 4187
98.1574999999, 4174
98.1599999999, 4141
98.1624999999, 4189
98.1649999999, 4174
98.1674999999, 4188
98.1699999999, 4194
98.1724999999, 4191
98.1749999999, 4177
98.1774999999, 4147
98.1799999999, 4172
98.1824999999, 4158
98.1849999999, 4151
98.1874999999, 4179
98.1899999999, 4181
98.1924999999, 4160
98.1949999999, 4125
98.1974999999, 4165
98.1999999999, 4170
98.2024999999, 4184
98.2049999999, 4182
98.2074999999, 4175
98.2099999999, 4168
98.2124999999, 4130
98.2149999999, 4168
98.2174999999, 4151
98.2199999999, 4171
98.2224999999, 4165
98.2249999999, 4154
98.2274999999, 4175
98.2299999999, 4143
98.2324999999, 4151
98.2349999999, 4181
98.2374999999, 4174
98.2399999999, 4187
98.2424999999, 4158
98.2449999999, 4162
98.2474999999, 4133
98.2499999999, 4176
98.2524999999, 4171
98.2549999999, 4159
98.2574999999, 4141
98.2599999999, 4172
98.2624999999, 4163
98.2649999999, 4123
98.2674999999, 4186
98.2699999999, 4162
98.2724999999, 4171
98.2749999999, 4211
98.2774999999, 4209
98.2799999999, 4172
98.2824999999, 4133
98.2849999999, 4182
98.2874999999, 4170
98.2899999999, 4148
98.2924999999, 4172
98.2949999999, 4169
98.2974999999, 4194
98.2999999999, 4168
98.3024999999, 4158
98.3049999999, 4161
98.3074999999, 4172
98.3099999999, 4183
98.3124999999, 4205
98.3149999999, 4187
98.3174999999, 4148
98.3199999999, 4176
98.3224999999, 4158
98.3249999999, 4168
98.3274999999, 4170
98.3299999999, 4170
98.3324999999, 4147
98.3349999999, 4121
98.3374999999, 4167
98.3399999999, 4180
98.3424999999, 4161
98.3449999999, 4159
98.3474999999, 4143
98.3499999999, 4145
98.3524999999, 4113
98.3549999999, 4178
98.3574999999, 4162
98.3599999999, 4153
98.3624999999, 4144
98.3649999999, 4159
98.3674999999, 4155
98.3699999999, 4111
98.3724999999, 4164
98.3749999999, 4167
98.3774999999, 4160
98.3799999999, 4171
98.3824999999, 4173
98.3849999999, 4148
98.3874999999, 4058
98.3899999999, 4167
98.3924999999, 4155
98.3949999999, 4176
98.3974999999, 4152
98.3999999999, 4158
98.4024999999, 4162
98.4049999999, 4135
98.4074999999, 4169
98.4099999999, 4164
98.4124999999, 4149
98.4149999999, 4162
98.4174999999, 4151
98.4199999999, 4144
98.4224999999, 4152
98.4249999999, 4166
98.4274999999, 4171
98.4299999999, 4176
98.4324999999, 4167
98.4349999999, 4167
98.4374999999, 4175
98.4399999999, 4152
98.4424999999, 4166
98.4449999999, 4172
98.4474999999, 4141
98.4499999999, 4173
98.4524999999, 4186
98.4549999999, 4156
98.4574999999, 4091
98.4599999999, 4125
98.4624999999, 4141
98.4649999999, 4138
98.4674999999, 4151
98.4699999999, 4144
98.4724999999, 4151
98.4749999999, 4132
98.4774999999, 4204
98.4799999999, 4175
98.4824999999, 4186
98.4849999999, 4159
98.4874999999, 4189
98.4899999999, 4187
98.4924999999, 4137
98.4949999999, 4191
98.4974999999, 4182
98.4999999999, 4191
98.5024999999, 4213
98.5049999999, 4202
98.5074999999, 4212
98.5099999999, 4160
98.5124999999, 4176
98.5149999999, 4195
98.5174999999, 4187
98.5199999999, 4188
98.5224999999, 4161
98.5249999999, 4178
98.5274999999, 4169
98.5299999999, 4199
98.5324999999, 4204
98.5349999999, 4220
98.5374999999, 4207
98.5399999999, 4202
98.5424999999, 4190
98.5449999999, 4149
98.5474999999, 4177
98.5499999999, 4193
98.5524999999, 4221
98.5549999999, 4196
98.5574999999, 4189
98.5599999999, 4172
98.5624999999, 4135
98.5649999999, 4171
98.5674999999, 4162
98.5699999999, 4163
98.5724999999, 4153
98.5749999999, 4159
98.5774999999, 4168
98.5799999999, 4119
98.5824999999, 4164
98.5849999999, 4172
98.5874999999, 4187
98.5899999999, 4185
98.5924999999, 4182
98.5949999999, 4179
98.5974999999, 4111
98.5999999999, 4160
98.6024999999, 4152
98.6049999999, 4145
98.6074999999, 4174
98.6099999999, 4176
98.6124999999, 4193
98.6149999999, 4150
98.6174999999, 4192
98.6199999999, 4172
98.6224999999, 4169
98.6249999999, 4148
98.6274999999, 4150
98.6299999999, 4159
98.6324999999, 4124
98.6349999999, 4174
98.6374999999, 4168
98.6399999999, 4162
98.6424999999, 4156
98.6449999999, 4137
98.6474999999, 4150
98.6499999999, 4123
98.6524999999, 4182
98.6549999999, 4169
98.6574999999, 4173
98.6599999999, 4178
98.6624999999, 4190
98.6649999999, 4161
98.6674999999, 4120
98.6699999999, 4169
98.6724999999, 4177
98.6749999999, 4169
98.6774999999, 4165
98.6799999999, 4192
98.6824999999, 4172
98.6849999999, 4095
98.6874999999, 4157
98.6899999999, 4161
98.6924999999, 4180
98.6949999999, 4153
98.6974999999, 4174
98.6999999999, 4166
98.7024999999, 4137
98.7049999999, 4175
98.7074999999, 4169
98.7099999999, 4146
98.7124999999, 4185
98.7149999999, 4174
98.7174999999, 4162
98.7199999999, 4120
98.7224999999, 4176
98.7249999999, 4155
98.7274999999, 4140
98.7299999999, 4101
98.7324999999, 4107
98.7349999999, 4097
98.7374999999, 4065
98.7399999999, 4122
98.7424999999, 4116
98.7449999999, 4149
98.7474999999, 4164
98.7499999999, 4151
98.7524999999, 4154
98.7549999999, 4125
98.7574999999, 4194
98.7599999999, 4186
98.7624999999, 4177
98.7649999999, 4191
98.7674999999, 4211
98.7699999999, 4212
98.7724999999, 4165
98.7749999999, 4208
98.7774999999, 4216
98.7799999999, 4200
98.7824999999, 4213
98.7849999999, 4190
98.7874999999, 4190
98.7899999999, 4149
98.7924999999, 4196
98.7949999999, 4195
98.7974999999, 4196
98.7999999999, 4202
98.8024999999, 4201
98.8049999999, 4189
98.8074999999, 4162
98.8099999999, 4169
98.8124999999, 4184
98.8149999999, 4216
98.8174999999, 4211
98.8199999999, 4214
98.8224999999, 4201
98.8249999999, 4162
98.8274999999, 4220
98.8299999999, 4262
98.8324999999, 4330
98.8349999999, 4389
98.8374999999, 4406
98.8399999999, 4414
98.8424999999, 4396
98.8449999999, 4351
98.8474999999, 4196
98.8499999999, 3993
98.8524999999, 3752
98.8549999999, 3452
98.8574999999, 3211
98.8599999999, 2820
98.8624999999, 2361
98.8649999999, 2089
98.8674999999, 1948
98.8699999999, 2062
98.8724999999, 2369
98.8749999999, 3018
98.8774999999, 3900
98.8799999999, 4661
98.8824999999, 4908
98.8849999999, 4943
98.8874999999, 4909
98.8899999999, 4780
98.8924999999, 4661
98.8949999999, 4540
98.8974999999, 4543
98.8999999999, 4510
98.9024999999, 4458
98.9049999999, 4447
98.9074999999, 4458
98.9099999999, 4475
98.9124999999, 4445
98.9149999999, 4487
98.9174999999, 4470
98.9199999999, 4488
98.9224999999, 4470
98.9249999999, 4446
98.9274999999, 4448
98.9299999999, 4362
98.9324999999, 4418
98.9349999999, 4418
98.9374999999, 4416
98.9399999999, 4405
98.9424999999, 4414
98.9449999999, 4404
98.9474999999, 4252
98.9499999999, 4371
98.9524999999, 4363
98.9549999999, 4343
98.9574999999, 4324
98.9599999999, 4346
98.9624999999, 4342
98.9649999999, 4285
98.9674999999, 4311
98.9699999999, 4304
98.9724999999, 4282
98.9749999999, 4283
98.9774999999, 4275
98.9799999999, 4284
98.9824999999, 4255
98.9849999999, 4264
98.9874999999, 4250
98.9899999999, 4250
98.9924999999, 4259
98.9949999999, 4257
98.9974999999, 4266
98.9999999999, 4211
99.0024999999, 4273
99.0049999999, 4259
99.0074999999, 4243
99.0099999999, 4263
99.0124999999, 4247
99.0149999999, 4224
99.0174999999, 4201
99.0199999999, 4258
99.0224999999, 4231
99.0249999999, 4221
99.0274999999, 4238
99.0299999999, 4263
99.0324999999, 4226
99.0349999999, 4222
99.0374999999, 4239
99.0399999999, 4226
99.0424999999, 4212
99.0449999999, 4215
99.0474999999, 4195
99.0499999999, 4202
99.0524999999, 4173
99.0549999999, 4216
99.0574999999, 4207
99.0599999999, 4192
99.0624999999, 4179
99.0649999999, 4196
99.0674999999, 4194
99.0699999999, 4184
99.0724999999, 4224
99.0749999999, 4223
99.0774999999, 4199
99.0799999999, 4198
99.0824999999, 4195
99.0849999999, 4194
99.0874999999, 4173
99.0899999999, 4243
99.0924999999, 4226
99.0949999999, 4203
99.0974999999, 4222
99.0999999999, 4199
99.1024999999, 4178
99.1049999999, 4179
99.1074999999, 4186
99.1099999999, 4201
99.1124999999, 4191
99.1149999999, 4192
99.1174999999, 4193
99.1199999999, 4213
99.1224999999, 4073
99.1249999999, 4214
99.1274999999, 4212
99.1299999999, 4206
99.1324999999, 4208
99.1349999999, 4212
99.1374999999, 4222
99.1399999999, 4153
99.1424999999, 4185
99.1449999999, 4174
99.1474999999, 4162
99.1499999999, 4178
99.1524999999, 4182
99.1549999999, 4184
99.1574999999, 4152
99.1599999999, 4168
99.1624999999, 4158
99.1649999999, 4148
99.1674999999, 4162
99.1699999999, 4158
99.1724999999, 4124
99.1749999999, 4107
99.1774999999, 4159
99.1799999999, 4183
99.1824999999, 4186
99.1849999999, 4166
99.1874999999, 4174
99.1899999999, 4170
99.1924999999, 4139
99.1949999999, 4195
99.1974999999, 4197
99.1999999999, 4195
99.2024999999, 4172
99.2049999999, 4182
99.2074999999, 4178
99.2099999999, 4179
99.2124999999, 4223
99.2149999999, 4220
99.2174999999, 4220
99.2199999999, 4210
99.2224999999, 4202
99.2249999999, 4217
99.2274999999, 4173
99.2299999999, 4225
99.2324999999, 4203
99.2349999999, 4210
99.2374999999, 4215
99.2399999999, 4222
99.2424999999, 4216
99.2449999999, 4190
99.2474999999, 4199
99.2499999999, 4212
99.2524999999, 4183
99.2549999999, 4194
99.2574999999, 4236
99.2599999999, 4230
99.2624999999, 4160
99.2649999999, 4179
99.2674999999, 4175
99.2699999999, 4162
99.2724999999, 4173
99.2749999999, 4184
99.2774999999, 4198
99.2799999999, 4184
99.2824999999, 4217
99.2849999999, 4212
99.2874999999, 4191
99.2899999999, 4167
99.2924999999, 4182
99.2949999999, 4160
99.2974999999, 4129
99.2999999999, 4178
99.3024999999, 4185
99.3049999999, 4168
99.3074999999, 4163
99.3099999999, 4146
99.3124999999, 4150
99.3149999999, 4130
99.3174999999, 4150
99.3199999999, 4172
99.3224999999, 4141
99.3249999999, 4146
99.3274999999, 4155
99.3299999999, 4136
99.3324999999, 4116
99.3349999999, 4148
99.3374999999, 4153
99.3399999999, 4139
99.3424999999, 4135
99.3449999999, 4144
99.3474999999, 4141
99.3499999999, 4104
99.3524999999, 4137
99.3549999999, 4143
99.3574999999, 4165
99.3599999999, 4180
99.3624999999, 4170
99.3649999999, 4163
99.3674999999, 4135
99.3699999999, 4166
99.3724999999, 4145
99.3749999999, 4165
99.3774999999, 4195
99.3799999999, 4185
99.3824999999, 4163
99.3849999999, 4151
99.3874999999, 4168
99.3899999999, 4166
99.3924999999, 4163
99.3949999999, 4162
99.3974999999, 4166
99.3999999999, 4179
99.4024999999, 4156
99.4049999999, 4166
99.4074999999, 4161
99.4099999999, 4169
99.4124999999, 4166
99.4149999999, 4178
99.4174999999, 4190
99.4199999999, 4140
99.4224999999, 4191
99.4249999999, 4187
99.4274999999, 4157
99.4299999999, 4176
99.4324999999, 4162
99.4349999999, 4151
99.4374999999, 4144
99.4399999999, 4165
99.4424999999, 4173
99.4449999999, 4133
99.4474999999, 4157
99.4499999999, 4142
99.4524999999, 4162
99.4549999999, 4115
99.4574999999, 4168
99.4599999999, 4145
99.4624999999, 4154
99.4649999999, 4150
99.4674999999, 4158
99.4699999999, 4153
99.4724999999, 4112
99.4749999999, 4161
99.4774999999, 4171
99.4799999999, 4148
99.4824999999, 4167
99.4849999999, 4172
99.4874999999, 4176
99.4899999999, 4144
99.4924999999, 4157
99.4949999999, 4154
99.4974999999, 4157
99.4999999999, 4135
99.5024999999, 4162
99.5049999999, 4158
99.5074999999, 4096
99.5099999999, 4152
99.5124999999, 4154
99.5149999999, 4150
99.5174999999, 4157
99.5199999999, 4151
99.5224999999, 4160
99.5249999999, 4130
99.5274999999, 4166
99.5299999999, 4164
99.5324999999, 4143
99.5349999999, 4154
99.5374999999, 4177
99.5399999999, 4166
99.5424999999, 4129
99.5449999999, 4180
99.5474999999, 4181
99.5499999999, 4180
99.5524999999, 4174
99.5549999999, 4163
99.5574999999, 4166
99.5599999999, 4123
99.5624999999, 4175
99.5649999999, 4162
99.5674999999, 4166
99.5699999999, 4176
99.5724999999, 4181
99.5749999999, 4191
99.5774999999, 4169
99.5799999999, 4192
99.5824999999, 4206
99.5849999999, 4200
99.5874999999, 4197
99.5899999999, 4194
99.5924999999, 4183
99.5949999999, 4120
99.5974999999, 4175
99.5999999999, 4175
99.6024999999, 4182
99.6049999999, 4172
99.6074999999, 4163
99.6099999999, 4168
99.6124999999, 4137
99.6149999999, 4164
99.6174999999, 4180
99.6199999999, 4193
99.6224999999, 4175
99.6249999999, 4195
99.6274999999, 4176
99.6299999999, 4125
99.6324999999, 4168
99.6349999999, 4175
99.6374999999, 4178
99.6399999999, 4168
99.6424999999, 4175
99.6449999999, 4162
99.6474999999, 4126
99.6499999999, 4156
99.6524999999, 4165
99.6549999999, 4143
99.6574999999, 4154
99.6599999999, 4188
99.6624999999, 4171
99.6649999999, 4152
99.6674999999, 4181
99.6699999999, 4164
99.6724999999, 4151
99.6749999999, 4170
99.6774999999, 4157
99.6799999999, 4150
99.6824999999, 4119
99.6849999999, 4165
99.6874999999, 4143
99.6899999999, 4140
99.6924999999, 4143
99.6949999999, 4145
99.6974999999, 4139
99.6999999999, 4134
99.7024999999, 4147
99.7049999999, 4146
99.7074999999, 4153
99.7099999999, 4165
99.7124999999, 4169
99.7149999999, 4156
99.7174999999, 4143
99.7199999999, 4171
99.7224999999, 4167
99.7249999999, 4171
99.7274999999, 4170
99.7299999999, 4170
99.7324999999, 4169
99.7349999999, 4114
99.7374999999, 4162
99.7399999999, 4162
99.7424999999, 4158
99.7449999999, 4166
99.7474999999, 4143
99.7499999999, 4135
99.7524999999, 4119
99.7549999999, 4160
99.7574999999, 4154
99.7599999999, 4150
99.7624999999, 4137
99.7649999999, 4172
99.7674999999, 4160
99.7699999999, 4143
99.7724999999, 4183
99.7749999999, 4178
99.7774999999, 4149
99.7799999999, 4151
99.7824999999, 4142
99.7849999999, 4135
99.7874999999, 4096
99.7899999999, 4166
99.7924999999, 4182
99.7949999999, 4176
99.7974999999, 4156
99.7999999999, 4155
99.8024999999, 4149
99.8049999999, 4091
99.8074999999, 4090
99.8099999999, 4087
99.8124999999, 4064
99.8149999999, 4077
99.8174999999, 4087
99.8199999999, 4103
99.8224999999, 4080
99.8249999999, 4157
99.8274999999, 4148
99.8299999999, 4149
99.8324999999, 4164
99.8349999999, 4164
99.8374999999, 4170
99.8399999999, 4124
99.8424999999, 4170
99.8449999999, 4169
99.8474999999, 4161
99.8499999999, 4168
99.8524999999, 4176
99.8549999999, 4138
99.8574999999, 4098
99.8599999999, 4145
99.8624999999, 4144
99.8649999999, 4201
99.8674999999, 4186
99.8699999999, 4186
99.8724999999, 4184
99.8749999999, 4151
99.8774999999, 4172
99.8799999999, 4153
99.8824999999, 4162
99.8849999999, 4179
99.8874999999, 4184
99.8899999999, 4192
99.8924999999, 4062
99.8949999999, 4204
99.8974999999, 4213
99.8999999999, 4207
99.9024999999, 4208
99.9049999999, 4240
99.9074999999, 4287
99.9099999999, 4323
99.9124999999, 4385
99.9149999999, 4435
99.9174999999, 4458
99.9199999999, 4477
99.9224999999, 4410
99.9249999999, 4241
99.9274999999, 4010
99.9299999999, 3805
99.9324999999, 3492
99.9349999999, 3149
99.9374999999, 2789
99.9399999999, 2316
99.9424999999, 1999
99.9449999999, 1884
99.9474999999, 1976
99.9499999999, 2399
99.9524999999, 3125
99.9549999999, 3961
99.9574999999, 4526
99.9599999999, 4789
99.9624999999, 4834
99.9649999999, 4771
99.9674999999, 4661
99.9699999999, 4548
99.9724999999, 4518
99.9749999999, 4539
99.9774999999, 4492
99.9799999999, 4431
99.9824999999, 4488
99.9849999999, 4492
99.9874999999, 4500
99.9899999999, 4523
99.9924999999, 4503
99.9949999999, 4476
99.9974999999, 4437
99.9999999999, 4489
100.0025, 4498
100.005, 4481
100.0075, 4462
100.01, 4450
100.0125, 4424
100.015, 4386
100.0175, 4418
100.02, 4418
100.0225, 4406
100.025, 4381
100.0275, 4370
100.03, 4373
100.0325, 4324
100.035, 4353
100.0375, 4346
100.04, 4365
100.0425, 4334
100.045, 4327
100.0475, 4325
100.05, 4204
100.0525, 4317
100.055, 4331
100.0575, 4320
100.06, 4308
100.0625, 4313
100.065, 4314
100.0675, 4266
100.07, 4275
100.0725, 4261
100.075, 4270
100.0775, 4273
100.08, 4281
100.0825, 4223
100.085, 4157
100.0875, 4215
100.09, 4206
100.0925, 4219
100.095, 4213
100.0975, 4221
100.1, 4203
100.1025, 4185
100.105, 4234
100.1075, 4246
100.11, 4240
100.1125, 4222
100.115, 4234
100.1175, 4241
100.12, 4184
100.1225, 4224
100.125, 4223
100.1275, 4225
100.13, 4210
100.1325, 4220
100.135, 4203
100.1375, 4155
100.14, 4203
100.1425, 4212
100.145, 4221
100.1475, 4204
