467.32,1376,2544,13936,1156,125,-41
467.33,1596,2472,14280,657,245,-16
467.34,1528,2392,14168,1131,321,2
467.35,1456,2544,14416,1676,251,-64
467.36,1460,2724,14444,1269,335,-43
467.37,1308,2700,14140,1027,510,-52
467.38,1292,2792,14276,1012,454,-23
467.39,1444,2772,14284,825,391,3
467.4,1364,2840,14272,817,435,-59
467.41,1372,2740,14132,669,498,-34
467.42,1364,2604,13880,582,434,-15
467.43,1340,2716,13832,789,373,-38
467.44,1388,2668,14012,1065,384,-39
467.45,1452,2748,14232,1270,289,-83
467.46,1420,2824,14268,1230,302,-30
467.47,1476,2832,14152,1134,431,-62
467.48,1348,2928,14244,1083,375,-56
467.49,1396,3080,14012,1015,397,-82
467.5,1368,2988,14180,898,324,-84
467.51,1324,3044,13964,909,318,-62
467.52,1312,2992,14048,926,322,-67
467.53,1384,3020,14112,877,361,-99
467.54,1328,3080,13908,823,325,-38
467.55,1384,3120,13988,927,335,-74
467.56,1352,3220,14076,1021,377,-66
467.57,1300,3188,14136,1187,372,-95
467.58,1384,3196,14132,1228,348,-105
467.59,1408,3256,14196,1212,383,-110
467.6,1292,3256,14068,1248,658,-107
467.61,1280,3336,13780,643,400,-51
467.62,1272,3232,13704,351,261,-24
467.63,1312,3248,14036,921,287,-111
467.64,1316,3356,14040,1181,232,-93
467.65,1396,3324,14116,971,232,-85
467.66,1312,3336,14040,717,259,-42
467.67,1248,3368,14120,784,222,-48
467.68,1288,3484,13968,793,165,-56
467.69,1396,3492,14028,756,236,-40
467.7,1464,3492,14092,658,328,-70
467.71,1384,3516,14028,788,318,-100
467.72,1260,3532,14060,855,327,-51
467.73,1328,3584,13972,748,378,-24
467.74,1284,3496,13940,617,378,-90
467.75,1360,3524,13980,671,330,-64
467.76,1268,3544,14044,725,355,-85
467.77,1356,3604,13992,780,331,-63
467.78,1284,3608,13860,587,320,-42
467.79,1360,3596,13880,582,296,-48
467.8,1356,3624,13976,717,321,-50
467.81,1280,3616,13936,737,345,-77
467.82,1168,3636,14052,697,349,-84
467.83,1200,3708,13808,638,303,-62
467.84,1284,3692,14024,513,333,-22
467.85,1344,3664,13896,413,353,-48
467.86,1276,3700,13940,491,282,-54
467.87,1356,3700,13824,489,305,-52
467.88,1320,3808,13828,455,321,-52
467.89,1212,3856,13936,495,336,-66
467.9,1300,3860,13916,505,335,-67
467.91,1232,3784,13916,480,376,-57
467.92,1388,3764,14120,513,360,-79
467.93,1232,3900,13924,483,298,-53
467.94,1244,3812,13964,431,299,-50
467.95,1308,3836,13860,448,290,-44
467.96,1268,3900,13904,366,289,-58
467.97,1180,3832,13984,371,322,-55
467.98,1300,3964,13916,354,298,-60
467.99,1268,3884,13832,402,319,-71
468.0,1284,4000,13844,344,355,-72
468.01,1184,3920,14064,379,311,-48
468.02,1248,3932,13888,319,362,-69
468.03,1324,3904,13896,296,293,-52
468.04,1276,3936,13924,331,311,-62
468.05,1220,3932,13964,315,300,-62
468.06,1108,3972,13908,341,281,-45
468.07,1236,3916,13968,283,310,-68
468.08,1120,3952,13740,227,307,-35
468.09,1180,3988,13784,221,277,-27
468.1,1292,3988,13804,208,276,-42
468.11,1312,4080,13920,179,308,-33
468.12,1352,4000,13952,218,307,-27
468.13,1064,4076,13952,192,309,-45
468.14,1204,4108,13936,201,321,-24
468.15,1224,4032,13844,155,285,-39
468.16,1244,4088,13860,198,316,-74
468.17,1216,4160,13764,144,307,-49
468.18,1248,4100,13948,98,325,-36
468.19,1116,4040,13904,105,294,-14
468.2,1208,4056,13800,70,292,-30
468.21,1140,4056,13800,82,281,-23
468.22,1264,4100,13880,69,279,-27
468.23,1228,4132,13864,48,284,-17
468.24,1160,4040,13852,87,285,-65
468.25,1196,4080,13836,87,291,-24
468.26,1204,4112,13840,98,315,-59
468.27,1244,4240,13932,68,332,-40
468.28,1128,4136,13856,-24,300,-50
468.29,1140,4148,13780,-90,261,-37
468.3,1168,4136,13740,-187,224,-2
468.31,1224,4064,13808,-148,250,-29
468.32,1220,4104,14024,132,399,-92
468.33,1084,4192,14060,43,369,-98
468.34,1212,4188,13916,-145,325,-58
468.35,1068,4016,13912,-226,228,-12
468.36,1164,4116,13856,-146,157,-22
468.37,1216,4092,13856,-157,140,18
468.38,1056,4088,13460,-845,229,66
468.39,1236,3968,13696,-879,26,145
468.4,1420,4136,14464,338,499,-89
468.41,1076,4248,14004,24,167,-79
468.42,1044,4188,13848,-476,81,27
468.43,1168,4096,13684,-399,158,75
468.44,1080,3960,13392,-889,1,164
468.45,1116,3824,13600,-709,-91,130
468.46,1324,3972,13900,-229,-92,81
468.47,1240,4108,14096,-79,-164,55
468.48,1296,4180,14056,-235,-147,50
468.49,1200,4156,13888,-420,-19,87
468.5,1228,4104,13888,-373,26,36
468.51,1160,4124,13908,-246,84,29
468.52,1048,4100,13916,-216,206,4
468.53,1180,4112,13904,-268,234,-6
468.54,1272,3984,13724,-357,250,24
468.55,1112,4032,13720,-256,256,7
468.56,1240,3972,13716,-111,183,0
468.57,1288,4072,13920,-193,181,23
468.58,1276,3980,14040,-314,128,18
468.59,1220,4048,13996,-477,128,45
468.6,1340,4024,13976,-635,176,23
468.61,1252,3952,13828,-736,168,56
468.62,1344,3900,14128,-815,208,21
468.63,1212,3968,13976,-866,215,66
468.64,1280,3984,13848,-968,174,92
468.65,1312,3988,13928,-994,150,83
468.66,1176,3976,13988,-998,142,97
468.67,1268,3924,13864,-975,143,111
468.68,1324,3960,14008,-967,192,68
468.69,1232,3964,13932,-931,219,79
468.7,1196,3904,14056,-1036,238,50
468.71,1232,3880,13904,-1088,162,89
468.72,1344,3820,14080,-1154,45,104
468.73,1272,3848,14188,-857,354,84
468.74,1140,3884,13888,-1320,207,157
468.75,1240,3748,13832,-1849,70,133
468.76,1376,3608,13880,-1403,195,54
468.77,1188,3648,14184,-1101,111,31
468.78,1240,3700,13988,-1407,96,70
468.79,1280,3632,13856,-1608,82,125
468.8,1252,3572,13968,-1483,18,157
468.81,1288,3468,14044,-1308,-10,152
468.82,1360,3448,14096,-1301,-30,156
468.83,1360,3552,14044,-1325,70,103
468.84,1296,3576,14080,-1304,70,87
468.85,1180,3624,14040,-1363,176,94
468.86,1272,3544,13984,-1454,170,74
468.87,1300,3432,13920,-1584,161,101
468.88,1316,3288,14060,-1594,125,107
468.89,1176,3292,14140,-1587,111,86
468.9,1144,3248,14116,-1615,83,101
468.91,1216,3232,14076,-1655,54,141
468.92,1360,3216,13968,-1749,5,154
468.93,1140,3168,14056,-1705,14,145
468.94,1260,3116,13980,-1509,-82,137
468.95,1352,3044,14096,-1474,-10,149
468.96,1240,3128,14112,-1486,23,144
468.97,1396,3108,14020,-1693,42,137
468.98,1352,3116,14040,-1807,43,147
468.99,1304,3080,14200,-1768,7,110
469.0,1300,3012,14032,-1684,-4,122
469.01,1272,2936,14160,-1695,72,118
469.02,1344,2932,14164,-1642,86,57
469.03,1348,2884,14160,-1607,5,97
469.04,1320,2832,14040,-1559,8,73
469.05,1284,2768,14240,-1526,-13,93
469.06,1428,2712,14252,-1518,-14,99
469.07,1336,2640,14092,-1560,12,88
469.08,1396,2724,14160,-1671,-2,70
469.09,1436,2644,14156,-1727,-44,76
469.1,1364,2588,14232,-1652,-28,88
469.11,1412,2584,14052,-1549,-54,28
469.12,1400,2540,14296,-1470,3,57
469.13,1424,2620,14256,-1439,-6,13
469.14,1368,2540,14176,-1332,-18,23
469.15,1408,2472,14152,-1290,26,12
469.16,1400,2460,14216,-1326,74,28
469.17,1352,2444,14148,-1393,45,23
469.18,1432,2448,14196,-1438,6,29
469.19,1504,2256,14176,-1420,-56,24
469.2,1452,2328,14172,-1374,-17,16
469.21,1444,2292,14240,-1341,-1,-8
469.22,1412,2328,14204,-1256,28,18
469.23,1448,2256,14196,-1299,8,6
469.24,1412,2184,14260,-1275,-6,13
469.25,1404,2212,14264,-1295,9,4
469.26,1448,2220,14188,-1344,33,-4
469.27,1380,2160,14280,-1207,97,-16
469.28,1408,2120,14224,-1183,86,-5
469.29,1524,2112,14320,-1281,-14,28
469.3,1444,2148,14272,-1281,-31,3
469.31,1516,2080,14236,-1197,-55,22
469.32,1472,2084,14268,-1256,52,10
469.33,1452,1976,14276,-1250,75,-31
469.34,1480,1988,14372,-1264,48,-2
469.35,1592,2016,14404,-1322,80,-21
469.36,1480,1820,14260,-1411,39,-46
469.37,1416,1780,14168,-1567,-64,-18
469.38,1548,1804,14040,-1576,-141,-14
469.39,1560,1760,14200,-1325,-93,-32
469.4,1556,1812,14444,-947,79,-46
469.41,1520,1784,14460,-771,136,-54
469.42,1396,1856,14396,-929,61,-44
469.43,1508,1728,14208,-1085,-11,4
469.44,1472,1708,13952,-1076,-154,35
469.45,1692,1728,14380,-822,-99,14
469.46,1584,1812,14660,-715,108,-10
469.47,1452,1812,14024,-1339,265,-20
469.48,1552,1580,13760,-2058,-192,56
469.49,1900,1324,15012,-880,242,-58
469.5,1476,1716,14192,-49,-111,-63
469.51,1596,1676,13724,-1225,-528,77
469.52,1704,1484,14476,-479,220,-52
469.53,1420,1580,14092,-724,-80,35
469.54,1576,1528,13752,-1339,-342,107
469.55,1620,1412,14360,-604,123,33
469.56,1604,1632,14792,56,358,-57
469.57,1564,1716,14692,-173,247,-18
469.58,1532,1664,14376,-460,182,12
469.59,1484,1696,14196,-620,188,24
469.6,1520,1576,14392,-796,86,52
469.61,1632,1664,14156,-837,40,53
469.62,1560,1408,13968,-740,64,60
469.63,1608,1380,14140,-608,129,46
469.64,1632,1348,14116,-303,163,35
469.65,1664,1312,13928,-89,181,38
469.66,1704,1308,14108,308,179,-13
469.67,1588,1476,14416,518,178,4
469.68,1720,1424,14376,559,207,23
469.69,1648,1532,14308,478,281,4
469.7,1752,1504,14236,440,357,12
469.71,1516,1468,14208,460,385,-18
469.72,1648,1532,14116,381,367,-28
469.73,1560,1564,14180,359,327,0
469.74,1464,1552,14196,404,349,1
469.75,1504,1600,14264,431,302,11
469.76,1744,1576,14324,497,330,1
469.77,1588,1568,14416,605,318,-2
469.78,1644,1644,14264,659,326,5
469.79,1592,1768,14304,823,372,-18
469.8,1592,1840,14236,789,302,-32
469.81,1496,1736,14500,980,556,-36
469.82,1408,1764,14064,737,375,26
469.83,1528,1744,14184,323,261,28
469.84,1756,1592,14356,826,442,-19
469.85,1516,1860,14076,775,208,-9
469.86,1692,1640,14292,692,286,-18
469.87,1604,1828,14276,904,328,-38
469.88,1520,1772,14356,882,242,-16
469.89,1568,1908,14220,828,240,-52
469.9,1616,1860,14304,713,232,-3
469.91,1552,1888,14224,753,249,-52
469.92,1544,1904,14216,905,327,-53
469.93,1576,2080,14200,1013,439,-67
469.94,1596,2052,14392,965,462,-74
469.95,1544,1960,14200,795,499,-78
469.96,1536,1924,14104,816,426,-34
469.97,1376,2004,14268,874,373,-56
469.98,1452,2020,14260,1006,399,-19
469.99,1528,2140,14216,866,304,-28
470.0,1512,2112,14200,864,379,-22
470.01,1568,2052,14300,1024,396,-28
470.02,1392,2136,14192,1047,317,-16
470.03,1500,2240,14184,974,369,-37
470.04,1512,2212,14192,876,370,-18
470.05,1552,2296,14140,844,427,-30
470.06,1464,2380,14056,904,438,-6
470.07,1476,2260,14160,880,478,-47
470.08,1560,2252,14208,973,502,-60
470.09,1384,2348,14176,1094,433,-39
470.1,1484,2288,14068,1257,410,-36
470.11,1496,2384,14256,1471,396,-46
470.12,1484,2488,14276,1496,516,-33
470.13,1360,2524,14196,1442,495,-68
470.14,1384,2516,14128,1321,464,-38
470.15,1468,2548,14192,1260,451,-40
470.16,1372,2576,14076,1223,465,-88
470.17,1448,2636,14292,1193,484,-87
470.18,1444,2640,14060,1149,510,-84
470.19,1348,2688,14236,1155,453,-98
470.2,1372,2660,14164,1140,437,-96
470.21,1408,2696,14320,1190,456,-102
470.22,1444,2764,14188,1190,452,-98
470.23,1324,2760,14132,1067,390,-78
470.24,1368,2728,14044,1079,402,-86
470.25,1352,2900,14080,1073,381,-70
470.26,1372,2884,14068,1003,386,-61
470.27,1540,2820,14008,1095,360,-73
470.28,1392,2864,14004,1116,401,-96
470.29,1420,2852,14232,1081,395,-102
470.3,1336,2944,14100,1164,487,-73
470.31,1320,2936,14124,1152,453,-96
470.32,1332,3004,14060,1176,449,-91
470.33,1248,3104,14192,1118,500,-135
470.34,1232,3036,14000,1137,460,-121
470.35,1332,3128,14120,1139,419,-103
470.36,1328,3220,14260,1169,422,-90
470.37,1324,3224,13964,1123,393,-95
470.38,1364,3180,14040,1000,372,-91
470.39,1356,3220,13956,866,313,-46
470.4,1284,3200,14028,887,322,-73
470.41,1424,3264,14248,1029,458,-121
470.42,1352,3352,14184,1277,506,-136
470.43,1188,3404,14052,1018,455,-137
470.44,1152,3396,14044,816,419,-91
470.45,1224,3288,14072,797,312,-73
470.46,1300,3348,14180,873,258,-49
470.47,1252,3436,13928,342,376,99
470.48,1236,3408,13480,-317,67,62
470.49,1472,3288,14604,1012,421,-121
470.5,1308,3640,14384,1526,465,-147
470.51,1272,3632,13864,265,30,-16
470.52,1376,3484,13992,497,409,-49
470.53,1172,3472,13628,61,150,37
470.54,1216,3424,13572,-135,29,69
470.55,1308,3308,13684,419,86,43
470.56,1344,3508,14176,962,45,-20
470.57,1284,3600,14292,1076,-67,-29
470.58,1196,3672,14268,903,23,-22
470.59,1136,3612,14172,793,148,-33
470.6,1120,3696,14156,802,205,-24
470.61,1268,3680,13996,795,252,-42
470.62,1252,3648,13912,666,369,-50
470.63,1156,3692,13956,535,361,-58
470.64,1284,3720,13804,673,266,-56
470.65,1256,3784,13732,798,244,-39
470.66,1332,3712,14016,838,166,-17
470.67,1432,3740,14068,926,178,-53
470.68,1428,3840,13996,770,249,-78
470.69,1248,3748,14072,620,296,-66
470.7,1224,3748,14040,566,349,-62
470.71,1252,3868,13936,468,334,-59
470.72,1232,3792,13988,456,340,-50
470.73,1280,3840,13824,401,304,-62
470.74,1224,3804,13936,340,270,-21
470.75,1172,3836,13928,331,274,-36
470.76,1208,3780,13820,326,286,-39
470.77,1308,3892,13956,374,306,-57
470.78,1328,3972,13756,412,329,-66
470.79,1284,4024,13960,441,330,-45
470.8,1240,3908,13896,489,390,-81
470.81,1140,3968,13924,544,392,-130
470.82,1248,4048,14052,509,287,-100
470.83,1160,3920,14196,636,619,-111
470.84,1100,4072,13760,186,395,-28
470.85,1276,3932,13696,-182,265,-4
470.86,1260,3868,13896,345,421,-88
470.87,1212,3972,13936,631,240,-80
470.88,1232,4060,13880,431,209,-69
470.89,1220,4116,13688,169,212,-27
470.9,1300,4032,13856,209,205,-20
470.91,1144,4124,14084,226,129,4
470.92,1288,4004,13916,283,177,-24
470.93,1216,4112,14020,304,217,-33
470.94,1200,4108,13932,296,253,-42
470.95,1232,4140,13936,312,273,-58
470.96,1172,4164,13772,197,310,-37
470.97,1220,4032,13896,163,311,-30
470.98,1132,4032,13852,115,277,-44
470.99,1220,4056,13824,214,268,-33
471.0,1272,4152,13860,196,267,-54
471.01,1192,4120,13868,60,200,-5
471.02,1260,4128,13756,93,276,-39
471.03,1188,4176,13832,89,294,-29
471.04,1192,4088,13816,106,327,-46
471.05,1164,4104,13896,55,309,-64
471.06,1160,4208,13728,6,328,-44
471.07,1188,4088,13876,-19,321,-25
471.08,1208,4208,13896,-51,282,-34
471.09,1252,4120,14024,-9,297,-2
471.1,1128,3988,13992,-28,288,-33
471.11,1100,4188,13800,-42,284,-34
471.12,1224,4136,13756,-76,298,-21
471.13,1168,4224,13916,-61,294,-38
471.14,1196,4188,13924,-98,300,-20
471.15,1220,4228,13852,-135,274,2
471.16,1088,4156,13924,-162,294,-17
471.17,1096,4204,13756,-191,272,-50
471.18,1064,4128,13636,-214,256,-23
471.19,1140,4192,13776,-224,261,-8
471.2,1192,4088,13844,-244,273,-23
471.21,1180,4224,14044,-284,277,-22
471.22,1196,4280,13880,-359,258,-3
471.23,1184,4244,13892,-385,258,-3
471.24,1252,4160,13900,-527,222,5
471.25,1192,4104,13932,-620,216,3
471.26,1220,4156,13860,-686,192,9
471.27,1152,4132,13804,-812,210,13
471.28,1088,4212,14012,-980,222,24
471.29,1092,4144,13940,-1090,209,42
471.3,1116,4184,13924,-1181,177,59
471.31,1080,4108,13928,-1313,91,79
471.32,1092,3932,14032,-1388,69,70
471.33,1100,4084,14088,-1409,101,100
471.34,1036,4024,14016,-1545,73,101
471.35,1220,3932,13764,-1597,64,126
471.36,1208,3764,13836,-1664,23,160
471.37,1276,3848,14000,-1648,31,146
471.38,1148,3816,13904,-1660,41,159
471.39,1172,3748,13968,-1634,-46,162
471.4,1172,3816,14056,-1661,-17,200
471.41,1280,3816,14080,-1767,11,205
471.42,1240,3788,14128,-1883,68,157
471.43,1208,3724,14212,-1951,34,194
471.44,1168,3672,13996,-2132,-15,202
471.45,1244,3464,14012,-2311,-141,218
471.46,1236,3360,13880,-2230,-184,250
471.47,1260,3340,13916,-1992,-74,206
471.48,1368,3332,14128,-1557,15,173
471.49,1280,3364,14284,-1356,134,78
471.5,1360,3432,14132,-1482,150,119
471.51,1300,3404,14064,-1645,121,101
471.52,1304,3208,14072,-1645,-28,135
471.53,1176,3208,14076,-1626,-97,173
471.54,1284,3236,13960,-1862,107,237
471.55,1280,3224,13528,-2519,-1,220
471.56,1552,2984,14268,-2164,-118,142
471.57,1464,3084,14728,-788,223,4
471.58,1172,3224,13976,-1374,-386,178
471.59,1268,3028,13824,-2058,-385,214
471.6,1184,2944,13900,-1601,-3,171
471.61,1164,2948,13752,-2070,-489,280
471.62,1380,2764,13752,-1953,-318,234
471.63,1484,2720,14448,-904,-59,67
471.64,1404,3016,14504,-746,-78,58
471.65,1328,3004,14440,-1211,-55,101
471.66,1300,2892,14184,-1407,10,88
471.67,1328,3012,14276,-1572,52,157
471.68,1384,2832,14196,-1767,-9,113
471.69,1312,2764,14032,-1831,13,142
471.7,1396,2652,14048,-1835,55,143
471.71,1300,2560,14032,-1851,-5,101
471.72,1324,2456,13968,-1757,-74,145
471.73,1392,2496,13920,-1469,-50,85
471.74,1492,2480,14216,-1061,-79,48
471.75,1420,2468,14488,-921,-34,29
471.76,1452,2516,14328,-1047,23,71
471.77,1472,2512,14348,-1251,54,27
471.78,1476,2504,14196,-1257,100,36
471.79,1396,2396,14160,-1377,45,33
471.8,1380,2412,14204,-1455,12,35
471.81,1456,2396,14040,-1420,11,-8
471.82,1436,2364,14152,-1479,-1,21
471.83,1468,2312,14180,-1541,48,6
471.84,1576,2300,14140,-1503,-19,0
471.85,1496,2244,14120,-1523,-27,5
471.86,1504,2212,14060,-1368,23,6
471.87,1432,2236,14292,-1106,82,4
471.88,1432,2228,14468,-1015,132,27
471.89,1456,2196,14304,-1018,47,32
471.9,1324,2196,14296,-846,297,-14
471.91,1336,2076,14184,-1228,62,14
471.92,1616,2128,14092,-1542,-8,30
471.93,1596,1996,14048,-1411,-172,18
471.94,1492,2024,14316,-1012,-80,-37
471.95,1528,2100,14168,-960,-106,-23
471.96,1408,2088,14160,-1127,-50,-22
471.97,1444,2088,14320,-1085,-30,-16
471.98,1636,2040,14172,-1269,-56,-13
471.99,1616,1928,14332,-1273,-43,-50
472.0,1444,1988,14388,-1213,28,-54
472.01,1484,1972,14324,-1325,95,-69
472.02,1480,1800,14304,-1348,80,-60
472.03,1540,1924,14324,-1423,38,-101
472.04,1524,1772,14244,-1574,99,-97
472.05,1496,1680,14288,-1631,42,-82
472.06,1596,1720,14296,-1494,19,-88
472.07,1624,1664,14364,-1581,-40,-62
472.08,1608,1684,14112,-1699,-129,-37
472.09,1660,1636,14044,-1611,-182,-54
472.1,1600,1576,14164,-1337,-190,-14
472.11,1584,1556,14280,-1109,-123,-30
472.12,1596,1552,14232,-1012,-102,0
472.13,1584,1520,14300,-998,20,5
472.14,1608,1528,14232,-979,72,27
472.15,1592,1448,14184,-962,63,1
472.16,1644,1516,14256,-952,90,-8
472.17,1648,1488,14312,-910,118,-44
472.18,1660,1488,14148,-775,58,-38
472.19,1656,1484,14168,-850,71,-20
472.2,1444,1436,14308,-780,46,-4
472.21,1616,1432,14268,-700,58,6
472.22,1620,1396,14300,-685,69,-9
472.23,1692,1456,14156,-646,76,-16
472.24,1672,1360,14252,-593,98,-31
472.25,1712,1412,14332,-522,122,-13
472.26,1616,1356,14176,-469,148,-4
472.27,1692,1360,14180,-330,203,-23
472.28,1672,1380,14228,-243,149,-20
472.29,1644,1384,14056,-150,183,-23
472.3,1768,1364,14236,-96,182,12
472.31,1672,1372,14300,-1,158,14
472.32,1628,1360,14164,86,151,-9
472.33,1724,1288,14340,114,151,27
472.34,1696,1368,14148,242,203,7
472.35,1716,1292,14268,349,244,13
472.36,1692,1352,14268,410,285,-9
472.37,1608,1392,14276,462,287,10
472.38,1680,1504,14268,561,385,17
472.39,1680,1496,14264,567,375,-47
472.4,1584,1420,14380,567,412,-43
472.41,1636,1484,14292,394,401,-30
472.42,1620,1492,14100,225,229,-3
472.43,1688,1396,14080,263,182,4
472.44,1652,1432,14420,548,284,-3
472.45,1716,1532,14696,865,482,-50
472.46,1568,1620,14332,802,476,-31
472.47,1604,1580,14256,649,407,-12
472.48,1476,1540,14148,505,254,0
472.49,1572,1484,14272,564,147,34
472.5,1596,1524,14464,813,323,19
472.51,1680,1684,14112,502,543,42
472.52,1516,1800,13620,-389,227,77
472.53,1788,1472,14332,163,298,45
472.54,1804,1696,14704,1774,476,-96
472.55,1584,1872,13932,1045,-49,-6
472.56,1628,1640,14148,416,7,35
472.57,1616,1604,14404,1303,553,-41
472.58,1380,1756,13996,403,-81,109
472.59,1644,1548,14000,129,107,97
472.6,1696,1544,14312,1102,430,-16
472.61,1532,2004,14704,1445,492,-60
472.62,1620,2020,14596,1096,493,-64
472.63,1524,1956,14328,865,442,-10
472.64,1488,2056,14208,595,503,24
472.65,1508,1968,14140,427,333,51
472.66,1652,1928,14172,317,262,25
472.67,1608,2012,14228,299,302,12
472.68,1552,1936,14056,280,328,12
472.69,1580,1920,14012,371,306,11
472.7,1568,1952,13952,654,314,-6
472.71,1572,1808,14108,1037,305,-20
472.72,1596,1884,14296,1297,323,-15
472.73,1608,2052,14424,1261,398,-44
472.74,1572,2012,14348,1052,432,-22
472.75,1552,1932,14244,914,418,-23
472.76,1596,2168,14172,881,422,-28
472.77,1576,2256,14148,763,368,-38
472.78,1684,2192,14100,734,373,-40
472.79,1608,2168,14204,804,373,-34
472.8,1496,2264,14196,728,368,-42
472.81,1560,2272,14128,783,379,-61
472.82,1512,2228,14332,825,390,-19
472.83,1416,2248,14372,789,369,-16
472.84,1588,2356,14260,1022,409,-27
472.85,1560,2440,14332,1078,382,-66
472.86,1540,2408,14488,1102,492,-59
472.87,1404,2544,14152,1017,570,-26
472.88,1528,2412,14012,493,416,-20
472.89,1592,2348,14124,617,488,-45
472.9,1436,2464,14200,663,226,-43
472.91,1600,2416,14204,934,358,-49
472.92,1508,2484,14188,862,308,-48
472.93,1560,2540,14296,671,285,-36
472.94,1420,2484,14232,718,286,-15
472.95,1468,2604,14116,577,266,-49
472.96,1480,2568,14204,657,301,-75
472.97,1408,2580,14184,815,305,-83
472.98,1488,2504,14172,915,364,-87
472.99,1488,2536,14164,986,391,-91
473.0,1544,2716,14112,856,447,-88
473.01,1488,2732,14124,729,449,-52
473.02,1408,2636,14116,679,397,-97
473.03,1536,2688,14216,715,368,-91
473.04,1400,2648,14104,570,378,-92
473.05,1440,2660,14048,597,374,-61
473.06,1380,2728,14188,742,474,-88
473.07,1316,2680,14176,869,402,-73
473.08,1332,2708,14024,928,413,-82
473.09,1368,2852,14024,829,382,-59
473.1,1380,2828,14032,778,399,-51
473.11,1416,2880,14272,765,342,-22
473.12,1388,2924,14076,799,344,-24
473.13,1460,2928,14032,740,436,-65
473.14,1352,2952,14160,737,368,-92
473.15,1368,2984,14044,730,370,-88
473.16,1352,3048,14124,757,380,-87
473.17,1220,2924,14280,884,425,-80
473.18,1336,3080,14072,832,441,-98
473.19,1332,2992,14032,757,401,-87
473.2,1372,2996,14044,763,385,-53
473.21,1292,3000,14192,763,354,-106
473.22,1356,2988,14068,803,374,-82
473.23,1256,3144,14180,909,327,-95
473.24,1416,3136,13964,930,363,-113
473.25,1396,3164,14148,884,398,-82
473.26,1420,3168,14012,869,405,-141
473.27,1332,3200,14028,881,393,-126
473.28,1316,3244,14108,843,402,-84
473.29,1396,3220,14036,737,392,-132
473.3,1208,3240,14116,708,367,-95
473.31,1344,3176,14056,642,368,-84
473.32,1268,3220,14156,613,310,-69
473.33,1232,3224,14124,752,329,-80
473.34,1372,3328,14060,686,363,-57
473.35,1236,3340,14112,650,332,-74
473.36,1272,3320,13988,604,373,-77
473.37,1240,3364,13920,655,319,-70
473.38,1260,3360,14148,686,355,-81
473.39,1348,3396,13952,634,340,-98
473.4,1388,3468,13996,666,389,-74
473.41,1288,3428,14080,780,425,-73
473.42,1356,3492,14000,732,388,-105
473.43,1268,3568,14044,642,377,-60
473.44,1300,3476,13948,453,336,-47
473.45,1312,3560,13836,388,251,-28
473.46,1232,3480,14004,404,237,-27
473.47,1388,3492,14052,634,354,-58
473.48,1332,3572,14140,854,426,-125
473.49,1292,3624,14052,717,410,-96
473.5,1180,3576,14000,472,394,-107
473.51,1224,3656,14116,475,290,-49
473.52,1252,3692,14148,495,217,-73
473.53,1152,3520,13852,136,370,30
473.54,1200,3588,13424,-560,136,94
473.55,1468,3492,14264,286,357,-36
473.56,1368,3712,14600,1274,557,-192
473.57,1188,3892,13804,355,24,-19
473.58,1280,3716,13716,55,207,-22
473.59,1172,3672,13684,4,171,60
473.6,1064,3592,13512,-298,-46,104
473.61,1320,3568,13756,199,76,58
473.62,1364,3708,13980,718,20,26
473.63,1320,3772,14260,688,-54,4
473.64,1232,3752,14180,548,54,-35
473.65,1244,3832,14104,423,150,6
473.66,1236,3808,14108,434,144,-3
473.67,1160,3952,13920,480,285,-5
473.68,1160,3836,14000,495,382,-68
473.69,1152,3916,13840,440,390,-67
473.7,1224,3900,13944,362,385,-51
473.71,1240,3816,13796,410,344,-71
473.72,1276,3772,13792,589,226,-60
473.73,1272,3848,14036,710,182,-57
473.74,1184,3780,14036,678,220,-38
473.75,1304,3848,14096,611,263,-55
473.76,1264,3988,13924,469,318,-44
473.77,1220,3956,13936,356,356,-64
473.78,1200,3932,13984,270,328,-47
473.79,1268,3856,14028,293,301,-42
473.8,1188,4016,14048,217,291,-63
473.81,1208,3968,13960,248,273,-37
473.82,1140,3952,13808,193,308,-47
473.83,1248,3936,13824,200,296,-39
473.84,1168,3976,13872,263,303,-32
473.85,1220,4004,13936,284,319,-59
473.86,1292,4052,13924,329,340,-43
473.87,1164,4020,13884,377,301,-39
473.88,1168,4132,13828,304,214,-47
473.89,1200,4092,14088,432,520,-121
473.9,1088,4068,13840,246,398,-48
473.91,1216,4032,13640,-280,259,9
473.92,1312,3928,13844,173,396,-62
473.93,1084,4024,14060,450,296,-93
473.94,1164,4064,13816,197,239,-35
473.95,1152,4104,13756,-14,242,-52
473.96,1164,4108,13812,-65,187,0
473.97,1168,4100,13904,45,117,-2
473.98,1264,4076,13948,26,180,-31
473.99,1260,4116,13892,39,191,-5
474.0,1280,4204,13952,74,225,-19
474.01,1276,4200,13768,44,260,-47
474.02,1216,4120,13864,-74,276,-30
474.03,1308,3980,13848,-96,260,-7
474.04,1268,4072,13900,-86,245,-14
474.05,1196,4020,13932,-53,237,-9
474.06,1168,4012,13848,-140,183,-25
474.07,1172,3956,13892,-256,210,7
474.08,1248,4104,13860,-269,218,-4
474.09,1204,4144,13888,-349,207,-6
474.1,1176,4092,13944,-361,220,-1
474.11,1212,4072,13932,-475,199,5
474.12,1152,4160,13944,-510,201,5
474.13,1192,4072,13856,-582,204,33
474.14,1216,4128,13912,-660,221,27
474.15,1200,4084,13896,-666,207,29
474.16,1180,4024,13932,-700,149,46
474.17,1180,4048,13872,-738,142,54
474.18,1288,3928,13920,-813,148,61
474.19,1104,4004,13936,-774,135,68
474.2,1204,4036,14112,-801,145,56
474.21,1192,3964,13904,-924,134,76
474.22,1172,3928,14064,-1110,135,85
474.23,1164,3936,13944,-1224,123,103
474.24,1072,3900,13952,-1244,111,129
474.25,1152,3852,13940,-1355,85,110
474.26,1224,3876,14016,-1357,70,99
474.27,1104,3844,13964,-1356,44,118
474.28,1256,3776,13764,-1460,28,108
474.29,1212,3740,13988,-1424,1,112
474.3,1204,3756,14024,-1376,3,97
474.31,1320,3660,13900,-1330,40,115
474.32,1224,3704,14028,-1405,46,112
474.33,1092,3656,14004,-1484,47,117
474.34,1256,3664,13936,-1435,38,135
474.35,1268,3632,14012,-1308,37,117
474.36,1388,3404,14068,-1381,67,93
474.37,1332,3592,13988,-1375,74,96
474.38,1312,3560,13956,-1408,105,117
474.39,1188,3536,14080,-1473,83,130
474.4,1260,3508,14068,-1514,78,130
474.41,1284,3476,14004,-1435,26,99
474.42,1272,3444,14080,-1379,36,126
474.43,1356,3364,14032,-1448,43,146
474.44,1264,3248,13940,-1472,-32,124
474.45,1336,3284,14092,-1426,55,111
474.46,1248,3264,14188,-1471,135,98
474.47,1276,3324,14124,-1526,-2,107
474.48,1312,3288,14036,-1623,33,141
474.49,1344,3252,14020,-1790,-29,168
474.5,1380,3196,13840,-1901,-112,170
474.51,1328,3024,14036,-1701,-116,124
474.52,1428,2956,14124,-1425,15,135
474.53,1372,3064,14284,-1161,127,53
474.54,1428,3152,14264,-1210,98,84
474.55,1244,3112,14240,-1516,75,97
474.56,1280,3004,13984,-1673,-47,101
474.57,1304,2900,14116,-1649,-199,153
474.58,1376,2816,14348,-1602,-109,180
474.59,1240,2964,13840,-2165,47,233
474.6,1432,2832,13656,-2622,-393,204
474.61,1676,2544,14728,-1273,114,46
474.62,1252,2748,14112,-1040,-358,105
474.63,1436,2708,13888,-2069,-569,213
474.64,1468,2548,14052,-1452,98,55
474.65,1288,2632,13600,-1949,-500,208
474.66,1596,2428,13836,-1784,-305,145
474.67,1560,2588,14468,-844,22,70
474.68,1448,2632,14668,-682,-41,15
474.69,1404,2724,14420,-1204,-8,40
474.7,1432,2632,14292,-1514,58,68
474.71,1436,2528,14312,-1609,-25,115
474.72,1500,2636,14196,-1830,-40,135
474.73,1512,2408,14128,-1892,-9,120
474.74,1464,2316,13956,-1898,45,72
474.75,1476,2192,13988,-1827,-43,65
474.76,1504,2100,13984,-1590,-73,42
474.77,1560,2144,14112,-1166,-99,20
474.78,1504,2092,14308,-842,-24,40
474.79,1516,2132,14440,-828,-45,11
474.8,1568,2168,14328,-840,14,-1
474.81,1552,2220,14352,-966,27,11
474.82,1492,2200,14208,-1197,97,-1
474.83,1412,2056,14080,-1432,-12,12
474.84,1448,2112,14240,-1469,0,-12
474.85,1504,2084,14272,-1553,-172,-4
474.86,1464,2140,14304,-1690,-171,-6
474.87,1628,1904,14060,-1642,-75,-22
474.88,1648,1916,14208,-1524,-48,-72
474.89,1552,1932,14248,-1453,-55,-62
474.9,1596,1960,14204,-1115,9,-33
474.91,1604,2052,14428,-923,124,-62
474.92,1560,1920,14212,-1079,80,-65
474.93,1584,1948,14628,-1008,225,-54
474.94,1528,1908,14248,-1094,151,-13
474.95,1524,1860,14008,-1669,-5,-14
474.96,1560,1784,14088,-1634,-102,-4
474.97,1552,1740,14224,-1281,-264,-30
474.98,1724,1792,14308,-1185,-222,-16
474.99,1736,1704,14356,-1147,-117,-48
475.0,1568,1656,14260,-1198,-68,-27
475.01,1600,1640,14328,-1146,-53,-6
475.02,1652,1676,14320,-1157,-83,-11
475.03,1660,1636,14400,-1217,-32,-37
475.04,1696,1660,14264,-1161,35,-79
475.05,1624,1612,14204,-1093,40,-73
475.06,1688,1512,14248,-1009,83,-75
475.07,1584,1452,14116,-1127,86,-34
475.08,1628,1400,14276,-1095,57,-12
475.09,1624,1652,14296,-1089,27,-39
475.1,1892,1380,14308,-910,15,-24
475.11,1644,1428,14188,-864,11,-31
475.12,1736,1516,14320,-846,-10,-27
475.13,1660,1316,14232,-761,-19,-28
475.14,1584,1300,14084,-571,30,-38
475.15,1684,1364,14184,-439,104,-13
475.16,1684,1336,14240,-458,134,-27
475.17,1596,1348,14232,-364,141,21
475.18,1756,1380,14268,-299,111,29
475.19,1656,1264,14156,-95,171,13
475.2,1676,1316,14180,77,217,20
475.21,1752,1388,14196,261,239,16
475.22,1736,1480,14160,387,274,40
475.23,1716,1464,14312,468,366,25
475.24,1632,1400,14096,645,371,-4
475.25,1716,1364,14168,737,391,2
475.26,1676,1428,14164,763,402,-12
475.27,1588,1396,14196,908,473,-21
475.28,1712,1512,14220,921,439,-37
475.29,1640,1464,14272,925,378,-38
475.3,1564,1584,14320,1028,455,-37
475.31,1712,1584,14376,983,464,-25
475.32,1648,1552,14284,963,433,-23
475.33,1660,1600,14364,1012,413,-37
475.34,1668,1704,14320,995,442,-45
475.35,1680,1804,14168,952,399,-37
475.36,1664,1664,14084,971,376,-31
475.37,1604,1692,14184,970,408,-44
475.38,1652,1752,14148,1065,328,-21
475.39,1748,1656,14220,1192,406,-38
475.4,1592,1728,14384,1333,477,-60
475.41,1616,1756,14260,1224,465,-62
475.42,1580,1784,14392,1170,408,-46
475.43,1612,1856,14128,1152,372,-6
475.44,1656,1944,14312,1136,399,-17
475.45,1616,1936,14204,1145,401,-23
475.46,1692,1924,14184,1097,351,-9
475.47,1688,2048,14240,1156,451,-52
475.48,1620,2084,14336,1253,606,-95
475.49,1584,2164,14424,1398,689,-78
475.5,1508,2160,14520,1417,651,-94
475.51,1560,2140,14316,1211,528,-76
475.52,1436,2224,14160,919,362,-47
475.53,1504,2136,14052,903,248,-1
475.54,1568,2240,14292,1078,319,-25
475.55,1452,2332,14304,851,555,37
475.56,1436,2308,13572,-123,262,69
475.57,1716,2064,14356,574,495,-30
475.58,1692,2256,14716,1866,691,-203
475.59,1364,2420,14120,1378,183,-27
475.6,1580,2364,14224,627,259,-33
475.61,1472,2384,14136,1150,620,-69
475.62,1392,2396,13692,236,-152,148
475.63,1552,2136,13752,443,272,63
475.64,1608,2264,14316,1564,391,-72
475.65,1512,2528,14568,1647,361,-77
475.66,1488,2680,14508,1173,423,-34
475.67,1360,2684,14264,875,429,-38
475.68,1444,2660,14312,719,449,1
475.69,1424,2628,14164,485,441,-16
475.7,1492,2720,13964,417,468,-9
475.71,1540,2632,14044,454,495,-19
475.72,1432,2524,14012,512,470,-12
475.73,1508,2496,13936,619,391,-25
475.74,1516,2540,14008,929,342,-25
475.75,1496,2620,14196,1248,358,-26
475.76,1560,2664,14364,1275,415,-93
475.77,1504,2724,14352,1155,387,-62
475.78,1480,2736,14208,1075,471,-86
475.79,1436,2884,14228,823,472,-118
475.8,1500,2832,14212,686,417,-75
475.81,1508,2860,14076,558,348,-68
475.82,1388,2844,14100,635,253,-31
475.83,1380,2848,14084,743,299,-44
475.84,1328,2948,14068,605,303,-56
475.85,1340,2828,14156,592,424,-51
475.86,1428,2864,14152,829,344,-52
475.87,1400,2972,14052,909,340,-34
475.88,1380,2992,14312,1135,392,-66
475.89,1384,3100,14076,1233,330,-113
475.9,1388,3120,14300,1341,491,-121
475.91,1292,3104,14172,1210,635,-74
475.92,1372,3140,14016,701,408,-66
475.93,1284,2972,13840,553,431,-63
475.94,1352,3140,13944,810,338,-134
475.95,1372,3168,14056,1081,319,-138
475.96,1336,3072,14080,947,293,-82
475.97,1248,3120,14008,726,305,-68
475.98,1360,3216,13992,791,295,-87
475.99,1420,3284,14052,800,161,-54
476.0,1404,3272,14076,791,265,-88
476.01,1420,3148,14092,867,276,-82
476.02,1464,3312,14056,958,318,-106
476.03,1352,3344,14120,992,350,-134
476.04,1352,3408,14156,891,386,-122
476.05,1384,3268,13956,664,384,-75
476.06,1340,3392,14136,681,358,-78
476.07,1380,3416,14036,800,340,-90
476.08,1280,3396,14092,691,361,-75
476.09,1228,3392,13912,594,277,-39
476.1,1512,3416,13980,655,315,-89
476.11,1380,3432,13952,737,384,-32
476.12,1300,3384,13908,716,331,-85
476.13,1308,3496,14040,693,274,-81
476.14,1392,3552,13860,624,283,-77
476.15,1304,3668,14148,599,303,-51
476.16,1332,3620,14064,573,320,-76
476.17,1292,3600,14012,531,331,-58
476.18,1272,3624,14052,499,360,-26
476.19,1244,3544,13916,423,313,-21
476.2,1296,3576,14036,443,298,-33
476.21,1364,3640,14004,572,292,-50
476.22,1356,3564,13964,584,295,-45
476.23,1244,3712,13884,524,296,-39
476.24,1264,3660,14040,514,321,-44
476.25,1288,3652,13828,472,325,-71
476.26,1248,3728,13832,454,297,-42
476.27,1268,3624,13984,498,276,-59
476.28,1264,3676,13920,537,331,-60
476.29,1352,3676,13960,577,315,-67
476.3,1260,3724,13836,509,347,-93
476.31,1280,3672,13884,520,352,-91
476.32,1284,3792,13896,506,282,-49
476.33,1356,3740,13880,494,303,-44
476.34,1276,3780,13860,456,322,-57
476.35,1224,3796,14060,446,287,-35
476.36,1264,3832,13852,479,292,-41
476.37,1328,3812,13996,439,311,-60
476.38,1260,3800,14040,486,283,-48
476.39,1208,3832,13900,492,280,-64
476.4,1200,3988,13864,427,338,-61
476.41,1272,3896,14008,372,334,-54
476.42,1236,3872,13800,380,306,-68
476.43,1292,3956,13904,385,343,-50
476.44,1340,3928,13796,347,310,-43
476.45,1196,3952,14012,332,334,-67
476.46,1288,4004,13996,354,319,-38
476.47,1188,4104,14032,328,343,-53
476.48,1212,3900,13836,290,315,-39
476.49,1280,3924,13996,290,345,-80
476.5,1388,4020,13816,287,262,-48
476.51,1276,4036,13860,280,322,-51
476.52,1332,4028,13800,297,330,-35
476.53,1248,4048,14040,328,336,-50
476.54,1260,3956,13916,284,361,-54
476.55,1284,4052,13868,183,317,-59
476.56,1160,4020,13784,74,280,-26
476.57,1256,4012,13840,0,237,-44
476.58,1240,4008,13864,28,268,-33
476.59,1296,4092,14048,354,401,-66
476.6,1172,4192,14116,358,442,-104
476.61,1112,4068,13900,80,370,-95
476.62,1132,4164,13788,-22,334,-44
476.63,1236,4064,13844,-29,209,-25
476.64,1284,4024,14072,18,174,-36
476.65,1228,4140,13716,-459,317,68
476.66,1252,3916,13456,-865,10,111
476.67,1516,4004,14260,105,440,-55
476.68,1240,4300,14272,582,401,-141
476.69,1204,4116,13824,-263,-8,-8
476.7,1240,4076,13728,-325,187,-12
476.71,1096,4108,13528,-523,123,90
476.72,1272,3828,13388,-711,-47,119
476.73,1236,3880,13588,-197,82,97
476.74,1344,4040,14084,82,10,39
476.75,1228,3984,14044,46,-87,22
476.76,1216,4216,14112,-198,-53,73
476.77,1212,4124,14000,-290,13,77
476.78,1132,4036,13832,-167,115,35
476.79,1320,4168,13880,-110,205,17
476.8,1264,4148,13792,-28,307,-16
476.81,1320,4080,13788,-35,331,-21
476.82,1208,4028,13840,-115,286,-37
476.83,1180,4032,13876,26,247,-16
476.84,1208,4028,13864,126,167,19
476.85,1344,4020,13984,108,209,-24
476.86,1280,4020,14036,6,184,-27
476.87,1296,4004,14080,-146,227,-33
476.88,1420,4084,13860,-315,196,-13
476.89,1248,4128,13860,-469,223,3
476.9,1196,4076,13940,-547,214,18
476.91,1160,4096,13932,-622,179,14
476.92,1284,3988,13952,-746,195,41
476.93,1232,3972,13728,-763,148,72
476.94,1244,4036,13908,-757,143,60
476.95,1192,3948,13828,-712,157,24
476.96,1204,3976,13896,-682,142,69
476.97,1160,4004,13888,-610,195,42
476.98,1276,4024,14048,-602,241,36
476.99,1292,4092,13980,-645,245,16
477.0,1200,4032,13888,-816,122,43
477.01,1244,3896,14232,-665,481,2
477.02,1120,3948,13800,-1155,160,95
477.03,1224,3828,13628,-1617,37,147
477.04,1336,3768,13932,-1116,192,70
477.05,1260,3868,14040,-834,17,77
477.06,1316,3752,13816,-1176,34,83
477.07,1236,3828,14008,-1402,29,117
477.08,1260,3792,14060,-1431,-8,146
477.09,1276,3740,14036,-1418,-33,156
477.1,1316,3716,14020,-1512,-72,153
477.11,1416,3676,14032,-1492,-24,135
477.12,1400,3704,14088,-1401,22,129
477.13,1376,3720,14028,-1435,40,137
477.14,1356,3636,14192,-1534,-6,164
477.15,1256,3532,13968,-1633,6,172
477.16,1400,3496,14056,-1661,28,168
477.17,1352,3392,14136,-1636,2,156
477.18,1276,3356,14000,-1562,-1,130
477.19,1272,3332,13968,-1581,-34,163
477.2,1436,3368,13952,-1613,37,116
477.21,1372,3276,14172,-1542,54,146
477.22,1340,3340,14164,-1560,31,139
477.23,1252,3272,14064,-1593,36,132
477.24,1344,3288,14044,-1626,-63,163
477.25,1348,3244,13908,-1673,-40,160
477.26,1424,3168,14164,-1716,1,177
477.27,1284,3236,14104,-1698,17,159
477.28,1376,3128,14076,-1689,-15,153
477.29,1284,3152,13992,-1682,-11,145
477.3,1436,3064,14192,-1581,-25,164
477.31,1260,3060,14096,-1557,-12,143
477.32,1400,3004,14048,-1470,-69,118
477.33,1336,2968,14212,-1441,-35,141
477.34,1432,2988,14132,-1482,15,112
477.35,1380,2908,14192,-1492,-7,99
477.36,1412,2828,14232,-1580,-21,108
477.37,1460,2828,14160,-1579,-63,98
477.38,1444,2796,14188,-1471,-24,89
477.39,1488,2704,14212,-1447,-14,44
477.4,1452,2668,14104,-1412,22,67
477.41,1436,2732,14240,-1407,17,81
477.42,1480,2760,14164,-1424,26,52
477.43,1460,2692,14084,-1453,26,39
477.44,1524,2744,14144,-1403,-23,39
477.45,1428,2636,14024,-1401,-58,42
477.46,1416,2520,14084,-1363,11,27
477.47,1460,2544,14152,-1346,-41,51
477.48,1412,2528,14104,-1327,-43,52
477.49,1420,2568,14212,-1300,43,41
477.5,1428,2384,14232,-1312,15,24
477.51,1476,2456,14260,-1394,-4,27
477.52,1468,2320,14048,-1340,-1,51
477.53,1584,2388,14160,-1301,-10,19
477.54,1380,2384,14212,-1329,22,56
477.55,1504,2408,14128,-1211,-7,44
477.56,1576,2360,14092,-1162,21,28
477.57,1484,2288,14276,-1168,60,2
477.58,1524,2412,14148,-1189,76,-20
477.59,1512,2308,14320,-1199,90,-18
477.6,1452,2144,14224,-1157,140,10
477.61,1616,2280,14172,-1285,77,-40
477.62,1512,2152,14220,-1296,-19,12
477.63,1540,2236,14232,-1383,-43,14
477.64,1540,2176,14160,-1470,-48,21
477.65,1588,2120,13988,-1481,-109,44
477.66,1704,1980,14064,-1474,-81,1
477.67,1608,1980,14396,-1059,83,-37
477.68,1572,2044,14348,-884,113,-30
477.69,1584,2028,14360,-1140,30,-12
477.7,1548,1928,14112,-1204,-29,-13
477.71,1552,1848,14044,-1204,-157,62
477.72,1652,1836,14316,-846,-113,5
477.73,1744,1852,14572,-746,143,1
477.74,1548,2080,14020,-1404,280,30
477.75,1576,1788,13664,-2026,-164,44
477.76,1852,1668,14856,-655,282,-72
477.77,1524,1900,14124,-158,-196,-19
477.78,1588,1788,13820,-1361,-487,96
477.79,1688,1632,14516,-279,302,-81
477.8,1440,1788,13900,-966,-259,86
477.81,1724,1632,13872,-1246,-221,125
477.82,1732,1668,14416,-294,193,29
477.83,1720,1824,14716,156,295,-27
477.84,1600,1896,14688,115,297,-26
477.85,1552,1928,14192,-192,167,20
477.86,1620,1912,14124,-359,137,64
477.87,1668,1892,14304,-386,143,81
477.88,1700,1764,14108,-367,138,75
477.89,1652,1728,14008,-283,215,69
477.9,1608,1660,14016,-181,153,104
477.91,1612,1720,13804,39,199,94
477.92,1696,1636,13960,342,213,53
477.93,1668,1588,14096,710,235,-12
477.94,1664,1680,14236,896,204,-8
477.95,1532,1820,14284,1029,297,-35
477.96,1712,1792,14328,1017,369,-50
477.97,1624,1824,14180,938,436,-41
477.98,1672,1884,14192,854,417,-77
477.99,1540,1916,14228,798,425,-25
478.0,1512,1904,14168,647,366,-38
478.01,1608,1884,14296,669,343,-38
478.02,1596,1960,14272,715,304,17
478.03,1664,1896,14360,780,303,-16
478.04,1596,2064,14156,839,310,-19
478.05,1640,2168,14120,1011,323,-2
478.06,1560,2116,14284,1132,329,-14
478.07,1628,2240,14168,1091,304,-38
478.08,1636,2064,14412,1257,503,-30
478.09,1568,2152,14232,1317,601,-60
478.1,1512,2276,14044,752,347,2
478.11,1560,2116,14144,829,428,-34
478.12,1504,2116,14144,1131,416,-64
478.13,1540,2224,14228,893,226,-51
478.14,1700,2160,14364,1059,407,-96
478.15,1668,2284,14188,1075,356,-63
478.16,1536,2328,14180,902,332,-61
478.17,1572,2340,14072,795,214,-16
478.18,1716,2388,14160,806,277,-46
478.19,1648,2420,14204,876,321,-64
478.2,1560,2340,14216,1053,343,-64
478.21,1488,2444,14268,1183,375,-67
478.22,1388,2440,14240,1230,443,-75
478.23,1504,2480,14148,1096,391,-43
478.24,1516,2500,14188,1014,382,-56
478.25,1416,2592,14372,1056,373,-61
478.26,1516,2552,14036,1012,442,-34
478.27,1484,2528,14116,777,358,-45
478.28,1592,2608,14172,731,420,-68
478.29,1524,2604,14176,810,426,-74
478.3,1476,2636,14224,833,390,-70
478.31,1436,2724,14168,750,349,-56
478.32,1432,2656,14068,683,349,-43
478.33,1444,2716,14120,661,338,-31
478.34,1552,2724,14168,690,363,-28
478.35,1596,2792,14128,754,383,-26
478.36,1528,2856,14024,715,362,-27
478.37,1504,2832,14072,762,331,-57
478.38,1372,2848,14160,878,305,-29
478.39,1548,2856,14096,940,379,-52
478.4,1464,2932,14224,960,417,-99
478.41,1512,2908,14260,973,424,-82
478.42,1604,2948,14196,903,423,-67
478.43,1388,2980,13996,840,383,-56
478.44,1536,2976,13936,795,345,-81
478.45,1408,2912,14092,913,330,-81
478.46,1448,2996,14148,899,354,-71
478.47,1472,3020,14144,824,378,-124
478.48,1380,3084,13976,888,359,-77
478.49,1416,3072,13984,843,363,-82
478.5,1376,3116,14060,853,311,-90
478.51,1416,3152,13920,951,354,-115
478.52,1444,3208,14184,922,388,-94
478.53,1356,3140,13980,853,388,-92
478.54,1424,3088,14004,814,368,-114
478.55,1372,3208,14128,829,344,-119
478.56,1420,3228,14092,802,357,-95
478.57,1384,3268,13980,717,305,-121
478.58,1452,3256,14044,755,336,-110
478.59,1464,3240,13968,728,328,-103
478.6,1416,3344,14032,687,362,-75
478.61,1336,3256,14028,741,389,-85
478.62,1324,3264,14084,783,340,-98
478.63,1352,3384,14076,834,338,-81
478.64,1468,3408,14124,736,365,-101
478.65,1364,3444,14152,680,370,-80
478.66,1368,3412,13988,591,295,-96
478.67,1464,3308,13808,573,244,-61
478.68,1352,3336,14024,748,359,-66
478.69,1256,3456,14148,999,469,-120
478.7,1420,3556,14116,912,466,-119
478.71,1228,3584,13924,660,401,-122
478.72,1332,3528,13928,525,299,-54
478.73,1432,3460,13964,503,181,-37
478.74,1352,3552,14036,572,176,-27
478.75,1320,3704,13996,70,330,69
478.76,1452,3388,13856,-240,110,16
478.77,1584,3492,14448,911,554,-156
478.78,1352,3820,14260,1157,334,-109
478.79,1356,3600,13904,175,22,-10
478.8,1464,3640,14052,471,447,-67
478.81,1092,3732,13520,-215,35,52
478.82,1332,3404,13376,-339,-26,92
478.83,1404,3448,13756,309,161,4
478.84,1416,3640,14164,725,20,-32
478.85,1228,3668,14252,864,9,-46
478.86,1336,3828,14092,643,-11,-26
478.87,1420,3928,14176,400,108,-18
478.88,1352,3764,14136,418,133,-17
478.89,1272,3820,13908,443,271,-43
478.9,1460,3844,13904,523,307,-56
478.91,1380,3844,13844,461,338,-72
478.92,1264,3628,13884,471,262,-62
478.93,1380,3768,13848,618,229,-75
478.94,1444,3736,13872,754,223,-35
478.95,1512,3792,14048,736,201,-76
478.96,1468,3760,13972,700,260,-46
478.97,1404,3732,14036,576,323,-73
478.98,1336,3880,14000,471,298,-51
478.99,1356,3896,14024,384,318,-64
479.0,1352,3928,14112,328,302,-57
479.01,1324,3948,14088,279,290,-59
479.02,1316,3852,14068,226,299,-54
479.03,1344,3912,13836,299,251,-32
479.04,1364,3908,13884,311,247,-74
479.05,1364,3980,13836,294,261,-60
479.06,1376,3988,13888,313,315,-63
479.07,1336,3948,13836,343,341,-64
479.08,1408,4000,14044,451,323,-56
479.09,1300,3988,13956,556,330,-48
479.1,1404,4048,13932,479,254,-80
479.11,1404,4096,14080,624,665,-99
479.12,1176,4080,13824,213,368,-32
479.13,1328,4016,13520,-185,254,12
479.14,1408,3912,13832,406,433,-104
479.15,1284,4092,14132,604,338,-103
479.16,1300,4060,14092,404,304,-70
479.17,1268,4040,13772,201,256,-55
479.18,1292,4208,13788,82,204,6
479.19,1272,4108,14060,162,155,-41
479.2,1356,4108,13752,243,134,-36
479.21,1340,4124,13968,189,155,-35
479.22,1408,4212,13828,203,198,-29
479.23,1288,4208,13952,236,196,-19
479.24,1228,4096,13920,211,220,-47
479.25,1268,4148,13940,128,247,-61
479.26,1344,4204,13844,106,237,-24
479.27,1356,4116,13968,132,231,-14
479.28,1388,4064,13960,208,265,-46
479.29,1288,4136,13864,146,236,-42
479.3,1316,4184,13708,18,187,-10
479.31,1288,4148,13852,46,259,-23
479.32,1312,4172,13948,68,269,-53
479.33,1300,4188,13820,55,271,-31
479.34,1296,4156,13892,7,247,-53
479.35,1440,4148,14024,-58,213,-23
479.36,1240,4208,13788,-86,249,11
479.37,1264,4160,13928,-74,255,-42
479.38,1296,4208,13888,-18,253,-22
479.39,1336,4204,13972,-59,258,9
479.4,1268,4224,13900,-44,275,-27
479.41,1248,4160,13852,-79,218,-22
479.42,1388,4240,13752,-104,249,-13
479.43,1288,4184,13984,-94,264,0
479.44,1308,4220,13660,-121,253,-12
479.45,1376,4156,13824,-171,235,7
479.46,1268,4104,13912,-167,236,-3
479.47,1444,4180,13860,-185,224,-10
479.48,1256,4208,13880,-176,247,-18
479.49,1324,4172,13832,-200,249,0
479.5,1164,4204,13896,-228,297,6
479.51,1272,4236,13924,-242,292,-27
479.52,1236,4188,13796,-315,289,-37
479.53,1264,4272,13836,-383,261,-5
479.54,1232,4080,13936,-451,227,-18
479.55,1328,4120,13896,-513,227,13
479.56,1284,4212,13904,-550,190,16
479.57,1304,4064,13932,-585,197,-3
479.58,1308,4216,13880,-622,189,18
479.59,1384,4120,13968,-681,234,24
479.6,1220,4192,13836,-785,207,23
479.61,1308,4112,13852,-836,223,7
479.62,1312,4140,14000,-847,196,31
479.63,1252,4016,13980,-881,225,37
479.64,1328,4024,13948,-902,208,39
479.65,1292,3944,13760,-974,148,67
479.66,1376,4040,13816,-1029,185,61
479.67,1340,4004,13944,-1048,195,64
479.68,1292,4040,13908,-1065,143,63
479.69,1304,3944,13796,-1108,113,106
479.7,1344,3988,14016,-1157,85,102
479.71,1336,3848,14080,-1201,126,84
479.72,1348,3904,13888,-1269,153,82
479.73,1256,3920,14008,-1261,124,65
479.74,1292,3856,14132,-1302,167,102
479.75,1216,3836,13900,-1376,128,108
479.76,1324,3828,13944,-1510,132,111
479.77,1300,3680,13856,-1636,80,134
479.78,1272,3628,13752,-1652,43,154
479.79,1348,3604,13864,-1556,77,119
479.8,1276,3644,14080,-1276,230,111
479.81,1436,3744,14160,-1114,263,58
479.82,1324,3708,14112,-1128,240,49
479.83,1296,3596,13984,-1410,151,106
479.84,1216,3464,13856,-1618,87,139
479.85,1384,3528,14056,-1470,-87,147
479.86,1456,3484,14272,-1304,-61,158
479.87,1284,3600,14040,-1637,210,234
479.88,1340,3480,13672,-2476,-48,254
479.89,1516,3304,14404,-1618,187,113
479.9,1368,3452,14192,-850,97,84
479.91,1268,3428,13828,-1757,-383,257
479.92,1436,3184,14112,-1633,-24,190
479.93,1252,3276,13736,-1548,-90,267
479.94,1392,3132,13516,-2137,-377,332
479.95,1676,3020,14016,-1115,17,173
479.96,1464,3248,14428,-565,-39,69
479.97,1424,3268,14404,-870,-22,116
479.98,1520,3316,14192,-1276,-31,132
479.99,1248,3312,14180,-1538,-42,202
480.0,1372,3160,14100,-1572,13,187
480.01,1336,3128,14076,-1590,30,154
480.02,1324,3112,14028,-1694,94,166
480.03,1372,2916,13884,-1816,67,142
480.04,1468,2884,13880,-1787,-29,163
480.05,1432,2752,13912,-1502,-52,125
480.06,1504,2840,14112,-1140,-63,104
480.07,1528,2808,14148,-884,31,78
480.08,1512,2796,14192,-880,54,31
480.09,1508,2852,14320,-1068,135,59
480.1,1364,2808,14256,-1234,146,65
480.11,1512,2764,14168,-1301,144,77
480.12,1520,2772,14116,-1349,116,74
480.13,1420,2772,14132,-1436,45,92
480.14,1484,2612,14068,-1553,32,82
480.15,1484,2708,14076,-1629,26,104
480.16,1556,2628,14088,-1525,51,57
480.17,1500,2508,14248,-1418,78,52
480.18,1436,2612,14152,-1328,48,24
480.19,1504,2600,14312,-1172,70,37
480.2,1476,2612,14292,-1026,224,38
480.21,1488,2664,14256,-987,211,49
480.22,1568,2556,14144,-1025,59,10
480.23,1464,2540,14344,-804,354,53
480.24,1396,2524,13960,-1117,183,57
480.25,1484,2384,13924,-1393,124,63
480.26,1540,2184,14020,-1237,-40,42
480.27,1564,2408,14196,-644,109,-23
480.28,1612,2508,14244,-660,93,-20
480.29,1404,2380,14144,-989,97,-26
480.3,1568,2404,14284,-975,97,4
480.31,1464,2364,14348,-1076,15,0
480.32,1440,2340,14388,-1139,133,-10
480.33,1596,2304,14284,-1038,96,-21
480.34,1584,2336,14268,-906,123,-76
480.35,1512,2272,14200,-1058,185,-43
480.36,1540,2204,14312,-1170,143,-52
480.37,1580,2160,14240,-1296,168,-6
480.38,1512,2124,14404,-1225,169,-59
480.39,1540,2128,14308,-1224,254,-86
480.4,1524,2112,14176,-1343,134,-72
480.41,1520,2064,14120,-1415,92,-30
480.42,1536,2020,14296,-1409,73,-37
480.43,1500,2084,14244,-1328,138,-63
480.44,1480,2036,14452,-1273,170,-74
480.45,1484,2044,14356,-1496,123,-75
480.46,1548,1996,14044,-1671,94,-41
480.47,1520,1888,14316,-1755,69,-76
480.48,1552,2012,14240,-1760,38,-49
480.49,1648,1892,14288,-1721,163,-88
480.5,1456,1952,14384,-1754,210,-138
480.51,1528,1752,14088,-1881,54,-107
480.52,1528,1724,14220,-1696,-27,-75
480.53,1608,1648,14168,-1474,17,-43
480.54,1600,1672,14300,-1308,-2,-65
480.55,1648,1652,14176,-1228,85,-34
480.56,1672,1616,14312,-1196,90,-47
480.57,1576,1608,14224,-1112,17,-44
480.58,1680,1596,14272,-1156,82,-49
480.59,1572,1624,14304,-1068,43,-82
480.6,1704,1524,14260,-1003,167,-38
480.61,1600,1528,14256,-1044,111,-70
480.62,1640,1504,14428,-960,57,-51
480.63,1584,1464,14348,-1022,44,-59
480.64,1640,1440,14196,-995,12,-40
480.65,1588,1372,14384,-1052,-87,-59
480.66,1624,1348,14216,-977,-90,-32
480.67,1564,1260,14320,-874,59,26
480.68,1648,1384,14396,-722,-99,39
480.69,1680,1412,14268,-936,59,7
480.7,1656,1268,14204,-740,-7,-32
480.71,1692,1328,14264,-737,45,28
480.72,1640,1304,14252,-617,34,31
480.73,1584,1232,14204,-459,41,22
480.74,1600,1268,14128,-336,133,6
480.75,1756,1292,14096,-170,195,22
480.76,1784,1272,14240,33,236,21
480.77,1724,1320,14240,260,299,2
480.78,1680,1364,14212,368,262,32
480.79,1636,1376,14044,475,263,29
480.8,1636,1360,14072,563,154,68
480.81,1712,1260,14044,755,228,87
480.82,1712,1252,14264,1136,375,35
480.83,1708,1388,14356,1382,466,-5
480.84,1604,1540,14344,1354,567,-53
480.85,1492,1480,14316,1199,497,-34
480.86,1424,1500,14104,1147,410,3
480.87,1684,1592,14140,1187,291,6
480.88,1656,1632,14400,1407,409,-36
480.89,1568,1636,14708,1228,641,41
480.9,1408,1812,13788,278,467,68
480.91,1700,1532,14232,318,247,91
480.92,1800,1588,14700,1929,579,-83
480.93,1496,1892,13844,1279,26,7
480.94,1680,1596,14136,1031,166,29
480.95,1576,1564,14156,2170,587,-52
480.96,1344,1928,13748,1099,-13,74
480.97,1692,1712,14048,667,71,129
480.98,1784,1672,14284,2048,566,-28
480.99,1568,1988,14764,2330,751,-124
481.0,1428,2084,14584,1678,475,-48
481.01,1552,2180,14464,1268,768,-63
481.02,1416,2068,14472,773,459,34
481.03,1576,2160,14224,924,451,0
481.04,1636,2208,14468,670,53,64
481.05,1556,2136,14192,662,351,22
481.06,1464,2068,13972,620,532,-28
481.07,1496,2016,13948,769,380,20
481.08,1500,2068,14052,1179,270,11
481.09,1560,2068,14156,1486,320,5
481.1,1496,2156,14408,1604,315,-1
481.11,1628,2156,14364,1504,374,0
481.12,1524,2372,14292,1337,522,-63
481.13,1556,2288,14292,1107,429,-48
481.14,1408,2388,14176,896,340,-27
481.15,1540,2292,14244,842,391,-44
481.16,1528,2476,14144,938,280,-9
481.17,1504,2400,14188,862,135,-26
481.18,1508,2416,14188,875,393,-10
481.19,1504,2488,14008,881,374,-13
481.2,1544,2352,14240,1024,245,8
481.21,1448,2552,14072,1208,367,26
481.22,1480,2420,14288,1369,315,-8
481.23,1384,2636,14152,1483,355,-72
481.24,1408,2704,14524,1527,631,-104
481.25,1320,2708,14152,1285,647,-72
481.26,1376,2756,13908,776,453,-32
481.27,1488,2760,14120,818,484,-74
481.28,1480,2716,14000,853,374,-75
481.29,1484,2660,14160,1098,393,-118
481.3,1284,2704,14160,1273,358,-122
481.31,1312,2804,14240,1107,302,-62
481.32,1496,2820,14160,994,297,-67
481.33,1440,2872,14096,897,215,-43
481.34,1444,2912,14224,809,302,-54
481.35,1380,2932,14180,884,209,-60
481.36,1592,2980,14164,1091,259,-102
481.37,1616,2980,14084,1194,301,-88
481.38,1388,2944,14100,1082,363,-100
481.39,1408,3000,14096,981,335,-81
481.4,1452,2972,14104,894,379,-109
481.41,1444,2980,14220,995,338,-87
481.42,1356,3080,14240,1005,384,-57
481.43,1488,3080,13960,889,294,-59
481.44,1436,3092,14096,943,346,-78
481.45,1440,3212,14080,1007,349,-82
481.46,1364,3128,14112,1060,356,-112
481.47,1432,3196,13944,1013,335,-103
481.48,1312,3240,14096,764,318,-84
481.49,1332,3320,14100,759,339,-89
481.5,1420,3196,14096,700,334,-82
481.51,1368,3316,13988,654,336,-67
481.52,1340,3280,14072,644,286,-41
481.53,1368,3316,14028,639,281,-39
481.54,1344,3320,13852,643,264,-77
481.55,1340,3340,14016,729,300,-65
481.56,1380,3368,13936,754,264,-66
481.57,1512,3420,14032,780,289,-66
481.58,1384,3388,14056,775,296,-37
481.59,1424,3440,14048,763,285,-49
481.6,1340,3404,14068,768,311,-60
481.61,1408,3396,14024,750,328,-84
481.62,1432,3488,14032,730,354,-108
481.63,1368,3556,14024,757,317,-83
481.64,1368,3600,13996,713,343,-88
481.65,1344,3624,14088,732,309,-72
481.66,1284,3564,14024,717,306,-37
481.67,1444,3696,13932,716,306,-76
481.68,1260,3644,13992,670,271,-97
481.69,1292,3584,13952,638,262,-61
481.7,1340,3584,13860,667,285,-76
481.71,1280,3660,14000,663,327,-70
481.72,1344,3672,13872,680,326,-70
481.73,1236,3808,13872,664,294,-71
481.74,1368,3680,13900,639,307,-50
481.75,1304,3792,13928,605,315,-73
481.76,1328,3804,14040,605,318,-65
481.77,1384,3776,13964,623,326,-72
481.78,1368,3776,14004,600,293,-73
481.79,1276,3960,13888,556,372,-103
481.8,1300,3808,13888,642,339,-75
481.81,1336,3892,13876,596,392,-79
481.82,1344,3880,13948,512,364,-52
481.83,1248,3912,13744,388,266,-38
481.84,1308,3852,13772,263,217,-40
481.85,1408,3848,13816,288,296,-54
481.86,1364,3872,14056,531,373,-68
481.87,1296,3912,14036,719,462,-116
481.88,1260,4044,14080,637,419,-85
481.89,1220,4048,13828,384,364,-77
481.9,1232,3936,13964,289,348,-67
481.91,1244,3844,13872,391,272,-71
481.92,1256,4024,14020,302,237,-45
481.93,1148,3952,13628,-467,279,82
481.94,1348,3804,13772,-594,28,58
481.95,1436,3844,14384,591,508,-108
481.96,1176,4180,14032,715,297,-135
481.97,1280,4024,13728,-53,57,5
481.98,1372,3988,13892,225,392,-27
481.99,1120,4012,13416,-444,71,60
482.0,1452,3732,13540,-455,40,116
482.01,1400,3912,13708,70,87,72
482.02,1436,4012,14124,297,-11,30
482.03,1352,4068,13936,285,-103,23
482.04,1256,4092,13996,107,-70,43
482.05,1252,4204,14160,41,-17,58
482.06,1280,4084,13960,111,115,34
482.07,1336,4084,14024,119,238,1
482.08,1300,4100,13896,130,285,-11
482.09,1432,4096,13812,93,220,-17
482.1,1268,4032,13740,192,289,-49
482.11,1360,3996,13772,346,227,-34
482.12,1296,4080,13904,472,195,-33
482.13,1388,4124,14080,481,219,-41
482.14,1320,4080,13852,273,223,-25
482.15,1332,4012,13952,241,223,-37
482.16,1356,4020,13888,191,288,-40
482.17,1260,4148,13972,134,309,-45
482.18,1300,4120,13920,63,304,-31
482.19,1304,4072,13744,5,301,-34
482.2,1164,4120,13880,12,261,-35
482.21,1364,4116,13908,-24,258,-28
482.22,1324,4060,14000,10,269,-27
482.23,1288,4132,13868,39,285,-26
482.24,1216,4192,13668,101,314,-36
482.25,1300,4108,13884,113,329,-34
482.26,1280,4208,13900,133,381,-75
482.27,1336,4284,13984,172,337,-59
482.28,1340,4268,13936,95,282,-67
482.29,1276,4120,14104,244,680,-117
482.3,1184,4200,13592,-429,171,32
482.31,1432,4136,13708,-338,354,-4
482.32,1324,4120,14004,156,397,-58
482.33,1256,4248,13948,-2,329,-42
482.34,1308,4224,13888,-135,265,-17
482.35,1256,4160,13788,-294,199,-19
482.36,1156,4276,13908,-219,222,-13
482.37,1248,4168,13808,-240,175,-29
482.38,1312,4156,13864,-272,203,-16
482.39,1284,4180,13944,-225,148,-14
482.4,1212,4256,13996,-235,208,-1
482.41,1248,4308,14004,-330,240,5
482.42,1280,4208,13908,-408,212,21
482.43,1284,4208,13888,-526,227,26
482.44,1176,4176,13884,-547,222,4
482.45,1332,4068,14044,-484,222,-2
482.46,1288,4108,13972,-594,260,18
482.47,1256,4228,13816,-790,197,54
482.48,1200,4096,13664,-850,183,44
482.49,1304,4084,13944,-813,185,52
482.5,1280,4124,13816,-849,176,65
482.51,1176,3984,13840,-871,197,78
482.52,1152,3984,13872,-924,142,57
482.53,1324,4000,13680,-1098,174,87
482.54,1368,4068,13780,-1167,182,76
482.55,1252,3952,13836,-1132,227,73
482.56,1268,3944,13952,-1052,212,82
482.57,1240,3892,13968,-1101,196,60
482.58,1280,3860,13864,-1150,162,62
482.59,1296,3808,13900,-1110,138,66
482.6,1268,3876,13916,-1069,168,99
482.61,1280,3940,14016,-1165,193,103
482.62,1272,3764,14140,-1260,180,109
482.63,1348,3816,13996,-1355,217,81
482.64,1284,3844,13888,-1468,162,95
482.65,1132,3776,13988,-1442,181,95
482.66,1300,3780,13844,-1454,155,112
482.67,1352,3632,13908,-1432,118,89
482.68,1340,3668,13980,-1412,189,102
482.69,1308,3676,14072,-1442,172,117
482.7,1416,3632,13980,-1534,198,99
482.71,1340,3612,13880,-1545,140,99
482.72,1192,3572,13992,-1523,106,114
482.73,1312,3504,14104,-1555,85,135
482.74,1340,3404,14020,-1564,133,114
482.75,1172,3468,13888,-1577,109,119
482.76,1304,3392,14044,-1601,107,161
482.77,1172,3328,14104,-1578,82,146
482.78,1228,3400,14112,-1617,112,115
482.79,1368,3308,14224,-1748,100,147
482.8,1304,3252,14256,-1845,90,141
482.81,1388,3208,13984,-1813,83,114
482.82,1320,3244,14192,-1829,-3,158
482.83,1356,3284,14024,-1803,12,152
482.84,1316,3116,14040,-1852,97,135
482.85,1312,3128,13992,-1894,88,136
482.86,1304,3072,14212,-1845,53,123
482.87,1280,3052,14040,-1921,34,143
482.88,1316,2928,14044,-1928,-7,182
482.89,1356,2952,14156,-1899,55,131
482.9,1320,2832,14268,-1820,62,63
482.91,1420,2840,14192,-1870,32,89
482.92,1416,2812,14144,-2087,12,93
482.93,1456,2840,14240,-1986,28,54
482.94,1460,2808,14224,-2108,38,33
482.95,1380,2748,14248,-2301,29,44
482.96,1356,2592,14128,-2258,-36,47
482.97,1428,2704,14128,-2230,-65,17
482.98,1284,2516,14080,-2311,-70,45
482.99,1424,2500,14208,-2111,-143,-4
483.0,1524,2408,14124,-1915,-123,22
483.01,1436,2464,14224,-1840,-76,4
483.02,1484,2296,14256,-1781,-115,36
483.03,1376,2276,14044,-1671,-92,-6
483.04,1448,2248,14104,-1745,-163,54
483.05,1464,2292,14092,-1727,-204,61
483.06,1524,2164,14168,-1543,-33,8
483.07,1556,2200,14440,-1038,164,-15
483.08,1428,2252,14336,-1091,82,-8
483.09,1540,2296,14376,-1296,39,10
483.1,1376,2132,14144,-1432,-19,13
483.11,1400,2072,13904,-1425,-177,37
483.12,1524,2092,14344,-1170,-114,29
483.13,1508,2100,14560,-1189,193,-37
483.14,1416,2264,13832,-2162,172,8
483.15,1484,1992,13876,-2723,-260,61
483.16,1576,1864,14908,-1432,201,-89
483.17,1488,1920,14208,-808,-229,-60
483.18,1380,1924,13732,-1993,-681,86
483.19,1700,1784,14512,-1292,131,-56
483.2,1364,1752,13792,-1645,-253,60
483.21,1376,1640,13704,-2021,-521,98
483.22,1736,1616,14112,-1051,-30,36
483.23,1628,1836,14836,-330,250,-75
483.24,1476,1944,14760,-444,315,-51
483.25,1500,1976,14388,-971,196,-24
483.26,1388,1848,14152,-1204,139,-24
483.27,1496,1712,14264,-1286,0,57
483.28,1492,1716,14236,-1238,-109,56
483.29,1604,1564,13972,-1119,-19,20
483.3,1668,1496,14000,-868,14,21
483.31,1576,1524,13912,-519,44,92
483.32,1572,1520,14012,-137,100,71
483.33,1656,1628,14172,385,104,46
483.34,1624,1496,14196,748,237,16
483.35,1560,1608,14428,990,275,10
483.36,1528,1640,14268,1033,322,39
483.37,1748,1764,14468,975,374,21
483.38,1616,1704,14272,944,426,34
483.39,1640,1772,14172,859,434,-9
483.4,1428,1840,14324,727,431,-25
483.41,1600,1732,14088,687,386,-16
483.42,1524,1740,14040,618,319,-33
483.43,1520,1792,14248,755,274,-3
483.44,1516,1872,14168,939,302,-24
483.45,1540,1896,14240,1173,336,-24
483.46,1552,1952,14144,1373,418,-19
483.47,1508,2016,14216,1555,459,-19
483.48,1452,2012,14236,1551,509,-63
483.49,1500,1936,14276,1435,430,-26
483.5,1536,2096,14316,1590,633,-10
483.51,1516,2028,13900,1190,309,45
483.52,1584,2008,14212,1151,372,13
483.53,1480,2044,14228,1476,271,-40
483.54,1548,2248,14280,1547,362,-76
483.55,1584,2256,14204,1743,524,-103
483.56,1488,2272,14156,1557,498,-76
483.57,1444,2304,14184,1369,434,-27
483.58,1580,2396,14284,1307,386,-48
483.59,1476,2396,14260,1256,421,-88
483.6,1552,2476,14176,1268,346,-76
483.61,1484,2392,14248,1375,430,-86
483.62,1508,2524,14256,1297,411,-82
483.63,1452,2508,14244,1109,432,-45
483.64,1476,2492,14236,909,467,-65
483.65,1464,2520,14136,786,362,-55
483.66,1460,2484,14256,882,381,-58
483.67,1480,2708,14244,896,375,-50
483.68,1488,2536,14016,838,349,-67
483.69,1428,2504,14068,979,418,-55
483.7,1460,2500,14128,1137,378,-56
483.71,1356,2576,14320,1265,361,-78
483.72,1324,2652,14160,1290,352,-55
483.73,1392,2772,14088,1200,357,-42
483.74,1488,2792,14196,1105,439,11
483.75,1448,2916,14324,1017,439,-73
483.76,1468,2912,14116,1007,420,-32
483.77,1400,2944,14096,973,413,-41
483.78,1384,2976,14200,941,413,-59
483.79,1468,3036,14288,898,392,-46
483.8,1388,2956,14212,882,354,-51
483.81,1344,2984,14104,922,397,-80
483.82,1380,2964,14204,929,321,-32
483.83,1332,3044,14084,861,359,-76
483.84,1348,2988,14032,891,341,-37
483.85,1464,2972,13948,891,340,-48
483.86,1344,3028,14036,919,375,-42
483.87,1424,3140,14048,812,341,-108
483.88,1372,3036,14076,895,349,-30
483.89,1376,3096,13984,856,385,-104
483.9,1340,3136,14104,934,375,-133
483.91,1440,3240,14112,908,343,-98
483.92,1424,3276,14248,898,410,-111
483.93,1420,3164,14060,947,336,-57
483.94,1428,3284,14168,858,334,-96
483.95,1376,3212,14036,851,295,-52
483.96,1364,3232,14000,821,296,-64
483.97,1256,3316,14068,798,321,-61
483.98,1372,3408,14100,802,323,-63
483.99,1288,3380,14052,823,350,-76
484.0,1396,3428,14152,765,365,-75
484.01,1368,3472,14008,658,340,-55
484.02,1344,3388,14112,673,325,-33
484.03,1412,3384,14128,684,377,-81
484.04,1312,3480,14084,711,348,-83
484.05,1340,3480,14044,682,355,-62
484.06,1288,3492,13812,568,351,-64
484.07,1280,3480,13984,515,259,-44
484.08,1300,3488,13804,423,226,-46
484.09,1316,3504,13872,538,240,-34
484.1,1416,3484,14184,750,358,-91
484.11,1356,3552,14168,969,391,-93
484.12,1348,3672,14084,882,348,-136
484.13,1236,3644,13936,679,309,-90
484.14,1176,3568,13956,550,281,-56
484.15,1252,3700,14072,656,235,-80
484.16,1272,3544,14104,680,200,-52
484.17,1076,3672,13776,36,364,47
484.18,1528,3644,13764,-348,-8,57
484.19,1612,3520,14556,814,475,-85
484.2,1332,3860,14220,1146,321,-131
484.21,1220,3736,13840,124,29,-37
484.22,1400,3584,14108,460,448,-84
484.23,1152,3712,13772,-136,69,61
484.24,1356,3500,13504,-437,-69,107
484.25,1544,3456,13780,206,69,33
484.26,1424,3692,14036,593,-39,-10
484.27,1416,3680,14256,734,-155,0
484.28,1236,3800,14196,609,-120,11
484.29,1332,3884,14012,430,-11,8
484.3,1304,3844,14000,427,104,8
484.31,1256,3844,13892,456,233,11
484.32,1404,3896,14092,404,278,-57
484.33,1384,3944,13816,370,274,-62
484.34,1276,3856,13648,334,316,-33
484.35,1292,3764,13836,370,307,-48
484.36,1260,3860,13820,617,278,-60
484.37,1364,3768,13896,702,207,-41
484.38,1404,3824,13980,616,215,-34
484.39,1356,3892,13920,509,240,-45
484.4,1404,3916,14052,410,246,-42
484.41,1348,3872,13880,377,278,-42
484.42,1352,3856,13820,300,313,-29
484.43,1316,3964,14044,293,309,-40
484.44,1340,3928,13840,249,284,-32
484.45,1284,3960,13912,228,283,-24
484.46,1268,3924,13908,207,297,-28
484.47,1224,3948,13968,232,259,-47
484.48,1284,4016,14028,265,285,-30
484.49,1280,3996,13836,262,333,-55
484.5,1212,4132,13932,357,342,-30
484.51,1288,4136,13964,361,354,-72
484.52,1196,4224,13852,361,319,-75
484.53,1292,4072,14096,436,428,-72
484.54,1192,4040,13888,336,599,-85
484.55,1220,4028,13508,-287,155,-3
484.56,1420,3972,13756,113,422,-55
484.57,1132,3968,13956,496,341,-78
484.58,1224,4040,13936,310,298,-80
484.59,1348,4108,13732,105,264,-43
484.6,1216,4112,13848,-12,197,11
484.61,1228,4112,13936,25,211,14
484.62,1248,4116,13916,128,153,21
484.63,1368,4100,13776,63,189,-18
484.64,1308,4048,13880,55,238,-27
484.65,1216,4188,13944,132,249,-23
484.66,1252,4148,13888,115,263,-30
484.67,1252,4184,13856,-2,280,-25
484.68,1228,4060,13800,-52,276,-15
484.69,1312,4148,13788,-33,247,-11
484.7,1256,4008,13872,54,235,-26
484.71,1280,4144,13908,61,280,-17
484.72,1284,4068,13912,-72,267,-12
484.73,1256,4112,13872,-90,285,-21
484.74,1196,4024,13728,-109,307,-18
484.75,1284,4124,13932,-110,266,-22
484.76,1384,4116,13860,-134,252,-44
484.77,1312,4072,14080,-181,233,11
484.78,1160,4188,13844,-214,245,-10
484.79,1260,4188,13920,-203,246,10
484.8,1396,4116,13944,-192,284,-13
484.81,1288,4048,13924,-149,269,-16
484.82,1140,4176,13900,-168,254,7
484.83,1236,4112,13832,-218,252,-12
484.84,1136,4176,14028,-198,250,-1
484.85,1260,4220,13876,-163,251,-32
484.86,1268,4156,13916,-261,261,2
484.87,1200,4120,13924,-319,250,-28
484.88,1200,4124,13908,-344,233,-16
484.89,1176,4104,13972,-397,237,-5
484.9,1212,4080,13960,-402,245,12
484.91,1292,4076,13968,-391,232,0
484.92,1276,4108,13988,-414,293,16
484.93,1208,4132,13792,-508,248,9
484.94,1224,4072,13936,-571,214,-9
484.95,1160,4168,13876,-621,226,6
484.96,1304,4088,13824,-679,211,20
484.97,1244,4052,13996,-718,218,19
484.98,1244,4032,13856,-742,167,32
484.99,1244,4028,14072,-793,165,46
485.0,1312,3972,13956,-778,223,42
485.01,1304,4060,14016,-851,196,54
485.02,1200,4032,13852,-977,151,55
485.03,1304,3916,13896,-1027,182,63
485.04,1188,3904,13896,-1005,203,45
485.05,1268,3996,13904,-1030,192,69
485.06,1248,3908,13980,-1110,235,70
485.07,1180,3872,13900,-1198,190,64
485.08,1216,3988,14064,-1256,216,93
485.09,1240,3836,13836,-1300,194,91
485.1,1204,3752,14080,-1386,151,85
485.11,1260,3896,14188,-1444,158,124
485.12,1228,3784,14124,-1501,198,111
485.13,1208,3800,13984,-1581,124,104
485.14,1268,3620,13924,-1683,119,152
485.15,1344,3660,13940,-1603,132,147
485.16,1292,3636,14072,-1621,97,142
485.17,1200,3680,13968,-1572,103,138
485.18,1248,3536,13916,-1604,68,128
485.19,1296,3572,14064,-1486,116,113
485.2,1372,3512,13924,-1561,47,152
485.21,1332,3484,13940,-1584,116,142
485.22,1256,3404,14088,-1489,128,105
485.23,1328,3440,14132,-1457,135,80
485.24,1272,3420,14032,-1493,189,111
485.25,1208,3384,14044,-1551,202,109
485.26,1260,3308,13988,-1877,0,138
485.27,1216,3196,13908,-1992,-76,165
485.28,1340,3164,14152,-1803,-24,155
485.29,1336,3216,14252,-1412,121,113
485.3,1224,3200,14336,-1283,150,51
485.31,1224,3132,14256,-1430,112,92
485.32,1232,3184,13964,-1638,34,120
485.33,1188,2952,13884,-1780,-115,152
485.34,1360,2924,14128,-1554,-147,168
485.35,1248,2912,14328,-1376,-47,135
485.36,1364,3128,13964,-2131,161,215
485.37,1332,2928,13500,-2660,-248,174
485.38,1556,2724,14548,-1575,100,53
485.39,1320,2876,14152,-748,-26,50
485.4,1260,2920,13604,-1960,-561,209
485.41,1424,2760,14136,-1305,91,47
485.42,1204,2712,13684,-1408,-162,171
485.43,1308,2604,13688,-2080,-410,238
485.44,1400,2452,14016,-1235,-48,103
485.45,1484,2696,14596,-448,44,31
485.46,1348,2792,14656,-677,60,22
485.47,1384,2800,14452,-1092,-20,67
485.48,1348,2724,14344,-1363,88,65
485.49,1280,2760,14372,-1491,47,117
485.5,1444,2748,14204,-1593,20,119
485.51,1336,2664,14264,-1688,34,76
485.52,1384,2468,14016,-1785,63,89
485.53,1392,2388,14028,-1768,53,54
485.54,1452,2252,13880,-1545,-63,59
485.55,1480,2312,13980,-1080,-57,42
485.56,1492,2352,14300,-794,-5,27
485.57,1440,2272,14448,-700,71,8
485.58,1484,2372,14252,-809,42,18
485.59,1488,2332,14252,-979,198,37
485.6,1456,2320,14232,-1014,116,37
485.61,1392,2360,14100,-1025,96,38
485.62,1524,2288,14256,-1095,47,21
485.63,1544,2312,14168,-1124,51,-16
485.64,1544,2260,14180,-1163,53,-6
485.65,1556,2232,14104,-1210,56,2
485.66,1536,2240,14152,-1124,55,36
485.67,1400,2212,14168,-993,103,-13
485.68,1412,2168,14208,-849,102,-12
485.69,1392,2244,14300,-687,151,-31
485.7,1420,2184,14320,-626,164,-7
485.71,1396,2268,14240,-716,166,-26
485.72,1496,2048,14204,-576,327,-43
485.73,1420,2132,14160,-769,266,-7
485.74,1476,2164,14060,-1134,109,37
485.75,1524,2052,13972,-1072,30,21
485.76,1524,2008,14180,-723,-40,-13
485.77,1532,2036,14476,-518,17,-38
485.78,1520,2044,14212,-568,56,-28
485.79,1588,2064,14240,-721,71,-13
485.8,1520,2032,14272,-749,-10,11
485.81,1572,1960,14380,-870,-23,-13
485.82,1560,2056,14312,-793,104,-41
485.83,1404,2084,14312,-714,84,-42
485.84,1508,1932,14348,-726,154,-30
485.85,1448,1912,14320,-694,157,-70
485.86,1476,1884,14184,-734,132,-29
485.87,1488,1824,14284,-695,123,-4
485.88,1448,1792,14172,-634,122,-19
485.89,1572,1776,14248,-526,149,6
485.9,1520,1840,14408,-466,106,-7
485.91,1560,1796,13972,-493,116,-7
485.92,1484,1788,14056,-410,105,8
485.93,1552,1736,14244,-105,163,16
485.94,1524,1852,14204,59,151,19
485.95,1460,1868,14328,99,196,14
485.96,1536,1792,14148,157,217,24
485.97,1484,1836,14112,241,245,49
485.98,1492,1924,14184,350,292,23
485.99,1532,1912,14248,442,323,24
486.0,1480,1980,14276,510,358,-18
486.01,1480,2032,14148,584,315,-23
486.02,1496,1968,14172,677,356,-26
486.03,1516,2056,14260,730,365,-41
486.04,1452,2116,14436,755,367,-6
486.05,1496,2000,14116,752,351,-22
486.06,1452,2104,14280,764,335,-26
486.07,1604,2072,14256,761,403,-55
486.08,1596,1984,14256,769,391,-60
486.09,1536,2076,14252,844,379,-17
486.1,1508,2112,14132,809,342,-29
486.11,1456,2060,14204,889,310,-26
486.12,1392,2096,14376,939,343,-37
486.13,1500,2224,14292,954,347,-44
486.14,1592,2128,14352,929,349,-42
486.15,1428,2144,14144,936,403,-44
486.16,1476,2224,14244,921,395,-58
486.17,1536,2180,14100,897,334,-45
486.18,1568,2292,14152,956,347,-31
486.19,1420,2312,14256,961,362,-30
486.2,1476,2344,14224,947,344,-33
486.21,1384,2324,14080,889,322,-26
486.22,1460,2492,14084,974,316,-16
486.23,1436,2472,14304,1047,329,-21
486.24,1484,2404,14164,1085,377,-25
486.25,1492,2460,14248,1077,399,-24
486.26,1452,2496,14084,1133,442,-55
486.27,1400,2476,14256,1236,486,-47
486.28,1420,2616,14128,1128,445,-53
486.29,1476,2584,14240,1084,502,-86
486.3,1452,2612,14248,1052,423,-71
486.31,1472,2688,14088,943,393,-29
486.32,1392,2612,14000,855,269,-33
486.33,1488,2640,14084,890,247,-5
486.34,1448,2592,14208,1131,387,-58
486.35,1400,2712,14280,1529,527,-100
486.36,1404,2828,14328,1516,512,-88
486.37,1364,2796,14160,1357,521,-72
486.38,1184,2824,14212,1248,498,-111
486.39,1384,2848,13880,1242,345,-92
486.4,1348,2724,14272,1259,402,-80
486.41,1316,2956,14208,873,598,2
486.42,1304,2924,13584,7,237,31
486.43,1632,2816,14544,825,519,-122
486.44,1496,3124,14520,1808,568,-181
486.45,1240,3144,14088,438,-28,3
486.46,1488,2932,14320,490,346,-102
486.47,1248,2996,13940,747,345,-40
486.48,1212,2992,13468,-358,-184,141
486.49,1508,2880,13756,178,45,36
486.5,1444,2944,13936,1088,145,-34
486.51,1408,3148,14288,1388,87,-89
486.52,1400,3168,14408,1272,99,-65
486.53,1432,3272,14360,1112,148,-36
486.54,1236,3300,14188,1024,237,-22
486.55,1316,3364,14196,948,302,-18
486.56,1352,3404,14020,902,342,-47
486.57,1420,3284,14032,760,353,-58
486.58,1336,3332,13836,677,359,-53
486.59,1292,3252,13944,844,293,-32
486.6,1340,3200,13924,1072,305,-89
486.61,1312,3208,13904,1229,262,-99
486.62,1420,3324,14096,1201,263,-91
486.63,1316,3376,14152,1202,261,-89
486.64,1296,3372,14192,1085,300,-50
486.65,1372,3440,14132,920,358,-75
486.66,1396,3544,14144,789,324,-83
486.67,1396,3528,13948,813,302,-75
486.68,1412,3588,14040,679,260,-81
486.69,1288,3464,14088,717,247,-46
486.7,1304,3548,13920,672,205,-47
486.71,1388,3536,13860,744,273,-67
486.72,1272,3488,14060,797,203,-62
486.73,1300,3508,13964,837,241,-61
486.74,1320,3664,13916,867,288,-78
486.75,1252,3728,13740,924,359,-67
486.76,1200,3732,14056,994,366,-65
486.77,1328,3796,14004,1001,307,-125
486.78,1248,3848,14080,1127,663,-119
486.79,1248,3800,13676,511,388,-44
486.8,1348,3684,13580,270,332,-47
486.81,1376,3744,13956,740,370,-130
486.82,1256,3824,14052,970,303,-132
486.83,1344,3872,13968,757,261,-87
486.84,1340,3840,13992,467,233,-49
486.85,1308,3804,13980,509,226,-27
486.86,1244,3940,13884,524,228,-36
486.87,1288,3876,13976,529,217,-48
486.88,1380,3896,13960,572,259,-72
486.89,1208,3972,13976,593,297,-59
486.9,1396,4072,14048,588,279,-46
486.91,1240,4004,13944,511,315,-58
486.92,1212,4004,13932,385,359,-59
486.93,1216,3932,13832,345,311,-15
486.94,1312,3900,14044,422,345,-75
486.95,1252,3836,14048,430,354,-55
486.96,1300,4020,13820,320,283,-41
486.97,1296,3940,13792,306,261,-38
486.98,1280,4012,13928,364,303,-53
486.99,1372,3944,13972,414,330,-67
487.0,1296,4024,13972,403,299,-68
487.01,1276,4036,13944,358,303,-49
487.02,1204,4172,13988,277,327,-61
487.03,1228,4024,13804,245,305,-37
487.04,1224,4064,13888,223,298,7
487.05,1236,4188,13920,256,299,-57
487.06,1184,4180,13948,273,309,-64
487.07,1144,4220,13948,194,302,-45
487.08,1284,4136,13852,191,328,-72
487.09,1236,4140,13940,179,316,-43
487.1,1216,4084,13880,132,300,-41
487.11,1228,4180,13936,113,308,-51
487.12,1280,4200,13816,32,281,-27
487.13,1220,4072,13860,44,274,-44
487.14,1224,4136,13828,22,274,-34
487.15,1132,4064,13884,8,269,-24
487.16,1244,4096,13784,14,279,-48
487.17,1296,4180,13880,16,300,-54
487.18,1344,4084,13896,-31,350,-44
487.19,1300,4188,13976,-39,293,-24
487.2,1216,4204,13908,-82,318,-47
487.21,1304,4156,13896,-135,308,-33
487.22,1280,4196,13932,-208,258,-19
487.23,1172,4164,13832,-245,243,-25
487.24,1180,4240,14132,-259,232,-7
487.25,1216,4064,13880,-264,261,-24
487.26,1268,4124,13936,-310,199,-12
487.27,1236,4112,13784,-290,266,-26
487.28,1204,4124,13952,-344,217,-17
487.29,1140,4064,13788,-365,285,-3
487.3,1244,4144,14064,-340,315,1
487.31,1240,4108,13708,-390,304,-10
487.32,1160,4000,13956,-478,264,-15
487.33,1216,4184,13920,-512,220,-16
487.34,1180,4100,13960,-535,229,-2
487.35,1168,4172,13788,-635,213,8
487.36,1300,4108,14044,-654,229,26
487.37,1228,4104,13928,-719,222,70
487.38,1228,4144,13892,-800,255,25
487.39,1204,4176,13960,-873,252,18
487.4,1256,4064,13684,-919,234,14
487.41,1168,4036,13884,-1018,224,38
487.42,1136,4020,13832,-1089,222,58
487.43,1168,3984,13888,-1136,147,25
487.44,1192,3996,13900,-1221,176,53
487.45,1240,3980,13964,-1287,185,88
487.46,1196,3928,13968,-1362,200,82
487.47,1252,3960,13852,-1550,163,111
487.48,1100,3896,13892,-1714,39,114
487.49,1184,3740,13940,-1789,10,122
487.5,1156,3772,13744,-1657,26,117
487.51,1244,3676,14092,-1415,148,95
487.52,1232,3728,14196,-1187,251,48
487.53,1216,3688,14144,-1245,201,64
487.54,1172,3676,13988,-1353,171,101
487.55,1128,3608,13684,-1467,106,120
487.56,1232,3576,13848,-1401,-30,107
487.57,1140,3512,14268,-1300,19,143
487.58,1068,3640,13888,-1778,263,204
487.59,1304,3516,13524,-2368,-140,222
487.6,1348,3396,14592,-1269,286,77
487.61,1256,3652,14192,-731,109,71
487.62,1252,3412,13724,-1996,-348,198
487.63,1376,3204,14136,-1363,171,122
487.64,1136,3288,13468,-2036,-337,301
487.65,1376,3028,13556,-2077,-319,274
487.66,1440,3132,14096,-914,-91,162
487.67,1308,3316,14328,-497,-117,83
487.68,1268,3356,14704,-823,-104,97
487.69,1164,3320,14296,-1101,11,117
487.7,1192,3316,14260,-1236,-15,139
487.71,1344,3316,14116,-1365,-26,157
487.72,1360,3168,14160,-1464,43,163
487.73,1420,3088,14080,-1550,93,160
487.74,1356,3036,13884,-1709,94,118
487.75,1272,2892,13724,-1598,67,105
487.76,1312,2904,13896,-1309,-11,80
487.77,1396,2904,14060,-920,73,71
487.78,1268,2868,14248,-810,54,59
487.79,1392,2880,14308,-800,69,36
487.8,1376,2944,14192,-841,88,57
487.81,1368,2940,14048,-973,136,62
487.82,1408,2920,14004,-1164,112,82
487.83,1400,2884,14136,-1253,35,93
487.84,1420,2932,14140,-1306,42,83
487.85,1452,2840,14128,-1325,-18,108
487.86,1476,2732,14120,-1301,9,82
487.87,1432,2748,14112,-1219,61,64
487.88,1416,2780,14060,-1206,85,45
487.89,1392,2740,13956,-1111,88,49
487.9,1368,2780,14232,-931,111,38
487.91,1332,2796,14152,-824,167,10
487.92,1240,2724,14416,-720,175,31
487.93,1392,2864,14168,-875,189,-2
487.94,1344,2600,14404,-762,340,-39
487.95,1316,2756,13948,-1028,232,52
487.96,1332,2632,14020,-1552,79,69
487.97,1332,2476,13888,-1440,-45,29
487.98,1340,2516,14276,-838,-37,-49
487.99,1500,2644,14296,-661,-19,-7
488.0,1476,2660,14212,-1010,17,14
488.01,1364,2512,14192,-1128,23,42
488.02,1360,2532,14264,-1085,8,16
488.03,1580,2532,14168,-1151,-28,-6
488.04,1468,2556,14204,-1196,35,-1
488.05,1456,2536,14308,-1172,123,-56
488.06,1500,2388,14292,-1157,71,-45
488.07,1492,2316,14228,-1149,92,-25
488.08,1480,2268,14196,-1168,21,-2
488.09,1332,2376,14168,-1235,154,20
488.1,1424,2288,14216,-1184,108,-14
488.11,1440,2288,14248,-1118,72,-26
488.12,1520,2168,14152,-1083,-38,27
488.13,1496,2220,14184,-1015,-41,10
488.14,1408,2120,14332,-920,24,5
488.15,1560,2156,14252,-806,54,-5
488.16,1372,2164,14124,-761,55,3
488.17,1472,2212,14104,-801,1,15
488.18,1512,2180,14140,-879,83,43
488.19,1508,2152,14056,-865,83,46
488.2,1476,2128,14148,-796,113,22
488.21,1552,2168,14196,-758,127,14
488.22,1476,2096,14192,-661,136,8
488.23,1500,2068,14264,-629,86,22
488.24,1596,2096,14160,-466,106,31
488.25,1540,2064,14268,-390,126,12
488.26,1560,1992,14084,-252,157,14
488.27,1540,2040,14256,-134,155,41
488.28,1452,2000,14196,-11,195,29
488.29,1516,2064,14128,109,211,20
488.3,1496,2108,14088,303,263,7
488.31,1496,2068,14088,360,308,-12
488.32,1548,1972,14300,495,283,-29
488.33,1600,2056,14008,564,313,-18
488.34,1484,2156,14040,610,291,-24
488.35,1488,2112,14236,827,315,-31
488.36,1408,2100,14312,914,353,-31
488.37,1512,2256,14240,950,395,-56
488.38,1404,2168,14128,1003,366,-51
488.39,1524,2240,14068,969,341,-37
488.4,1404,2220,14280,1061,403,-36
488.41,1452,2388,14296,1194,404,-67
488.42,1476,2252,14080,1168,408,-49
488.43,1496,2340,14180,1074,408,-35
488.44,1508,2344,14108,1160,394,-22
488.45,1552,2428,14096,1246,411,-45
488.46,1480,2508,14156,1269,391,-71
488.47,1420,2444,14144,1361,438,-73
488.48,1476,2532,14080,1438,520,-62
488.49,1516,2612,14320,1379,489,-71
488.5,1392,2520,14208,1353,520,-81
488.51,1524,2640,14052,1331,442,-98
488.52,1464,2684,14264,1360,505,-70
488.53,1384,2704,14324,1341,514,-86
488.54,1332,2688,14188,1317,465,-82
488.55,1432,2780,14220,1345,480,-67
488.56,1348,2832,14088,1226,463,-89
488.57,1436,2932,14128,1175,411,-89
488.58,1476,2716,13960,1136,377,-65
488.59,1388,2840,13980,1305,473,-84
488.6,1392,2944,14240,1588,508,-126
488.61,1404,3040,14284,1717,569,-125
488.62,1344,3108,14280,1730,541,-124
488.63,1328,2980,14220,1561,527,-162
488.64,1292,3084,13996,1284,477,-147
488.65,1292,3092,14152,1394,371,-92
488.66,1304,3196,14192,1441,396,-104
488.67,1292,3200,14116,1165,534,-27
488.68,1176,3180,13568,199,324,-2
488.69,1544,3132,14448,844,436,-96
488.7,1368,3208,14428,1968,505,-203
488.71,1256,3444,13852,823,103,-45
488.72,1388,3288,14464,957,504,-134
488.73,1040,3372,13712,590,261,-1
488.74,1276,3264,13432,-227,-51,90
488.75,1372,3060,13840,667,203,-3
488.76,1372,3216,13984,1316,87,-73
488.77,1412,3348,14392,1624,31,-110
488.78,1348,3440,14220,1478,109,-96
488.79,1328,3544,14256,1360,229,-60
488.8,1120,3616,14080,1252,267,-84
488.81,1280,3708,14200,1128,247,-67
488.82,1360,3652,14112,974,374,-72
488.83,1164,3640,13860,854,440,-68
488.84,1204,3560,13876,790,472,-80
488.85,1372,3576,13896,895,393,-84
488.86,1364,3604,13736,1074,319,-127
488.87,1244,3580,14020,1094,308,-103
488.88,1440,3752,14104,1158,271,-111
488.89,1236,3760,13988,1007,281,-93
488.9,1368,3740,14044,877,312,-66
488.91,1296,3780,14012,763,328,-85
488.92,1332,3736,13968,657,341,-66
488.93,1236,3864,13912,610,344,-54
488.94,1260,3640,14032,514,314,-61
488.95,1212,3812,13916,520,272,-79
488.96,1052,3820,13968,490,308,-80
488.97,1228,3876,13988,507,280,-56
488.98,1352,3880,14076,491,312,-53
488.99,1324,3836,13968,553,329,-69
489.0,1268,3972,13908,610,375,-64
489.01,1208,3968,13972,668,347,-103
489.02,1232,4056,13848,683,278,-98
489.03,1236,3956,14332,864,505,-119
489.04,1168,4052,13860,732,566,-100
489.05,1184,4128,13536,130,355,-22
489.06,1280,3908,13736,80,327,-25
489.07,1160,3960,14032,535,369,-102
489.08,1092,4024,13992,645,301,-98
489.09,1220,3984,13848,414,272,-66
489.1,1268,4064,13968,255,241,-22
489.11,1164,4048,13936,326,197,-38
489.12,1204,4080,13888,213,150,-3
489.13,1308,4172,13868,256,223,-21
489.14,1248,4100,13860,308,234,-47
489.15,1144,4188,14072,429,263,-76
489.16,1184,4180,13916,401,280,-59
489.17,1092,4152,13896,289,303,-62
489.18,1204,4136,13848,187,301,-43
489.19,1148,4136,13948,279,295,-47
489.2,1236,4180,13856,295,296,-33
489.21,1124,4204,13884,198,253,-52
489.22,1160,4208,13840,125,237,-10
489.23,1152,4056,13692,178,307,-51
489.24,1120,4156,13972,205,286,-45
489.25,1100,4204,13952,205,332,-48
489.26,1160,4220,13888,158,283,-51
489.27,1176,4108,13816,148,291,-33
489.28,1196,4160,13764,85,287,-4
489.29,1276,4284,13864,100,282,-18
489.3,1216,4308,13844,103,287,-38
489.31,1144,4284,13896,132,330,7
489.32,1100,4272,13800,62,274,7
489.33,1236,4248,13852,61,265,-30
489.34,1176,4280,13852,165,293,-49
489.35,1152,4184,13908,122,333,-37
489.36,1120,4180,13788,56,261,-45
489.37,1172,4324,13816,31,280,-28
489.38,1204,4312,13780,0,260,-26
489.39,1244,4244,13836,16,267,-38
489.4,1184,4256,13928,24,305,-40
489.41,1068,4244,13744,10,304,-56
489.42,1216,4256,13956,1,314,-16
489.43,1168,4200,13736,-6,301,-55
489.44,1152,4244,13864,3,285,-14
489.45,1184,4208,13864,8,293,-58
489.46,1064,4228,13816,-13,268,-51
489.47,1084,4232,13784,-45,292,-19
489.48,1192,4328,13944,-120,205,-43
489.49,1180,4372,14016,-129,250,-20
489.5,1152,4320,13860,-146,242,21
489.51,1164,4252,13816,-158,266,-2
489.52,1116,4208,13816,-162,251,-25
489.53,1108,4356,13892,-196,283,-11
489.54,1076,4224,13868,-196,258,-21
489.55,1180,4260,13772,-210,265,-13
489.56,1160,4344,13896,-215,265,5
489.57,1216,4240,13888,-212,218,-16
489.58,1180,4288,13864,-226,245,6
489.59,1240,4280,13776,-197,241,3
489.6,1144,4304,13840,-236,225,-12
489.61,1172,4324,13728,-230,260,-11
489.62,1156,4256,13864,-190,259,-39
489.63,1132,4236,13764,-232,272,2
489.64,1096,4204,13920,-241,268,-3
489.65,1008,4188,13884,-242,279,-18
489.66,1100,4280,13864,-224,255,12
489.67,1200,4308,13752,-233,228,-9
489.68,1128,4220,13720,-279,228,2
489.69,1208,4228,13924,-294,225,-15
489.7,1104,4208,13884,-300,269,0
489.71,1156,4268,13880,-335,292,-39
489.72,1208,4380,13752,-386,268,-29
489.73,1096,4204,13864,-531,224,17
489.74,1100,4212,13768,-673,157,30
489.75,1036,4168,13656,-743,130,42
489.76,1184,4228,13884,-661,234,15
489.77,1108,4232,14080,-498,318,-38
489.78,1156,4208,13988,-524,318,-47
489.79,1020,4160,13988,-722,304,-31
489.8,1052,4200,13836,-888,195,14
489.81,1068,4184,13932,-1038,118,35
489.82,1152,4028,13864,-953,12,75
489.83,1056,4028,14004,-1054,57,116
489.84,1088,4132,13428,-1678,141,185
489.85,1340,3928,13872,-1615,5,136
489.86,1256,4116,14584,-430,414,8
489.87,952,4208,14092,-632,39,52
489.88,1104,3972,13892,-1441,-157,118
489.89,1148,3944,14068,-1040,219,76
489.9,1112,3892,13356,-1927,-147,234
489.91,1272,3612,13408,-2049,-341,260
489.92,1276,3744,13900,-1126,-220,210
489.93,1204,3840,14132,-811,-255,126
489.94,1136,3984,14296,-870,-207,123
489.95,1120,3960,14284,-1009,-168,141
489.96,1144,3896,13884,-1141,-32,142
489.97,1204,3796,14104,-1147,-6,140
489.98,1256,3896,14028,-1161,5,131
489.99,1264,3824,13928,-1292,157,111
490.0,1188,3692,13836,-1355,148,112
490.01,1164,3552,13824,-1382,91,108
490.02,1196,3544,13868,-1185,25,116
490.03,1252,3528,13904,-1021,23,118
490.04,1296,3548,14084,-976,88,83
490.05,1276,3492,14104,-982,78,77
490.06,1224,3548,14120,-1089,53,116
490.07,1216,3524,14000,-1209,114,112
490.08,1240,3512,14068,-1286,145,138
490.09,1268,3580,13976,-1351,91,148
490.1,1252,3476,14068,-1327,37,146
490.11,1328,3412,13848,-1392,36,110
490.12,1260,3488,14032,-1388,46,142
490.13,1292,3328,14040,-1249,133,85
490.14,1284,3344,14172,-1314,101,98
490.15,1280,3264,14096,-1288,99,101
490.16,1184,3284,14052,-1226,71,116
490.17,1208,3236,14024,-1111,115,79
490.18,1276,3404,14016,-932,157,86
490.19,1396,3276,14032,-948,182,47
490.2,1232,3140,14256,-742,373,-8
490.21,1324,3264,14008,-1067,286,89
490.22,1244,3140,13720,-1697,53,161
490.23,1340,3004,13936,-1474,-28,109
490.24,1364,3164,14072,-798,15,29
490.25,1508,3060,14104,-827,3,38
490.26,1296,3084,14124,-1051,12,73
490.27,1292,3092,14124,-1191,1,115
490.28,1376,3120,14028,-1149,-86,99
490.29,1228,3052,14164,-1167,-41,105
490.3,1472,3008,14084,-1091,-29,51
490.31,1312,3000,14320,-1024,39,50
490.32,1328,3080,14172,-1152,122,5
490.33,1308,2972,14176,-1130,113,31
490.34,1396,2948,14200,-1225,86,69
490.35,1416,2908,13992,-1381,64,70
490.36,1268,2792,14156,-1500,-5,79
490.37,1280,2808,14160,-1382,-41,70
490.38,1404,2692,14152,-1287,-38,68
490.39,1356,2868,14168,-1270,-51,39
490.4,1388,2732,14268,-1361,-20,72
490.41,1376,2788,14080,-1486,9,43
490.42,1296,2676,14260,-1356,46,25
490.43,1344,2676,14120,-1057,74,22
490.44,1376,2688,14116,-1246,-117,83
490.45,1372,2668,14060,-1217,71,42
490.46,1320,2580,14068,-1238,66,38
490.47,1380,2708,14164,-1260,45,35
490.48,1412,2604,14096,-1319,38,61
490.49,1428,2640,13996,-1274,-5,39
490.5,1468,2492,14204,-1227,-6,50
490.51,1372,2496,14176,-1194,51,24
490.52,1304,2408,14348,-1090,12,34
490.53,1348,2372,14100,-1091,31,64
490.54,1416,2372,14296,-1086,30,18
490.55,1380,2396,14152,-987,60,16
490.56,1392,2328,14224,-1008,148,-9
490.57,1372,2388,14180,-1017,154,-19
490.58,1256,2376,14180,-1041,52,-18
490.59,1440,2300,14140,-1101,56,36
490.6,1516,2276,14148,-1044,73,3
490.61,1528,2400,14284,-1057,71,-3
490.62,1456,2172,14244,-1101,52,-11
490.63,1568,2240,14276,-1078,73,0
490.64,1332,2248,14100,-1100,35,-8
490.65,1444,2156,14144,-1132,25,-18
490.66,1436,2096,14344,-1060,33,29
490.67,1460,2120,14352,-985,3,26
490.68,1440,2144,14224,-914,72,-1
490.69,1500,2152,14164,-936,-17,32
490.7,1600,2080,14384,-852,17,25
490.71,1588,2100,14200,-783,83,30
490.72,1572,2068,14212,-833,125,-5
490.73,1340,2080,14164,-780,113,-11
490.74,1372,2084,14168,-727,107,10
490.75,1636,2056,14340,-701,117,11
490.76,1356,2016,14096,-621,89,22
490.77,1572,1984,14268,-602,90,18
490.78,1568,2040,14196,-584,110,38
490.79,1452,2028,14160,-488,69,35
490.8,1580,2000,14072,-369,144,15
490.81,1640,2052,14188,-367,139,17
490.82,1436,2020,14204,-329,137,42
490.83,1532,2000,14312,-201,164,31
490.84,1516,2028,14248,-201,157,4
490.85,1404,1880,14092,-193,146,13
490.86,1572,1864,14028,-150,134,8
490.87,1484,1832,14196,45,208,38
490.88,1660,1928,14396,370,336,-13
490.89,1528,1996,14384,542,374,-60
490.9,1512,2012,14344,488,353,-52
490.91,1464,2052,14296,351,268,-29
490.92,1452,2052,14036,274,187,-6
490.93,1520,1912,14228,486,191,4
490.94,1528,2024,14548,686,383,-43
490.95,1392,2224,14356,241,512,33
490.96,1340,2204,13808,-588,309,87
490.97,1656,1896,14384,53,265,17
490.98,1556,2112,14460,1241,391,-116
490.99,1444,2212,13896,320,-122,9
491.0,1684,1844,14268,671,249,-34
491.01,1596,2144,14216,1146,424,-54
491.02,1416,2224,13616,26,-70,103
491.03,1604,1924,13768,102,115,123
491.04,1572,2080,14344,1170,438,-3
491.05,1560,2192,14532,1387,416,-44
491.06,1596,2304,14580,1413,470,-69
491.07,1440,2536,14420,908,423,-17
491.08,1428,2472,14324,759,462,4
491.09,1420,2460,14220,719,356,38
491.1,1520,2428,14264,736,198,-23
491.11,1432,2304,14232,681,292,-3
491.12,1448,2400,14040,631,353,-8
491.13,1496,2388,13988,739,402,4
491.14,1380,2316,14060,856,363,-3
491.15,1328,2296,14172,1095,369,-32
491.16,1388,2484,14220,1133,268,-44
491.17,1504,2440,14300,1119,321,-79
491.18,1424,2572,14292,1158,348,-48
491.19,1476,2508,14216,1039,385,-55
491.2,1408,2568,14284,1031,372,-73
491.21,1408,2540,14160,994,426,-76
491.22,1320,2576,14048,940,413,-29
491.23,1400,2560,14120,849,367,-81
491.24,1392,2668,14232,842,394,-49
491.25,1436,2688,14004,733,334,-49
491.26,1452,2664,14156,766,383,-34
491.27,1416,2832,14012,990,403,-40
491.28,1396,2816,14244,1080,443,-85
491.29,1432,2904,14256,1158,454,-98
491.3,1476,2844,14268,1066,368,-81
491.31,1268,2908,14148,1184,691,-90
491.32,1232,2840,13900,654,412,-25
491.33,1412,2840,14112,715,492,-64
491.34,1348,2792,14120,1003,435,-73
491.35,1424,2852,13908,867,161,-91
491.36,1452,2924,14240,1143,408,-127
491.37,1360,3024,14148,1140,360,-74
491.38,1332,3116,14296,946,324,-41
491.39,1344,3076,14084,821,249,-53
491.4,1416,3088,14068,715,198,-30
491.41,1468,3164,14052,790,284,-102
491.42,1352,3100,14096,948,323,-85
491.43,1372,3268,13972,1048,350,-98
491.44,1448,3056,14076,1056,422,-95
491.45,1448,3112,14140,926,468,-122
491.46,1328,3204,14072,863,391,-103
491.47,1360,3112,14124,974,363,-86
491.48,1380,3112,13944,923,365,-61
491.49,1352,3268,13988,727,303,-54
491.5,1332,3192,13904,756,352,-89
491.51,1324,3200,14072,941,435,-126
491.52,1236,3268,14052,948,383,-118
491.53,1296,3424,14056,915,378,-116
491.54,1252,3460,14056,855,344,-104
491.55,1216,3404,14068,713,333,-82
491.56,1328,3428,13964,686,395,-78
491.57,1272,3460,14020,649,365,-49
491.58,1216,3412,14016,640,335,-37
491.59,1236,3536,13980,609,319,-60
491.6,1268,3532,14212,701,265,-60
491.61,1312,3512,14040,669,302,-74
491.62,1280,3520,14060,754,296,-52
491.63,1312,3488,14044,754,357,-81
491.64,1260,3536,14004,731,323,-89
491.65,1308,3556,14008,660,349,-81
491.66,1188,3472,14004,647,381,-104
491.67,1268,3504,14120,666,331,-80
491.68,1072,3648,14064,658,388,-94
491.69,1196,3560,14072,685,330,-62
491.7,1260,3612,13872,687,349,-69
491.71,1284,3700,13892,691,338,-81
491.72,1216,3764,13968,655,346,-88
491.73,1132,3720,13940,684,326,-77
491.74,1200,3828,13856,643,352,-92
491.75,1292,3696,13948,634,306,-69
491.76,1332,3748,13844,638,279,-80
491.77,1188,3844,14052,606,305,-64
491.78,1160,3864,13932,613,311,-54
491.79,1360,3712,14076,547,313,-79
491.8,1192,3724,13920,565,328,-43
491.81,1180,3836,13860,535,340,-49
491.82,1204,3848,13852,513,307,-55
491.83,1316,3836,13952,510,360,-40
491.84,1216,3888,13876,473,329,-54
491.85,1300,3940,13892,469,328,-65
491.86,1176,3848,13872,457,343,-50
491.87,1324,3940,13936,413,317,-68
491.88,1300,3912,13800,430,325,-47
491.89,1160,3872,13916,416,320,-46
491.9,1248,3960,13916,419,320,-43
491.91,1240,3932,13884,452,349,-86
491.92,1200,4028,13968,452,375,-83
491.93,1112,3984,13936,379,319,-50
491.94,1176,3944,13936,239,310,-51
491.95,1196,3952,13732,166,223,-66
491.96,1296,3884,13784,144,262,-42
491.97,1184,4028,13864,378,353,-71
491.98,1256,4204,14040,566,427,-78
491.99,1100,4092,14048,495,400,-76
492.0,1196,4140,13936,304,370,-67
492.01,1108,4044,13732,108,323,-47
492.02,1132,4076,13940,124,260,-70
492.03,1196,4012,14056,231,229,-53
492.04,1100,4196,13856,-182,320,58
492.05,1124,4024,13420,-733,102,85
492.06,1416,3972,14184,278,426,-60
492.07,1132,4300,14184,879,432,-150
492.08,1060,4196,13848,-82,10,-21
492.09,1308,4112,14068,115,331,-31
492.1,1088,4220,13676,-319,204,34
492.11,1160,3888,13456,-652,-63,137
492.12,1348,3888,13472,-116,95,58
492.13,1320,4016,13884,176,102,35
492.14,1276,4104,14060,349,-57,37
492.15,1196,4176,14160,270,-105,18
492.16,1152,4236,13964,152,17,26
492.17,1176,4180,14060,111,56,5
492.18,1192,4220,14020,86,92,3
492.19,1200,4268,13912,126,247,9
492.2,1196,4208,13856,115,312,-27
492.21,1068,4228,13632,72,375,-39
492.22,1052,4160,13684,210,334,-31
492.23,1104,4144,13836,330,266,-23
492.24,1248,4160,14020,384,272,-31
492.25,1132,4252,14084,343,235,-49
492.26,1168,4148,14132,222,243,-30
492.27,1232,4172,13896,113,229,-20
492.28,1104,4192,13828,-13,251,-12
492.29,1056,4192,13852,-80,266,7
492.3,1184,4212,13904,-119,260,3
492.31,1164,4252,14000,-178,233,-11
492.32,1044,4212,13888,-186,255,23
492.33,1096,4192,13936,-155,299,-19
492.34,1224,4216,13840,-207,268,-14
492.35,1192,4248,13864,-216,278,13
492.36,1108,4200,13828,-180,291,-18
492.37,1112,4284,13752,-180,297,-14
492.38,1184,4196,13708,-155,314,-18
492.39,1188,4260,13784,-161,285,-2
492.4,1212,4216,13920,-252,167,-26
492.41,1200,4240,14148,-55,601,-27
492.42,996,4220,13560,-861,147,57
492.43,1220,4100,13872,-853,240,45
492.44,1180,4136,13912,-280,268,-6
492.45,1068,4272,13892,-413,160,-1
492.46,1212,4204,14024,-583,181,10
492.47,1088,4184,13908,-759,180,36
492.48,1172,4136,13876,-873,137,72
492.49,1192,4044,13988,-898,106,51
492.5,1216,4068,13992,-976,121,62
492.51,1252,4192,13928,-1115,150,51
492.52,1164,4156,13864,-1258,105,81
492.53,1160,4060,14004,-1333,84,92
492.54,1252,4048,13796,-1463,1,120
492.55,1228,4028,13972,-1415,46,124
492.56,1108,3924,13880,-1430,31,103
492.57,1228,3976,14084,-1353,61,106
492.58,1132,3920,13880,-1319,75,80
492.59,1108,3864,14024,-1296,152,123
492.6,1100,3936,13828,-1456,78,105
492.61,1204,3720,13768,-1486,58,110
492.62,1172,3696,14052,-1367,69,114
492.63,1100,3676,14028,-1347,59,99
492.64,1200,3800,14028,-1357,45,86
492.65,1196,3716,13840,-1432,38,129
492.66,1240,3716,14140,-1478,166,113
492.67,1224,3608,14032,-1381,100,100
492.68,1140,3648,13968,-1401,110,85
492.69,1156,3616,13952,-1384,106,113
492.7,1248,3476,14076,-1372,85,105
492.71,1124,3548,14040,-1322,119,92
492.72,1212,3464,14032,-1317,129,114
492.73,1224,3496,14016,-1355,91,128
492.74,1248,3524,14148,-1317,21,106
492.75,1240,3300,13960,-1255,7,123
492.76,1288,3396,13972,-1266,-9,123
492.77,1268,3320,14008,-1173,60,127
492.78,1264,3308,14120,-1101,86,79
492.79,1224,3276,14052,-1130,117,42
492.8,1268,3352,14120,-1103,108,67
492.81,1172,3356,14156,-1073,120,19
492.82,1324,3232,14208,-1131,88,51
492.83,1224,3228,14116,-1086,31,69
492.84,1240,3196,14068,-1107,-7,72
492.85,1360,3192,14080,-1135,53,69
492.86,1292,3152,13968,-1182,78,67
492.87,1448,3268,14148,-1064,83,42
492.88,1232,3032,14220,-1025,131,53
492.89,1264,3068,13936,-1074,105,59
492.9,1244,3052,13972,-1092,99,64
492.91,1256,3052,14072,-1043,92,46
492.92,1332,3156,13948,-1056,79,38
492.93,1268,3080,14068,-1110,63,66
492.94,1284,2940,14152,-1073,19,65
492.95,1252,3008,14100,-1032,18,77
492.96,1464,3000,14092,-966,98,50
492.97,1340,3036,14148,-1029,82,61
492.98,1384,2932,14068,-1075,73,65
492.99,1280,2896,14032,-928,86,70
493.0,1216,2944,14052,-857,52,41
493.01,1360,2896,14064,-795,69,54
493.02,1280,2832,14268,-807,142,43
493.03,1412,2876,14244,-808,165,7
493.04,1244,2812,14116,-882,159,31
493.05,1424,2836,14052,-1024,100,28
493.06,1400,2804,14088,-1010,90,18
493.07,1368,2812,14148,-957,36,51
493.08,1408,2764,14156,-901,74,29
493.09,1404,2816,14292,-870,120,-4
493.1,1272,2820,14184,-937,106,11
493.11,1332,2704,14064,-1092,5,36
493.12,1292,2736,14020,-1090,20,34
493.13,1376,2624,13880,-1112,-16,62
493.14,1364,2564,14332,-853,82,9
493.15,1444,2768,14364,-546,123,-5
493.16,1372,2744,14336,-589,132,-22
493.17,1280,2608,14200,-685,107,11
493.18,1320,2628,14024,-804,21,8
493.19,1316,2624,13928,-760,-46,56
493.2,1404,2584,14252,-467,73,30
493.21,1428,2636,14216,-462,182,51
493.22,1352,2620,13884,-1049,234,78
493.23,1400,2480,13528,-1524,-130,140
493.24,1556,2296,14552,-85,321,-15
493.25,1324,2704,14140,512,-6,-33
493.26,1536,2556,13640,-746,-371,116
493.27,1652,2400,14320,384,347,-72
493.28,1312,2572,13868,6,95,70
493.29,1392,2304,13560,-728,-304,183
493.3,1452,2392,13972,381,204,71
493.31,1576,2532,14128,957,359,-57
493.32,1528,2700,14496,1200,345,-75
493.33,1452,2724,14284,1227,296,-41
493.34,1324,2728,14184,943,394,-16
493.35,1336,2656,14152,1013,429,-17
493.36,1280,2712,14080,1190,239,-27
493.37,1372,2748,14044,1313,300,-16
493.38,1452,2744,14080,1324,445,-80
493.39,1464,2796,13876,1388,468,-52
493.4,1380,2724,13744,1566,480,-74
493.41,1448,2708,14060,1920,452,-90
493.42,1340,2892,14060,2200,476,-112
493.43,1376,2944,14216,2316,467,-130
493.44,1236,3012,14408,2226,580,-168
493.45,1276,3112,14264,1948,570,-174
493.46,1368,3064,14140,1596,582,-143
493.47,1456,3076,14340,1402,581,-154
493.48,1328,3092,14140,1216,524,-116
493.49,1300,3192,14104,1091,477,-144
493.5,1252,3124,14092,1051,409,-124
493.51,1400,3208,14024,991,362,-128
493.52,1280,3248,13928,1089,353,-114
493.53,1396,3264,13808,1222,362,-88
493.54,1396,3344,13936,1478,394,-130
493.55,1344,3324,14184,1593,404,-155
493.56,1320,3460,14208,1724,441,-133
493.57,1344,3592,13960,1572,362,-128
493.58,1236,3480,14404,1714,744,-182
493.59,1180,3636,13988,1344,566,-80
493.6,1276,3476,13796,823,503,-94
493.61,1336,3412,13896,910,424,-95
493.62,1304,3540,13928,1005,284,-140
493.63,1272,3536,14228,1295,335,-143
493.64,1232,3616,14132,1120,290,-117
493.65,1248,3656,14104,861,321,-94
493.66,1220,3716,13960,834,274,-71
493.67,1336,3660,13916,733,213,-65
493.68,1352,3796,14048,658,269,-75
493.69,1084,3756,14012,812,288,-115
493.7,1280,3896,13900,917,334,-99
493.71,1204,3944,13972,909,366,-138
493.72,1348,3884,14112,837,391,-117
493.73,1284,3872,14012,700,428,-114
493.74,1228,3792,13940,565,406,-101
493.75,1164,3860,14036,659,409,-89
493.76,1188,3900,13912,557,336,-75
493.77,1260,3832,13796,413,286,-66
493.78,1236,3880,13808,461,334,-50
493.79,1204,3844,13912,570,315,-81
493.8,1104,3904,13940,584,392,-87
493.81,1144,3912,13916,561,346,-89
493.82,1188,4008,13788,475,333,-62
493.83,1220,4044,13880,413,310,-51
493.84,1108,3972,13824,330,321,-59
493.85,1204,3984,14028,323,311,-32
493.86,1252,4060,13928,353,297,-26
493.87,1168,4072,13936,339,286,-40
493.88,1052,4036,13872,316,299,-23
493.89,1168,4100,13856,320,289,-67
493.9,1260,4020,13952,460,281,-64
493.91,1220,4148,13952,363,287,-58
493.92,1224,4040,13908,306,305,-36
493.93,1220,4092,13920,189,324,-27
493.94,1028,4140,13760,234,305,-32
493.95,1128,4040,13880,291,267,-68
493.96,1100,4188,13900,323,283,-50
493.97,1156,4136,13864,271,252,-56
493.98,1180,4008,13876,286,265,-55
493.99,1060,4200,14004,308,268,-55
494.0,1148,4124,13976,218,256,-58
494.01,1028,4156,13816,166,271,-47
494.02,1232,4124,13840,112,232,-20
494.03,1108,4140,13816,133,230,-18
494.04,1040,4188,13968,86,258,-36
494.05,1104,4116,13716,125,250,-27
494.06,1096,4112,13788,112,229,-10
494.07,1076,4048,13964,149,236,-49
494.08,1064,4132,13816,116,244,-33
494.09,1028,4216,13836,130,253,-43
494.1,1200,4228,13788,132,241,-10
494.11,1180,4292,13872,54,223,-4
494.12,1336,4308,13736,9,192,-11
494.13,1184,4212,13860,2,226,30
494.14,1172,4240,13816,-31,231,-11
494.15,1168,4320,13848,19,279,-55
494.16,1152,4268,13784,75,275,-29
494.17,1164,4204,13808,75,313,-30
494.18,1148,4272,13924,74,324,-69
494.19,1152,4208,13860,79,291,-51
494.2,1128,4276,13844,50,290,-4
494.21,1152,4212,13760,-5,271,-23
494.22,1240,4216,13800,9,301,3
494.23,1060,4240,13804,-8,299,-15
494.24,1040,4324,13852,0,303,-55
494.25,1096,4316,13908,23,289,-50
494.26,1140,4244,13900,-32,285,-38
494.27,1108,4252,13984,-91,245,-20
494.28,1184,4268,13736,-175,218,-26
494.29,1152,4188,13828,-151,210,-9
494.3,1184,4288,13956,11,333,-50
494.31,1132,4348,13936,139,403,-74
494.32,1056,4260,14016,11,334,-46
494.33,1092,4344,13872,-195,297,-36
494.34,1020,4324,13668,-306,244,-27
494.35,1176,4180,13836,-229,185,-10
494.36,1100,4244,13932,-224,152,2
494.37,1024,4248,13652,-619,279,76
494.38,1112,4156,13292,-942,61,128
494.39,1336,4204,14260,176,467,-50
494.4,1184,4548,14296,390,297,-101
494.41,1096,4300,13764,-494,-45,50
494.42,1216,4272,13856,-254,165,8
494.43,1088,4272,13628,-558,116,80
494.44,1088,4096,13484,-810,-104,151
494.45,1280,4016,13604,-320,34,63
494.46,1212,4228,13940,18,-5,35
494.47,1140,4264,14196,46,-168,37
494.48,1112,4340,14016,-133,-67,58
494.49,1100,4280,14024,-214,-12,73
494.5,1072,4316,14004,-154,4,61
494.51,1116,4312,13864,-184,92,39
494.52,1140,4360,13960,-159,203,21
494.53,1152,4208,13808,-157,236,20
494.54,1108,4252,13712,-111,243,-11
494.55,1168,4188,13776,10,226,-12
494.56,1120,4220,13712,97,221,14
494.57,1116,4208,13876,92,211,8
494.58,1172,4196,13872,43,210,-27
494.59,1248,4200,13880,-45,224,-47
494.6,1220,4288,13944,-156,228,-31
494.61,1252,4232,14068,-262,238,22
494.62,1168,4248,13892,-376,229,4
494.63,1272,4264,14000,-443,176,24
494.64,1196,4268,13832,-471,186,9
494.65,1140,4192,13960,-501,200,53
494.66,1172,4128,13820,-494,202,9
494.67,1056,4180,13728,-458,199,23
494.68,1056,4072,14068,-387,235,52
494.69,1132,4272,13856,-377,279,21
494.7,1104,4260,13788,-383,254,-24
494.71,1204,4316,13888,-386,270,-17
494.72,1020,4268,13896,-458,223,-7
494.73,1168,4196,14096,-443,290,-24
494.74,1136,4168,13916,-489,426,-15
494.75,1148,4136,13604,-1264,30,85
494.76,1224,3944,13764,-1064,245,60
494.77,1120,4040,13952,-470,189,49
494.78,1176,4104,14004,-607,76,9
494.79,1180,4056,13848,-789,132,65
494.8,1036,4056,13936,-939,113,69
494.81,1216,4140,13932,-936,52,85
494.82,1256,3956,13996,-803,6,66
494.83,1236,3932,13872,-850,45,64
494.84,1196,4096,14008,-903,146,35
494.85,1080,4020,14008,-857,165,34
494.86,1204,4016,13916,-944,149,57
494.87,1128,3952,14020,-1062,152,60
494.88,1208,3932,13988,-1174,63,95
494.89,1156,3880,14088,-1169,133,111
494.9,1236,3836,14068,-1149,70,70
494.91,1188,3860,13992,-1154,90,70
494.92,1164,3900,13956,-1421,63,144
494.93,1180,3868,13852,-1461,50,128
494.94,1204,3772,14088,-1407,45,130
494.95,1200,3704,14032,-1372,36,104
494.96,1240,3616,13932,-1343,35,106
494.97,1148,3588,13908,-1360,36,110
494.98,1248,3648,13952,-1338,48,109
494.99,1264,3648,14024,-1320,98,115
495.0,1248,3640,14016,-1307,111,104
495.01,1148,3620,13936,-1362,86,110
495.02,1208,3660,14008,-1284,108,110
495.03,1216,3608,13964,-1261,69,127
495.04,1208,3468,13928,-1231,63,121
495.05,1256,3496,13984,-1132,51,99
495.06,1228,3520,14000,-1120,32,98
495.07,1248,3532,14196,-1210,22,117
495.08,1240,3428,13896,-1198,77,109
495.09,1160,3372,13956,-1175,65,112
495.1,1180,3316,13896,-1127,57,105
495.11,1160,3348,14096,-1119,74,87
495.12,1308,3352,13912,-1044,23,102
495.13,1288,3344,13924,-1078,89,72
495.14,1256,3420,14088,-1086,60,109
495.15,1244,3404,14056,-1106,50,61
495.16,1296,3204,14024,-1084,80,53
495.17,1180,3208,14040,-1034,48,67
495.18,1248,3260,14016,-1004,29,58
495.19,1272,3096,14100,-1008,93,58
495.2,1364,3208,14004,-1029,52,73
495.21,1244,3172,13980,-1060,59,60
495.22,1384,3072,14108,-1046,77,74
495.23,1204,3064,14148,-1068,7,54
495.24,1268,3072,14024,-1026,60,84
495.25,1360,2968,14104,-985,-11,63
495.26,1344,3072,14176,-883,75,46
495.27,1296,3060,14100,-829,46,37
495.28,1408,3048,14160,-900,118,55
495.29,1268,2972,13976,-938,100,53
495.3,1348,3028,14020,-849,110,53
495.31,1368,3004,14168,-857,95,44
495.32,1272,2956,14192,-864,117,34
495.33,1324,2960,14152,-837,134,61
495.34,1180,2916,14148,-816,130,50
495.35,1248,2860,14016,-881,67,49
495.36,1272,3008,13960,-949,-9,64
495.37,1420,2796,13980,-869,57,55
495.38,1344,2760,14116,-548,170,22
495.39,1488,2908,14188,-356,186,7
495.4,1376,2920,14228,-493,159,22
495.41,1408,2932,14244,-602,140,20
495.42,1364,2792,13900,-754,75,36
495.43,1364,2672,14320,-726,75,25
495.44,1400,2812,14276,-470,192,15
495.45,1320,2900,14252,-657,239,54
495.46,1248,2944,13600,-1656,92,118
495.47,1548,2472,14108,-1331,-25,50
495.48,1440,2704,14468,114,239,-85
495.49,1300,2872,13824,-623,-384,78
495.5,1532,2624,14124,-895,-174,79
495.51,1476,2744,14260,-9,317,-8
495.52,1180,2688,13560,-1217,-368,169
495.53,1504,2460,13724,-918,-73,117
495.54,1424,2672,14432,159,227,-4
495.55,1380,2760,14528,108,194,-31
495.56,1376,2780,14216,-72,149,12
495.57,1380,2868,14280,-331,156,41
495.58,1248,2844,14280,-360,106,82
495.59,1424,2772,14096,-477,-17,77
495.6,1488,2716,14076,-559,50,69
495.61,1372,2648,13988,-655,144,83
495.62,1392,2604,14116,-724,169,63
495.63,1588,2584,13980,-529,73,40
495.64,1472,2516,13872,-299,101,37
495.65,1484,2652,14336,-46,123,-26
495.66,1508,2560,14312,-52,148,-12
495.67,1496,2568,14152,-182,107,30
495.68,1492,2636,14136,-240,138,20
495.69,1460,2620,14176,-342,95,28
495.7,1468,2632,14132,-360,103,27
495.71,1464,2676,13996,-351,94,40
495.72,1460,2552,14080,-331,109,49
495.73,1528,2588,14100,-320,118,15
495.74,1528,2644,14176,-222,162,6
495.75,1496,2596,14012,-174,183,20
495.76,1448,2588,14188,-67,201,2
495.77,1460,2576,14180,43,200,-7
495.78,1408,2700,14184,156,276,5
495.79,1448,2612,14132,266,291,-33
495.8,1468,2572,14280,235,242,6
495.81,1532,2668,14380,528,583,-59
495.82,1396,2788,13960,-125,227,31
495.83,1472,2520,13984,0,380,41
495.84,1376,2592,13916,320,298,-59
495.85,1480,2636,14172,193,154,-9
495.86,1376,2656,14164,553,273,-45
495.87,1476,2768,14252,503,219,-38
495.88,1584,2620,14156,402,242,-24
495.89,1424,2752,14268,460,233,-16
495.9,1512,2728,14140,321,199,-21
495.91,1484,2760,14140,456,274,-54
495.92,1464,2796,14116,580,267,-47
495.93,1536,2744,14232,631,243,-80
495.94,1540,2788,14216,647,318,-55
495.95,1476,2796,14108,596,316,-25
495.96,1384,2828,14060,510,255,-34
495.97,1448,2692,14172,548,264,-62
495.98,1520,2796,14112,624,313,-59
495.99,1532,2860,14096,577,296,-60
496.0,1404,2824,13968,455,293,-54
496.01,1532,2748,14004,514,369,-82
496.02,1468,2776,14040,597,320,-63
496.03,1428,2872,14064,624,294,-58
496.04,1412,2916,14084,636,276,-36
496.05,1416,2884,14088,649,310,-54
496.06,1464,2948,14224,708,369,-48
496.07,1316,2992,14076,768,388,-44
496.08,1428,3032,14176,822,376,-59
496.09,1356,2944,14004,938,348,-68
496.1,1396,3116,14068,983,335,-52
496.11,1436,3056,14072,1079,358,-80
496.12,1436,3128,13920,1146,368,-62
496.13,1472,3144,13932,1207,412,-81
496.14,1276,3224,13972,1142,380,-63
496.15,1500,3148,13900,1222,380,-106
496.16,1424,3136,14160,1356,386,-72
496.17,1452,3280,14016,1369,425,-144
496.18,1328,3368,13972,1414,479,-126
496.19,1384,3372,14088,1400,463,-103
496.2,1368,3352,14052,1307,503,-145
496.21,1384,3352,14140,1250,468,-148
496.22,1376,3432,13960,1182,473,-132
496.23,1256,3404,14080,1172,453,-126
496.24,1348,3512,14152,1093,377,-128
496.25,1368,3444,14048,1029,401,-139
496.26,1336,3524,14036,950,377,-119
496.27,1268,3608,13872,968,365,-99
496.28,1312,3516,13936,899,354,-102
496.29,1328,3556,14016,882,344,-97
496.3,1284,3588,13944,898,324,-100
496.31,1316,3680,13968,862,354,-95
496.32,1356,3608,13996,862,383,-97
496.33,1280,3596,14056,809,380,-86
496.34,1236,3668,13900,819,379,-105
496.35,1184,3792,13892,820,363,-93
496.36,1300,3696,13980,764,396,-98
496.37,1276,3828,13924,781,383,-113
496.38,1280,3848,13916,722,376,-118
496.39,1280,3756,14004,630,400,-98
496.4,1180,3784,14040,632,351,-70
496.41,1200,3848,13876,650,392,-70
496.42,1324,3864,14004,599,388,-109
496.43,1292,3940,13880,543,390,-62
496.44,1256,3976,13884,547,346,-76
496.45,1344,3904,14000,528,348,-52
496.46,1192,3944,13940,400,311,-42
496.47,1256,3852,13856,317,281,-47
496.48,1160,3796,13908,300,260,-34
496.49,1292,3868,13884,573,351,-90
496.5,1288,3896,14056,719,462,-117
496.51,1256,3988,14004,633,438,-117
496.52,1204,3976,13980,404,390,-89
496.53,1168,3916,13852,212,351,-61
496.54,1176,3928,13944,228,279,-58
496.55,1216,4004,14116,285,222,-33
496.56,1160,3904,13796,0,336,78
496.57,1128,4004,13456,-655,148,91
496.58,1420,3880,14200,116,409,-49
496.59,1208,4056,14384,925,454,-157
496.6,1048,4240,13960,38,36,-8
496.61,1232,3924,13800,45,242,-15
496.62,1124,4132,13692,-122,246,11
496.63,1216,3836,13324,-638,-88,127
496.64,1336,3848,13568,13,157,32
496.65,1396,3972,13976,300,59,19
496.66,1152,4076,14120,401,-65,36
496.67,1204,4056,13976,360,-92,12
496.68,1156,4224,13952,181,49,15
496.69,1104,4108,13964,215,82,22
496.7,1192,4132,13924,225,121,-7
496.71,1348,4148,14012,200,249,-43
496.72,1144,4248,13832,188,349,-5
496.73,1228,4240,13656,135,327,-54
496.74,1240,4016,13708,271,292,-44
496.75,1236,4160,13740,470,224,-50
496.76,1200,4072,13900,506,260,-41
496.77,1252,4064,13872,398,212,-26
496.78,1236,4172,14092,333,214,-28
496.79,1304,4100,13936,266,258,-20
496.8,1240,4200,13932,183,286,-23
496.81,1148,4228,13916,57,300,-32
496.82,1308,4268,13824,38,313,-47
496.83,1208,4200,13692,-37,279,10
496.84,1212,4128,13916,-51,283,-24
496.85,1220,4240,13856,-55,296,-2
496.86,1168,4264,13748,-49,274,-1
496.87,1216,4176,13752,-1,259,11
496.88,1236,4188,13816,35,286,-39
496.89,1068,4252,13772,92,307,-32
496.9,1160,4220,13948,103,333,-1
496.91,1124,4264,13736,23,326,-41
496.92,1096,4268,14076,139,306,-65
496.93,1140,4344,13996,216,597,-49
496.94,1144,4196,13492,-488,176,29
496.95,1256,4120,13684,-468,300,23
496.96,1268,4240,13852,134,381,-68
496.97,1104,4220,13808,-26,230,-63
496.98,1140,4120,13840,-193,207,-39
496.99,1176,4280,13948,-308,238,22
497.0,1136,4276,13848,-326,139,25
497.01,1204,4244,13912,-259,145,-4
497.02,1292,4256,14044,-326,112,16
497.03,1268,4180,13896,-335,160,21
497.04,1280,4344,13712,-331,126,11
497.05,1180,4340,13848,-292,122,18
497.06,1096,4264,13908,-289,176,13
497.07,1176,4260,13796,-388,140,53
497.08,1228,4196,13928,-427,169,45
497.09,1240,4204,13904,-342,108,25
497.1,1312,4072,13772,-224,138,-2
497.11,1104,4272,14052,-318,144,18
497.12,1172,4320,13768,-388,76,26
497.13,1196,4152,13664,-406,152,24
497.14,1244,4100,13876,-376,197,-1
497.15,1200,4140,14020,-362,171,23
497.16,1132,4080,13708,-394,165,2
497.17,1204,4128,13836,-441,161,17
497.18,1256,4184,13688,-478,170,30
497.19,1176,4188,13824,-471,162,44
497.2,1228,4096,13864,-379,190,18
497.21,1148,4104,14016,-403,198,42
497.22,1196,4032,13840,-476,192,41
497.23,1180,4152,13916,-481,214,46
497.24,1244,4200,13848,-466,183,51
497.25,1300,4100,13808,-518,172,59
497.26,1252,4084,14024,-573,152,53
497.27,1208,4092,13944,-560,143,39
497.28,1208,4156,13928,-599,152,45
497.29,1148,4040,13864,-532,136,69
497.3,1172,4072,13952,-551,153,41
497.31,1180,4012,13900,-589,135,42
497.32,1264,4008,13920,-549,119,59
497.33,1204,4048,13888,-573,103,43
497.34,1296,4000,13880,-601,131,57
497.35,1332,4064,14004,-674,134,42
497.36,1316,4104,13748,-774,148,52
497.37,1224,4012,13860,-820,118,71
497.38,1320,3956,13944,-799,141,63
497.39,1236,3924,14008,-817,154,30
497.4,1256,3908,13872,-838,178,37
497.41,1216,3836,14048,-820,174,43
497.42,1200,3844,13852,-845,141,64
497.43,1176,3852,14000,-858,129,41
497.44,1232,3892,13884,-849,154,94
497.45,1316,3768,13804,-915,137,65
497.46,1352,3848,13952,-940,119,97
497.47,1260,3876,13960,-930,106,113
497.48,1268,3812,14048,-889,143,73
497.49,1300,3832,13856,-898,139,74
497.5,1248,3816,14012,-891,150,50
497.51,1380,3720,13868,-1036,96,91
497.52,1344,3716,14044,-1019,58,94
497.53,1224,3680,13884,-1017,53,71
497.54,1204,3632,13996,-1103,105,80
497.55,1356,3688,14008,-1160,101,100
497.56,1316,3744,14040,-1189,108,84
497.57,1248,3536,13956,-1254,47,116
497.58,1300,3628,13972,-1241,72,78
497.59,1284,3528,14128,-1154,1,112
497.6,1288,3460,14028,-1101,25,100
497.61,1336,3608,13924,-1184,76,94
497.62,1268,3512,14116,-1117,121,94
497.63,1248,3508,14032,-1082,79,92
497.64,1304,3456,13944,-1222,114,98
497.65,1296,3440,13860,-1283,26,99
497.66,1328,3348,13932,-1365,10,124
497.67,1264,3228,13824,-1367,-27,89
497.68,1380,3176,14088,-1078,69,95
497.69,1316,3340,14260,-773,164,37
497.7,1244,3380,14120,-839,148,38
497.71,1296,3344,14024,-1031,96,56
497.72,1292,3224,13976,-1202,-6,90
497.73,1400,3256,14004,-1081,-43,91
497.74,1440,3172,14124,-923,85,72
497.75,1308,3268,14112,-1139,230,115
497.76,1236,3152,13576,-2093,-24,167
497.77,1620,2948,14268,-1280,135,8
497.78,1272,3252,14272,-329,-27,5
497.79,1284,3232,13860,-1380,-432,119
497.8,1440,2964,14112,-1201,-7,62
497.81,1292,3060,13852,-906,-25,115
497.82,1304,2900,13680,-1899,-509,256
497.83,1532,2756,13916,-959,0,101
497.84,1380,3028,14440,-227,23,24
497.85,1464,3172,14408,-472,26,27
497.86,1332,3052,14256,-741,-28,70
497.87,1312,3092,14212,-995,29,102
497.88,1304,2956,14204,-1061,-5,86
497.89,1400,2856,14092,-1065,-19,99
497.9,1432,2836,14224,-1148,23,73
497.91,1444,2908,14032,-1222,81,71
497.92,1416,2728,13960,-1224,-56,101
497.93,1380,2728,13844,-1010,-24,74
497.94,1536,2688,13860,-641,36,32
497.95,1484,2740,14300,-440,81,12
497.96,1520,2804,14260,-430,58,16
497.97,1492,2720,14328,-465,125,13
497.98,1452,2780,14204,-620,100,50
497.99,1568,2672,14148,-724,98,57
498.0,1500,2744,14256,-752,111,36
498.01,1508,2668,14172,-740,94,59
498.02,1448,2744,14252,-798,66,38
498.03,1568,2664,14204,-764,91,49
498.04,1588,2672,14224,-819,72,18
498.05,1476,2612,14036,-695,107,34
498.06,1500,2664,14172,-592,149,8
498.07,1472,2680,14148,-522,149,23
498.08,1460,2648,14152,-369,191,0
498.09,1448,2660,14368,-292,212,-8
498.1,1552,2604,14256,-332,233,6
498.11,1432,2676,14184,-191,399,-23
498.12,1456,2680,13964,-676,118,36
498.13,1604,2488,14136,-563,232,14
498.14,1540,2600,14060,-360,84,-21
498.15,1508,2580,14044,-261,95,-9
498.16,1472,2604,14072,-98,213,-32
498.17,1564,2608,14008,-206,90,-10
498.18,1524,2628,14204,-160,112,16
498.19,1484,2576,14344,-212,80,10
498.2,1672,2564,14208,-140,94,9
498.21,1568,2560,14020,76,120,-21
498.22,1584,2616,14184,113,224,-22
498.23,1516,2560,14188,300,274,-61
498.24,1512,2508,14220,228,290,-43
498.25,1476,2500,14112,181,253,-15
498.26,1536,2584,14160,171,231,2
498.27,1432,2680,14240,258,288,-48
498.28,1560,2624,14148,288,292,-19
498.29,1560,2656,14216,294,299,-39
498.3,1460,2628,13924,298,249,-55
498.31,1448,2728,14140,455,302,-71
498.32,1364,2732,14288,486,291,-55
498.33,1444,2684,14060,439,342,-38
498.34,1476,2732,14192,359,332,-20
498.35,1520,2708,14104,398,372,-11
498.36,1436,2756,14124,404,374,-14
498.37,1372,2748,14172,397,361,-38
498.38,1588,2764,14132,423,316,-20
498.39,1512,2788,14140,436,344,-33
498.4,1592,2800,13988,512,321,-66
498.41,1436,2788,14184,592,351,-61
498.42,1504,2828,14244,549,330,-46
498.43,1608,2764,14256,519,357,-50
498.44,1468,2852,14104,580,389,-48
498.45,1532,2844,14076,623,359,-68
498.46,1468,2768,14120,694,388,-95
498.47,1528,2840,14220,739,378,-106
498.48,1408,3020,14124,750,378,-78
498.49,1464,2900,14160,794,361,-97
498.5,1528,2916,14000,780,410,-37
498.51,1540,3032,13984,800,380,-112
498.52,1424,3016,14180,856,380,-81
498.53,1496,3000,14224,939,429,-119
498.54,1288,3088,14008,933,398,-87
498.55,1528,3116,14056,973,457,-115
498.56,1416,3148,14188,961,433,-98
498.57,1400,3072,14016,915,420,-96
498.58,1340,2992,14064,922,477,-100
498.59,1448,3132,14052,948,424,-113
498.6,1392,3216,14036,935,435,-104
498.61,1316,3272,14028,944,408,-80
498.62,1348,3240,14096,933,430,-102
498.63,1344,3224,14120,977,401,-84
498.64,1432,3264,13996,1005,474,-91
498.65,1344,3240,14064,982,448,-113
498.66,1392,3296,14084,985,512,-95
498.67,1364,3308,14024,958,458,-133
498.68,1376,3404,14040,913,440,-125
498.69,1356,3408,13988,960,476,-104
498.7,1300,3480,13996,950,432,-109
498.71,1380,3508,13972,975,399,-96
498.72,1324,3452,13908,980,422,-90
498.73,1244,3632,14068,940,390,-74
498.74,1416,3612,13940,981,406,-104
498.75,1264,3628,13992,928,388,-79
498.76,1316,3604,13936,781,333,-48
498.77,1300,3520,13920,684,305,-65
498.78,1308,3588,13852,694,313,-76
498.79,1352,3632,14096,951,443,-112
498.8,1256,3676,14092,1053,479,-158
498.81,1228,3700,14044,909,461,-142
498.82,1180,3848,14044,777,439,-152
498.83,1172,3700,13796,545,377,-120
498.84,1200,3640,13848,574,334,-89
498.85,1296,3732,13972,650,278,-60
498.86,1220,3752,13928,361,394,3
498.87,1216,3800,13468,-383,221,64
498.88,1452,3664,14196,262,356,-77
498.89,1340,3952,14160,1289,451,-166
498.9,1192,3964,13992,601,129,-66
498.91,1344,3844,13972,170,155,-30
498.92,1304,3868,13844,409,453,-63
498.93,1156,3760,13460,-491,-80,95
498.94,1328,3592,13520,78,178,33
498.95,1168,3992,13976,441,126,15
498.96,1316,4004,14096,390,269,-26
498.97,1120,3944,13748,339,356,-70
498.98,1216,4048,13800,398,314,-78
498.99,1304,4016,13760,524,252,-58
499.0,1356,4004,13728,628,235,-89
499.01,1400,3948,13928,668,227,-47
499.02,1408,3908,13968,632,236,-46
499.03,1240,4012,14012,528,231,-60
499.04,1224,4060,13988,486,297,-26
499.05,1168,4000,13816,349,350,-41
499.06,1340,4100,13988,314,311,-53
499.07,1168,4056,13784,249,324,-25
499.08,1172,4144,13804,169,295,-38
499.09,1296,4064,13796,190,283,-33
499.1,1328,4032,13812,157,263,-38
499.11,1348,4132,13928,189,290,-54
499.12,1340,4048,13844,230,292,-39
499.13,1112,4148,13752,231,299,-59
499.14,1268,4156,13884,291,312,-59
499.15,1312,4172,13816,368,362,-69
499.16,1156,4276,13920,313,260,-54
499.17,1232,4124,14016,445,420,-74
499.18,1176,4312,13732,321,473,-62
499.19,1124,4152,13528,-292,247,17
499.2,1368,4132,13752,-58,351,-20
499.21,1280,4212,13920,392,419,-97
499.22,1128,4240,13944,301,268,-91
499.23,1220,4092,13832,156,245,-70
499.24,1212,4276,13804,22,248,-23
499.25,1084,4264,13924,10,208,2
499.26,1200,4256,13732,62,138,2
499.27,1176,4240,13920,91,161,-7
499.28,1320,4280,13804,118,210,-22
499.29,1200,4236,13972,188,192,-33
499.3,1216,4268,13888,141,228,-29
499.31,1228,4252,13840,87,210,-22
499.32,1228,4248,13792,12,225,-13
499.33,1204,4200,13804,31,231,-21
499.34,1228,4224,13772,144,235,-22
499.35,1276,4324,13872,59,237,-49
499.36,1220,4368,13684,-46,217,-26
499.37,1208,4304,13804,-30,274,-11
499.38,1236,4148,13776,-23,312,-58
499.39,1240,4224,13764,-30,279,-47
499.4,1244,4252,13800,-26,274,-24
499.41,1184,4308,13792,-80,274,-10
499.42,1240,4360,13872,-94,280,-3
499.43,1248,4288,13712,-72,263,7
499.44,1160,4320,13776,-49,263,0
499.45,1104,4384,13836,-10,261,-11
499.46,1200,4280,13716,0,251,10
499.47,1216,4280,13664,-16,267,-15
499.48,1200,4348,13912,-1,289,-31
499.49,1180,4344,13932,-44,287,-24
499.5,1152,4224,13748,-101,274,-19
499.51,1212,4280,13840,-84,279,-24
499.52,1320,4304,13920,-119,245,-28
499.53,1216,4276,13940,-101,261,-16
499.54,1132,4380,13700,-71,270,-31
499.55,1212,4304,13816,-64,277,-13
499.56,1048,4296,13816,-81,285,-35
499.57,1076,4360,13828,-63,269,-31
499.58,1124,4352,13828,-96,284,-41
499.59,1172,4276,13828,-93,269,-22
499.6,1184,4384,13844,-123,232,-9
499.61,1136,4268,13812,-139,261,-3
499.62,1160,4320,13716,-142,236,-13
499.63,1240,4312,13916,-146,239,-25
499.64,1260,4252,13840,-144,246,1
499.65,1140,4260,13816,-148,239,7
499.66,1120,4328,13912,-168,269,-7
499.67,1120,4312,13884,-172,264,-3
499.68,1136,4352,13808,-209,254,-6
499.69,1116,4284,13828,-194,244,-11
499.7,1100,4340,13792,-248,262,-8
499.71,1256,4300,13772,-209,242,8
499.72,1168,4260,13760,-206,236,0
499.73,1188,4216,13932,-246,240,8
499.74,1216,4220,13784,-253,241,15
499.75,1224,4208,13944,-255,223,12
499.76,1144,4292,13892,-261,239,4
499.77,1252,4300,13696,-225,219,-26
499.78,1176,4220,13844,-242,240,9
499.79,1104,4228,13916,-226,206,19
499.8,1180,4256,13876,-228,205,-6
499.81,1080,4208,13892,-224,205,-6
499.82,1196,4140,13764,-236,186,16
499.83,1220,4272,13968,-239,217,9
499.84,1160,4192,13880,-208,238,-9
499.85,1164,4328,13788,-219,252,-15
499.86,1184,4296,13880,-196,279,-17
499.87,1112,4160,13828,-191,277,-12
499.88,1096,4212,14012,-304,265,1
499.89,1176,4304,13876,-346,217,2
499.9,1060,4284,13772,-416,188,8
499.91,1268,4124,13756,-376,154,19
499.92,1216,4188,13924,-188,305,15
499.93,1156,4396,14032,-46,342,-48
499.94,1124,4248,14016,-165,309,-29
499.95,1060,4232,13876,-263,274,-16
499.96,1084,4200,13712,-376,195,7
499.97,1124,4256,13728,-323,142,11
499.98,1132,4192,13844,-409,119,52
499.99,1064,4184,13536,-978,189,126
500.0,1288,4100,13860,-765,153,63
500.01,1364,4292,14492,273,470,-51
500.02,992,4300,13972,-26,10,-19
500.03,1128,4156,13680,-612,-42,78
500.04,1132,4124,13888,-209,207,34
500.05,944,4172,13508,-823,-104,164
500.06,1224,3916,13440,-682,-81,160
500.07,1288,4056,13868,-163,115,75
500.08,1272,4220,13996,-67,-20,33
500.09,1200,4212,14068,39,-104,40
500.1,1208,4272,14048,-196,-98,78
500.11,1056,4212,13916,-160,-66,84
500.12,1232,4140,13940,-134,-32,74
500.13,1256,4236,13936,-170,55,61
500.14,1216,4192,13836,-36,143,31
500.15,1196,4216,13716,-157,105,27
500.16,1240,4228,13704,-137,134,41
500.17,1204,4084,13736,7,167,22
500.18,1204,4084,13760,51,215,-9
500.19,1140,4088,13800,120,234,6
500.2,1100,4072,13924,9,203,-4
500.21,1328,4156,14052,-86,194,-3
500.22,1228,4212,13864,-146,183,23
500.23,1268,4132,13800,-218,201,-1
500.24,1192,4104,13788,-252,210,7
500.25,1364,4220,13992,-287,191,22
500.26,1216,4132,13864,-364,200,4
500.27,1200,4100,13840,-340,238,17
500.28,1248,4104,13752,-370,218,35
500.29,1152,4168,13820,-367,244,24
500.3,1280,4240,13936,-286,208,10
500.31,1212,4208,13872,-255,230,27
500.32,1228,4172,13908,-248,248,5
500.33,1120,4300,14000,-234,243,5
500.34,1248,4220,13952,-342,137,-19
500.35,1308,4192,14220,-102,600,-54
500.36,1092,4172,13772,-568,282,50
500.37,1224,4004,13584,-1011,209,95
500.38,1180,4020,13892,-704,220,41
500.39,1148,4000,13844,-692,81,51
500.4,1308,4056,13908,-720,101,70
500.41,1420,4076,13928,-678,74,39
500.42,1300,4032,13720,-629,19,62
500.43,1356,4068,13952,-588,2,85
500.44,1312,3980,13968,-707,78,96
500.45,1264,3904,13840,-809,71,107
500.46,1300,3908,14032,-832,92,92
500.47,1228,3968,14096,-756,133,61
500.48,1244,3964,13880,-822,124,102
500.49,1312,3980,13712,-1031,83,98
500.5,1232,3828,13796,-937,125,86
500.51,1320,3876,13844,-797,123,66
500.52,1292,3748,13880,-749,177,63
500.53,1344,3884,13884,-756,223,37
500.54,1268,3816,13824,-847,13,106
500.55,1264,3704,13892,-662,182,84
500.56,1316,3928,13920,-521,152,76
500.57,1324,3888,14000,-550,168,48
500.58,1232,3780,13800,-523,174,42
500.59,1140,3764,14044,-489,190,40
500.6,1444,3760,13908,-472,190,23
500.61,1260,3784,13972,-427,213,31
500.62,1332,3812,13848,-360,251,27
500.63,1272,3828,13884,-331,213,44
500.64,1268,3708,13836,-305,226,22
500.65,1228,3752,13900,-235,223,21
500.66,1192,3752,14012,-131,221,13
500.67,1276,3656,13836,-19,245,-3
500.68,1368,3748,13900,-29,245,-5
500.69,1240,3772,13792,-14,266,-27
500.7,1328,3800,13780,-20,242,-24
500.71,1312,3752,13972,25,229,-43
500.72,1344,3732,13880,34,263,-31
500.73,1336,3680,13972,84,289,-49
500.74,1208,3808,13988,131,308,-87
500.75,1264,3776,13872,166,320,-61
500.76,1236,3820,13872,210,293,-45
500.77,1196,3808,13940,238,318,-48
500.78,1136,3680,13888,267,310,-54
500.79,1240,3828,13980,267,323,-52
500.8,1316,3772,13964,319,337,-56
500.81,1304,3868,13884,351,332,-56
500.82,1284,3848,13812,333,326,-63
500.83,1244,3800,13896,412,324,-41
500.84,1248,3792,13824,409,298,-62
500.85,1236,3808,13896,513,226,-48
500.86,1348,3944,13952,533,324,-67
500.87,1204,3924,14044,392,403,-78
500.88,1256,3888,14024,437,380,-66
500.89,1216,3884,13748,474,365,-70
500.9,1316,3860,13948,450,323,-51
500.91,1204,3880,14004,461,349,-79
500.92,1232,3876,13848,398,325,-51
500.93,1312,3932,13788,402,323,-50
500.94,1344,4092,13944,448,406,-46
500.95,1180,4084,13908,344,282,-26
500.96,1240,3972,13976,361,211,-57
500.97,1176,4016,13924,239,298,-43
500.98,1248,4040,13864,62,466,-33
500.99,1164,3900,13984,325,460,-87
501.0,1152,4144,14060,512,395,-91
501.01,1204,4140,13936,391,368,-54
501.02,1280,4040,13940,201,302,-76
501.03,1200,4056,13776,115,254,-46
501.04,1184,4192,13908,195,249,-65
501.05,1112,4116,13964,218,245,-27
501.06,1080,4136,13856,-107,267,54
501.07,1152,3916,13420,-588,90,97
501.08,1396,3928,14108,219,380,-55
501.09,1204,4204,14204,909,322,-131
501.1,1128,4248,13824,160,-17,-1
501.11,1304,4152,13952,375,160,-30
501.12,1076,4204,13712,312,324,-42
501.13,1108,4100,13276,-556,-141,108
501.14,1272,3876,13508,-111,103,60
501.15,1324,4200,13844,330,107,-1
501.16,1252,4160,14092,376,-27,-16
501.17,1080,4196,13976,261,-17,16
501.18,1048,4172,14024,-76,-7,85
501.19,964,4176,13828,-19,-29,69
501.2,1140,4200,14076,72,100,37
501.21,1164,4156,13936,181,193,-11
501.22,1364,4260,13800,149,179,-31
501.23,1264,4232,13816,102,197,-53
501.24,1188,4128,13696,94,245,-18
501.25,1284,4200,13772,231,272,-47
501.26,1224,4244,13860,296,240,-56
501.27,1144,4148,13916,301,257,-75
501.28,1240,4244,14044,243,284,-62
501.29,1132,4296,13968,169,302,-21
501.3,1108,4220,13832,147,283,-47
501.31,1192,4228,13824,24,281,-8
501.32,1264,4160,13968,31,265,24
501.33,1204,4288,13828,-39,262,12
501.34,1184,4184,13668,-95,264,-11
501.35,1316,4220,13736,-102,295,-24
501.36,1196,4252,13916,-92,286,-30
501.37,1168,4276,13908,-4,310,-32
501.38,1156,4240,13856,31,344,-50
501.39,1104,4220,13632,113,390,-67
501.4,1112,4264,13800,172,364,-75
501.41,1100,4308,13840,99,234,-60
501.42,1180,4360,14104,338,651,-111
501.43,1188,4264,13660,-151,291,-4
501.44,1196,4072,13708,-378,373,2
501.45,1132,4204,13576,-160,284,-24
501.46,1172,4320,13776,114,391,-96
501.47,1200,4364,14000,169,310,-65
