524.27,1308,3424,13904,-1597,103,107
524.28,1464,3364,14036,-1472,77,67
524.29,1296,3436,14088,-1306,119,84
524.3,1380,3276,14056,-1207,185,65
524.31,1328,3472,14020,-1140,249,74
524.32,1260,3432,13988,-1407,187,56
524.33,1256,3200,14296,-1320,318,46
524.34,1216,3288,14140,-1397,309,93
524.35,1304,3304,13880,-1917,35,161
524.36,1448,3148,13888,-1863,40,125
524.37,1264,3068,14284,-1329,107,66
524.38,1296,3100,14176,-1141,8,64
524.39,1380,3128,14024,-1431,-10,86
524.4,1364,3052,14120,-1558,-43,108
524.41,1408,3128,14036,-1550,-43,127
524.42,1384,3100,14204,-1584,-94,118
524.43,1340,2956,14208,-1516,-6,80
524.44,1424,2896,14068,-1491,47,57
524.45,1360,2972,14268,-1378,81,17
524.46,1356,2848,14296,-1436,152,15
524.47,1300,2832,14268,-1521,107,59
524.48,1428,2784,13908,-1637,61,9
524.49,1392,2720,14212,-1790,-33,65
524.5,1516,2704,14204,-1689,6,37
524.51,1444,2672,14236,-1534,0,28
524.52,1480,2672,13880,-1575,9,4
524.53,1408,2628,14180,-1497,-29,10
524.54,1284,2644,14088,-1459,4,4
524.55,1372,2568,14036,-1385,-34,45
524.56,1436,2544,14068,-1426,-15,5
524.57,1400,2520,14228,-1349,2,42
524.58,1572,2388,14080,-1414,48,44
524.59,1492,2516,14148,-1372,55,36
524.6,1412,2476,14200,-1292,28,22
524.61,1400,2404,14160,-1222,48,19
524.62,1380,2472,14300,-1132,103,13
524.63,1376,2436,14248,-1247,12,35
524.64,1492,2344,14152,-1194,53,-13
524.65,1496,2364,14172,-1250,71,-1
524.66,1436,2368,14084,-1252,20,2
524.67,1432,2292,14136,-1156,48,8
524.68,1532,2276,14308,-1092,113,-8
524.69,1476,2220,14200,-1147,137,-20
524.7,1384,2160,14248,-1137,87,-3
524.71,1408,2220,14160,-1115,62,-14
524.72,1424,2152,14328,-1145,43,-44
524.73,1468,2172,14384,-1197,4,42
524.74,1464,2112,14384,-1141,21,-3
524.75,1512,2124,14340,-1048,37,-8
524.76,1528,2072,14120,-1120,33,-68
524.77,1444,2024,14192,-1148,65,-55
524.78,1504,2096,14348,-999,29,-50
524.79,1432,2012,14368,-1065,101,-44
524.8,1512,2124,14352,-1178,118,-43
524.81,1444,1912,14376,-1115,67,-37
524.82,1400,1956,14400,-1148,-2,-26
524.83,1492,1840,14152,-1248,-19,-9
524.84,1460,1964,14292,-1143,15,9
524.85,1576,1824,14312,-1053,10,-2
524.86,1508,1880,14268,-1038,23,-22
524.87,1496,1856,14280,-1133,56,-34
524.88,1480,1896,14332,-1139,36,-18
524.89,1488,1772,14232,-1060,29,2
524.9,1620,1760,14264,-1123,145,-17
524.91,1564,1708,14256,-1164,271,-45
524.92,1584,1736,14344,-1068,306,-60
524.93,1532,1656,14136,-914,210,-58
524.94,1512,1772,14260,-879,123,-45
524.95,1384,1692,14268,-921,41,-39
524.96,1488,1648,14156,-1049,-63,24
524.97,1476,1604,14136,-930,-39,19
524.98,1688,1604,14456,-485,85,0
524.99,1608,1732,14420,-386,42,-25
525.0,1584,1720,14324,-452,-8,-6
525.01,1564,1680,14168,-570,-13,31
525.02,1512,1612,14168,-546,-126,24
525.03,1520,1524,14364,-376,0,33
525.04,1656,1652,14476,-402,201,15
525.05,1336,1728,14016,-920,194,26
525.06,1576,1460,13852,-1328,-222,83
525.07,1808,1392,14856,59,322,-51
525.08,1628,1700,13976,373,-38,-18
525.09,1628,1508,13828,-669,-310,68
525.1,1648,1488,14356,504,474,-39
525.11,1404,1664,13876,-189,15,58
525.12,1568,1408,13756,-594,-178,127
525.13,1740,1436,14136,425,381,24
525.14,1648,1592,14540,698,497,-12
525.15,1652,1656,14588,800,462,-23
525.16,1632,1740,14436,544,371,-9
525.17,1500,1616,14140,307,468,-8
525.18,1480,1680,14320,262,384,29
525.19,1672,1700,14288,217,283,28
525.2,1604,1676,14184,242,369,21
525.21,1604,1612,14132,163,347,10
525.22,1628,1592,13968,235,317,67
525.23,1572,1716,13932,422,282,44
525.24,1652,1648,14176,669,251,9
525.25,1720,1640,14320,889,290,6
525.26,1512,1716,14512,941,320,5
525.27,1556,1652,14448,822,323,-23
525.28,1596,1720,14328,691,340,-46
525.29,1576,1796,14292,642,364,-26
525.3,1584,1728,14256,628,358,-8
525.31,1636,1764,14192,610,351,-15
525.32,1612,1856,14140,642,314,8
525.33,1604,1828,14128,601,309,25
525.34,1616,1844,14236,684,345,-2
525.35,1564,1880,14276,865,373,0
525.36,1552,1956,14336,912,406,-6
525.37,1532,2000,14424,1126,439,-7
525.38,1504,2072,14276,1120,399,-31
525.39,1664,1984,14324,1174,542,-37
525.4,1488,2092,14332,1307,619,-26
525.41,1580,2036,13980,825,306,1
525.42,1536,2080,14172,893,426,13
525.43,1448,2152,14240,1335,525,-71
525.44,1448,2164,14168,1010,254,-27
525.45,1544,2168,14188,1181,417,-57
525.46,1532,2148,14220,1301,376,-33
525.47,1460,2192,14176,1268,330,22
525.48,1424,2348,14136,1259,325,-33
525.49,1504,2348,14176,1245,363,-58
525.5,1552,2388,14240,1350,362,-31
525.51,1540,2348,14300,1532,528,-84
525.52,1440,2408,14208,1624,595,-96
525.53,1488,2480,14304,1449,602,-73
525.54,1408,2508,14148,1276,589,-111
525.55,1520,2432,14192,1260,535,-89
525.56,1468,2408,14152,1336,500,-67
525.57,1396,2528,14168,1403,465,-91
525.58,1444,2616,14000,1190,395,-53
525.59,1380,2480,14024,1177,445,-52
525.6,1480,2660,14136,1282,495,-82
525.61,1320,2640,14284,1305,418,-51
525.62,1304,2652,14236,1292,497,-71
525.63,1368,2760,14184,1168,508,-72
525.64,1388,2848,14136,1030,509,-69
525.65,1348,2832,14124,1049,488,-44
525.66,1364,2828,14096,984,489,-46
525.67,1328,2840,14024,948,462,-86
525.68,1320,2848,14140,1002,485,-49
525.69,1352,3012,14176,1058,408,-63
525.7,1348,2968,14212,1075,458,-56
525.71,1332,2956,14188,1097,451,-56
525.72,1372,2988,14148,1139,472,-55
525.73,1300,2980,14060,1085,432,-65
525.74,1368,3092,13988,1073,449,-71
525.75,1384,2980,14144,1116,454,-61
525.76,1224,3100,14020,1147,507,-95
525.77,1300,3120,14196,1169,536,-121
525.78,1380,3148,14052,1113,482,-131
525.79,1184,3216,13980,971,480,-99
525.8,1232,3172,14156,1002,465,-125
525.81,1424,3128,14076,1049,379,-88
525.82,1260,3228,14048,1034,357,-104
525.83,1348,3188,13952,1060,364,-81
525.84,1196,3348,14044,1074,355,-110
525.85,1304,3264,13944,1101,344,-85
525.86,1268,3316,13968,1072,363,-85
525.87,1252,3352,13888,1091,365,-88
525.88,1300,3492,14068,1126,402,-83
525.89,1228,3400,14016,1108,429,-73
525.9,1332,3468,13960,1008,478,-94
525.91,1232,3520,14136,967,430,-87
525.92,1264,3508,14232,902,455,-97
525.93,1256,3604,14168,891,450,-113
525.94,1232,3444,14052,900,456,-102
525.95,1328,3576,14064,871,393,-95
525.96,1236,3600,14132,741,359,-61
525.97,1220,3604,13984,633,319,-73
525.98,1212,3532,14040,643,267,-60
525.99,1232,3604,13980,711,325,-87
526.0,1376,3676,14068,982,457,-113
526.01,1228,3692,14276,1023,535,-95
526.02,1176,3728,14064,889,472,-110
526.03,1112,3792,13916,683,411,-66
526.04,1132,3756,13900,610,358,-43
526.05,1108,3744,14180,616,279,-63
526.06,1152,3732,13928,459,316,17
526.07,1036,3856,13584,-370,325,57
526.08,1320,3692,14088,-28,225,-1
526.09,1336,3944,14372,1189,584,-150
526.1,1120,3980,14048,767,314,-70
526.11,1152,3680,13928,204,247,-40
526.12,1048,3892,13612,161,302,11
526.13,1056,3688,13528,-478,-36,121
526.14,1224,3768,13516,207,139,28
526.15,1280,3740,14076,550,82,6
526.16,1176,3944,14168,681,-4,7
526.17,1108,3912,14160,695,44,-2
526.18,1088,3940,14072,469,99,-1
526.19,1048,3928,13996,445,160,18
526.2,1232,3980,13988,410,233,6
526.21,1188,4020,14060,396,395,-67
526.22,1264,3988,13856,295,375,-79
526.23,1244,3900,13764,262,351,-51
526.24,1200,3968,14004,478,326,-50
526.25,1184,4004,13960,602,306,-65
526.26,1352,4000,13988,610,333,-49
526.27,1140,3948,14072,506,292,-39
526.28,1136,3988,14036,364,311,-14
526.29,1160,3956,13900,306,315,-25
526.3,1196,4028,14032,223,312,-18
526.31,1092,3968,14112,180,264,-24
526.32,1140,3996,13960,149,294,-3
526.33,1144,4104,13848,103,269,-11
526.34,1160,4044,14020,96,284,-29
526.35,1176,4040,13968,102,298,-49
526.36,1232,4092,13876,139,313,-31
526.37,1128,4068,13828,199,359,-25
526.38,1052,4088,13920,215,360,-57
526.39,1228,4216,13860,286,355,-57
526.4,1104,4208,13828,240,288,-59
526.41,1260,4116,14004,490,524,-112
526.42,1048,4260,13988,326,540,-50
526.43,1104,4132,13500,-402,190,35
526.44,1208,4140,13864,-11,380,-2
526.45,1188,4144,13872,347,356,-84
526.46,1172,4112,13864,194,296,-69
526.47,1152,4200,13904,51,262,-48
526.48,1052,4240,13760,-87,216,-19
526.49,1032,4172,13980,10,197,-6
526.5,1128,4112,13908,51,176,-23
526.51,1176,4288,13976,29,235,-12
526.52,1044,4216,13936,48,252,-13
526.53,1092,4208,13924,72,295,-17
526.54,1184,4292,13904,30,291,-45
526.55,1136,4184,13896,-72,278,-11
526.56,1132,4108,13756,-113,255,-6
526.57,1044,4132,13836,-100,229,30
526.58,1092,4136,13944,-28,267,-33
526.59,1080,4108,13888,-34,231,-46
526.6,1012,4192,13848,-170,207,-6
526.61,1072,4204,13852,-150,241,-12
526.62,1004,4236,13888,-152,252,-4
526.63,1040,4176,14024,-148,246,-28
526.64,1140,4084,14000,-178,253,-29
526.65,1072,4120,13932,-202,241,-13
526.66,1132,4068,13968,-225,260,9
526.67,1204,4160,13948,-276,258,43
526.68,1072,4196,13888,-281,221,27
526.69,1172,4184,13876,-241,244,5
526.7,1060,4168,13836,-255,223,21
526.71,1088,4168,13836,-287,210,16
526.72,1132,4240,13936,-321,223,8
526.73,1048,4188,13936,-336,251,11
526.74,1104,4188,13840,-441,255,-14
526.75,1140,4232,13912,-543,227,26
526.76,1076,4164,14064,-678,190,32
526.77,1176,4172,13944,-750,196,29
526.78,1084,4164,13968,-881,189,49
526.79,1112,4032,13952,-979,231,48
526.8,1120,4156,13908,-1196,181,70
526.81,1092,4120,14116,-1432,132,64
526.82,1112,4084,13944,-1574,121,111
526.83,1080,4040,13860,-1622,24,124
526.84,1060,4052,13904,-1616,-3,117
526.85,1100,3928,13932,-1585,14,134
526.86,1092,3972,13904,-1618,54,123
526.87,1104,3848,14008,-1673,68,121
526.88,1200,3840,13976,-1703,26,130
526.89,1124,3708,13872,-1749,38,119
526.9,1156,3644,13960,-1736,59,107
526.91,1088,3700,13976,-1696,36,146
526.92,1180,3700,13932,-1708,22,161
526.93,1164,3688,14044,-1650,15,172
526.94,1172,3644,13972,-1687,-56,209
526.95,1176,3608,14040,-1745,-4,173
526.96,1160,3552,13956,-1714,0,199
526.97,1196,3544,13968,-1695,-86,161
526.98,1284,3500,14108,-1670,-6,150
526.99,1060,3444,14080,-1659,25,136
527.0,1188,3380,13960,-1724,43,117
527.01,1100,3424,14004,-1800,19,156
527.02,1168,3344,14120,-1726,12,125
527.03,1140,3392,14108,-1717,-18,147
527.04,1152,3208,14068,-1758,-32,154
527.05,1300,3212,14024,-1762,-60,158
527.06,1248,3184,14124,-1801,-17,161
527.07,1264,3156,14124,-1811,-56,126
527.08,1268,3168,14032,-1878,-108,150
527.09,1264,3000,13968,-1972,-187,148
527.1,1240,2944,13732,-2058,-274,180
527.11,1424,2928,13892,-1975,-190,140
527.12,1320,2932,14204,-1583,-101,70
527.13,1340,2996,14432,-1425,47,74
527.14,1296,2912,14112,-1521,1,60
527.15,1220,2836,14056,-1698,-63,83
527.16,1328,2772,14096,-1762,-189,110
527.17,1280,2664,14192,-1490,-232,105
527.18,1248,2720,14284,-1394,-40,105
527.19,1136,2932,14220,-1913,88,166
527.2,1388,2628,13720,-2670,-330,156
527.21,1604,2612,14752,-1651,19,19
527.22,1292,2760,14048,-1056,-339,35
527.23,1304,2600,13840,-2034,-654,125
527.24,1488,2452,14180,-1467,-3,48
527.25,1140,2488,13952,-1572,-195,153
527.26,1332,2436,13744,-2008,-490,179
527.27,1556,2332,14112,-1212,-50,45
527.28,1400,2676,14580,-547,65,17
527.29,1340,2728,14636,-879,11,30
527.3,1384,2620,14316,-1263,83,54
527.31,1280,2492,14232,-1580,93,65
527.32,1300,2468,14304,-1714,-14,89
527.33,1464,2416,14204,-1790,-108,109
527.34,1420,2368,14268,-1786,-62,60
527.35,1452,2172,14032,-1747,-54,45
527.36,1416,2188,13856,-1627,6,55
527.37,1420,2132,13932,-1456,-44,53
527.38,1548,1992,14032,-1037,-30,16
527.39,1460,2020,14412,-764,6,4
527.4,1528,2116,14384,-736,-59,19
527.41,1492,2040,14348,-852,31,-8
527.42,1488,2036,14224,-1011,23,16
527.43,1444,2068,14220,-1120,1,-5
527.44,1472,2008,14200,-1199,-91,24
527.45,1520,1988,14148,-1201,-61,6
527.46,1612,1972,14364,-1129,-19,-3
527.47,1552,2000,14212,-1226,52,-14
527.48,1596,1944,14232,-1181,-23,32
527.49,1600,1876,14140,-1149,40,-17
527.5,1552,1976,14308,-978,51,-12
527.51,1472,1940,14236,-865,89,9
527.52,1540,1940,14252,-737,127,-22
527.53,1408,1892,14252,-791,4,1
527.54,1528,1816,14412,-562,245,-1
527.55,1444,1896,14116,-847,100,5
527.56,1464,1800,14112,-1122,-45,68
527.57,1672,1656,14256,-774,-54,39
527.58,1528,1844,14176,-617,-93,-1
527.59,1676,1836,14200,-439,33,-10
527.6,1524,1792,14272,-487,85,-17
527.61,1460,1748,14172,-563,47,-3
527.62,1628,1804,14284,-561,-43,5
527.63,1596,1752,14332,-594,40,22
527.64,1544,1760,14328,-413,89,-25
527.65,1704,1716,14172,-330,124,-17
527.66,1584,1672,14256,-207,205,-35
527.67,1640,1616,14264,-92,222,7
527.68,1532,1668,14240,-59,267,3
527.69,1572,1664,14088,-30,258,-2
527.7,1532,1632,14132,134,232,3
527.71,1620,1660,14188,257,261,-16
527.72,1520,1744,14244,259,258,2
527.73,1640,1628,14208,277,266,13
527.74,1596,1712,14140,487,264,-34
527.75,1592,1832,14196,644,311,-65
527.76,1552,1776,14300,612,331,-39
527.77,1640,1780,14136,523,348,9
527.78,1492,1924,14348,439,299,36
527.79,1520,1852,14384,507,372,4
527.8,1472,1924,14300,531,362,-1
527.81,1376,1860,14148,495,379,-12
527.82,1524,1996,14260,532,306,-14
527.83,1516,1880,14196,515,306,-12
527.84,1524,1868,14192,512,277,-17
527.85,1712,1964,14384,590,353,-13
527.86,1492,1900,14292,611,351,-16
527.87,1484,1964,14196,579,347,-2
527.88,1520,2036,14260,556,342,5
527.89,1556,2020,14232,607,358,-17
527.9,1484,1932,14148,688,337,-52
527.91,1564,1908,14160,664,357,-31
527.92,1508,2032,14184,783,375,-25
527.93,1612,2032,14276,864,410,-28
527.94,1572,2000,14016,908,395,-46
527.95,1508,2144,14120,919,401,-4
527.96,1472,2168,14336,937,387,-48
527.97,1600,2096,14172,1000,419,-42
527.98,1480,2244,14272,1055,444,-44
527.99,1440,2208,14236,965,401,-71
528.0,1480,2260,14392,1038,386,-97
528.01,1524,2288,14392,1053,429,-57
528.02,1504,2332,14252,1081,477,-50
528.03,1440,2312,14260,1094,483,-43
528.04,1380,2284,14200,1020,446,-38
528.05,1440,2416,14248,985,437,-51
528.06,1376,2380,14120,925,413,-33
528.07,1528,2432,14148,933,396,-49
528.08,1488,2364,14080,1001,401,-40
528.09,1492,2448,14184,1322,533,-74
528.1,1472,2568,14372,1579,623,-109
528.11,1236,2604,14232,1641,621,-103
528.12,1372,2624,14088,1461,608,-99
528.13,1304,2612,13924,1306,499,-58
528.14,1252,2652,14116,1242,395,-51
528.15,1484,2688,14320,1328,412,-49
528.16,1336,2712,14188,1089,546,1
528.17,1332,2828,13728,146,409,67
528.18,1520,2508,14204,420,320,-40
528.19,1564,2676,14860,1896,669,-160
528.2,1292,2952,14184,1619,293,-67
528.21,1460,2840,13960,761,230,-60
528.22,1316,2764,14472,1287,741,-115
528.23,1112,2940,13696,616,176,55
528.24,1480,2740,13492,258,193,40
528.25,1436,2756,14112,1182,460,-82
528.26,1428,2980,14400,1609,328,-50
528.27,1404,3064,14368,1391,354,-78
528.28,1296,3116,14164,1157,419,-57
528.29,1284,3148,14260,1054,444,-52
528.3,1344,3268,14012,993,425,-20
528.31,1324,3232,14136,887,444,-6
528.32,1308,3236,14108,859,518,-66
528.33,1280,3120,14132,828,481,-60
528.34,1348,3212,13876,819,490,-45
528.35,1276,3132,13856,906,429,-101
528.36,1408,3160,14008,1130,337,-97
528.37,1344,3200,14040,1234,414,-111
528.38,1264,3128,14128,1206,384,-106
528.39,1304,3252,14204,1133,439,-67
528.4,1320,3328,14296,1004,430,-83
528.41,1296,3340,14116,882,454,-56
528.42,1184,3388,14140,820,434,-84
528.43,1268,3372,13980,702,350,-61
528.44,1292,3444,14036,707,339,-72
528.45,1232,3416,14108,644,300,-41
528.46,1252,3472,13956,590,321,-56
528.47,1232,3444,14072,643,318,-81
528.48,1204,3468,14140,713,320,-68
528.49,1312,3588,13984,835,378,-72
528.5,1204,3524,14004,932,370,-48
528.51,1168,3584,14024,911,309,-110
528.52,1200,3592,14288,1081,590,-132
528.53,1076,3632,13980,965,501,-62
528.54,1176,3572,13892,426,404,-20
528.55,1192,3452,13852,244,315,-45
528.56,1128,3440,13932,692,342,-91
528.57,1264,3596,14128,928,314,-110
528.58,1320,3628,13964,694,295,-79
528.59,1264,3728,13936,526,312,-37
528.6,1048,3724,13996,616,273,-24
528.61,1220,3748,13892,619,196,-49
528.62,1260,3760,13888,640,266,-26
528.63,1164,3700,14028,704,320,-87
528.64,1280,3680,13968,728,347,-81
528.65,1236,3864,13828,711,366,-64
528.66,1180,3856,13888,592,356,-68
528.67,1176,3724,13860,501,342,-29
528.68,1224,3816,14060,477,332,-35
528.69,1128,3768,14080,617,316,-43
528.7,1080,3852,14044,522,328,-71
528.71,1152,3748,13932,395,302,-51
528.72,1192,3904,13772,470,329,-72
528.73,1216,3868,13900,515,346,-56
528.74,968,3912,14044,481,361,-69
528.75,1088,3940,14004,462,297,-72
528.76,1032,4012,13884,446,245,-43
528.77,1140,3972,14080,394,287,-47
528.78,1112,3864,13976,371,294,-34
528.79,1148,3916,13956,366,324,-35
528.8,1068,4012,13880,366,331,-49
528.81,1080,4064,13824,330,287,-23
528.82,1160,4104,13916,324,310,-31
528.83,1060,4024,13748,368,309,-27
528.84,1168,4028,14028,389,325,-25
528.85,1080,4100,13860,304,315,-32
528.86,1156,4036,13904,318,297,-34
528.87,1172,3980,13880,286,318,-66
528.88,1164,4004,13936,273,298,-38
528.89,1124,4028,13936,297,302,-30
528.9,1140,4004,13952,232,288,-46
528.91,1164,4044,13996,283,339,-30
528.92,1072,4056,13816,264,314,-49
528.93,1296,4088,13920,209,281,-19
528.94,1168,4020,13956,224,288,-37
528.95,1032,4140,13756,194,291,-27
528.96,992,4172,13848,178,289,-16
528.97,1232,4188,13828,165,288,-59
528.98,1120,4084,13932,175,279,-52
528.99,1192,4176,13912,157,264,-27
529.0,1028,4112,13784,144,288,-30
529.01,1064,4096,13888,119,290,-24
529.02,1048,4156,13788,79,278,-40
529.03,1080,4060,13896,59,245,-22
529.04,1056,4172,13820,24,275,-34
529.05,1056,4244,13796,-9,270,-46
529.06,1188,4072,13868,-27,264,-24
529.07,1176,4148,13836,-19,285,-32
529.08,1112,4060,13868,-27,276,-29
529.09,1172,4284,13928,-65,292,-29
529.1,1184,4084,13776,-67,284,-16
529.11,1168,4112,13844,-79,278,-14
529.12,1024,4136,13864,-96,251,-10
529.13,1048,4184,13932,-111,248,-35
529.14,1116,4276,13860,-117,264,-36
529.15,1156,4068,13984,-129,284,-16
529.16,1056,4180,13892,-184,276,-24
529.17,1204,4140,13960,-250,272,12
529.18,1064,4228,13860,-452,230,8
529.19,1060,4172,13816,-609,154,15
529.2,1084,4168,13844,-706,175,13
529.21,1220,4112,14052,-600,291,-23
529.22,1164,4256,14000,-592,341,-54
529.23,1096,4160,14016,-748,291,-40
529.24,1104,4232,13916,-943,232,6
529.25,1128,4044,13796,-1089,103,51
529.26,1100,3936,13664,-1123,-6,64
529.27,1252,4060,14112,-1029,-41,93
529.28,1152,4048,13784,-1460,111,192
529.29,1076,3908,13416,-2072,-226,242
529.3,1392,3828,14296,-1044,182,53
529.31,1156,4124,14164,-300,219,19
529.32,1116,4036,13660,-1367,-232,138
529.33,1080,3892,13848,-1375,67,140
529.34,1072,3840,13524,-1610,-93,193
529.35,1116,3732,13616,-1822,-311,246
529.36,1216,3664,13808,-1180,-231,174
529.37,1292,3740,14108,-792,-173,135
529.38,1216,3920,14256,-991,-227,133
529.39,1084,3904,14164,-1396,-187,201
529.4,1068,3944,14204,-1635,-132,195
529.41,1116,3720,13996,-1605,-48,235
529.42,1192,3848,13988,-1434,-54,196
529.43,1244,3628,14212,-1434,76,146
529.44,1196,3692,13924,-1584,106,139
529.45,1220,3508,13884,-1783,89,147
529.46,1260,3432,13956,-1667,-109,171
529.47,1264,3388,13876,-1400,-171,193
529.48,1376,3404,14240,-1210,-61,129
529.49,1352,3532,14088,-1200,-23,149
529.5,1244,3392,14304,-1373,88,99
529.51,1264,3256,14032,-1576,41,148
529.52,1132,3276,14112,-1703,26,156
529.53,1276,3256,14044,-1719,-55,200
529.54,1312,3296,14080,-1675,-111,181
529.55,1372,3232,14036,-1717,-85,179
529.56,1300,3212,14024,-1661,-109,149
529.57,1296,3084,14104,-1610,-53,159
529.58,1260,3300,14156,-1545,-43,116
529.59,1232,3080,14096,-1497,29,129
529.6,1376,3192,14116,-1427,51,109
529.61,1256,3104,14032,-1321,71,82
529.62,1228,3072,14300,-1224,46,128
529.63,1380,2948,14228,-1236,-24,61
529.64,1260,3080,14152,-1176,81,129
529.65,1236,2924,14088,-1463,-49,161
529.66,1400,2900,13676,-1798,-138,152
529.67,1400,2756,14056,-1256,-48,55
529.68,1352,2840,14176,-917,-108,43
529.69,1400,2888,14224,-1126,-128,57
529.7,1448,2812,14052,-1455,-82,93
529.71,1332,2944,14240,-1453,-91,85
529.72,1504,2828,14280,-1349,-149,56
529.73,1524,2852,14216,-1348,-93,57
529.74,1444,2804,14264,-1363,6,24
529.75,1420,2724,14176,-1283,-22,13
529.76,1392,2756,14236,-1365,43,22
529.77,1396,2684,14184,-1423,28,31
529.78,1436,2488,14172,-1460,-24,53
529.79,1420,2536,14204,-1584,-64,59
529.8,1484,2528,14116,-1476,-42,-1
529.81,1432,2484,14160,-1356,-137,52
529.82,1456,2476,13960,-1338,-102,-13
529.83,1468,2456,14052,-1292,-112,39
529.84,1508,2440,14148,-1157,-43,30
529.85,1480,2332,14076,-1142,-44,45
529.86,1456,2332,14268,-1131,-39,-3
529.87,1336,2416,14124,-1199,-35,44
529.88,1544,2316,14164,-1278,-13,43
529.89,1512,2312,14200,-1328,24,32
529.9,1300,2268,14268,-1252,3,35
529.91,1492,2388,14244,-1159,-15,42
529.92,1476,2348,14192,-1096,-27,8
529.93,1636,2228,14268,-1096,-13,32
529.94,1532,2288,14336,-1030,52,4
529.95,1504,2160,14256,-1079,-23,19
529.96,1536,2140,14208,-1101,-13,14
529.97,1420,2196,14260,-1064,31,12
529.98,1600,2156,14124,-1054,-13,19
529.99,1620,2132,14384,-1028,35,-34
530.0,1528,2120,14268,-965,74,16
530.01,1644,2056,14184,-938,26,29
530.02,1496,2024,14280,-859,2,14
530.03,1564,1992,14204,-921,36,-3
530.04,1664,2056,14344,-931,22,22
530.05,1512,1932,14120,-885,40,-5
530.06,1556,2008,14204,-820,2,7
530.07,1540,1940,14216,-771,20,-25
530.08,1616,1868,14296,-735,46,33
530.09,1648,1960,14228,-731,66,16
530.1,1568,1916,14212,-674,58,13
530.11,1492,1896,14152,-626,78,4
530.12,1604,1916,14168,-563,83,17
530.13,1580,1900,14308,-548,104,47
530.14,1592,1844,14172,-487,107,51
530.15,1584,1856,14068,-452,53,16
530.16,1524,1860,14264,-407,141,18
530.17,1512,1832,14196,-295,114,36
530.18,1776,1844,14316,-223,125,33
530.19,1608,1816,14264,-67,177,26
530.2,1564,1928,14232,-16,204,5
530.21,1616,1924,14248,19,197,8
530.22,1660,1824,14184,9,160,15
530.23,1604,1916,14120,-30,172,51
530.24,1572,1816,14272,249,295,2
530.25,1588,1844,14356,536,417,-41
530.26,1636,1856,14484,560,394,-56
530.27,1516,1976,14260,466,333,-39
530.28,1452,1800,13996,419,258,2
530.29,1564,1876,13988,493,199,0
530.3,1628,2028,14364,718,269,-30
530.31,1664,2056,14540,700,433,-33
530.32,1472,2192,14040,-59,452,61
530.33,1576,1992,13744,-502,78,89
530.34,1900,1892,14868,1123,625,-100
530.35,1552,2132,14384,1398,211,-104
530.36,1528,2076,13904,226,-115,16
530.37,1728,1848,14404,1009,467,-66
530.38,1480,2168,13964,866,332,2
530.39,1408,2004,13676,107,-107,113
530.4,1612,1908,13992,928,370,24
530.41,1680,2152,14472,1573,522,-51
530.42,1532,2336,14588,1554,585,-53
530.43,1548,2376,14400,1208,537,-45
530.44,1556,2420,14296,696,394,14
530.45,1488,2392,14216,551,401,13
530.46,1472,2380,14368,514,361,-6
530.47,1564,2380,14092,573,409,-28
530.48,1516,2220,14116,548,379,14
530.49,1532,2264,14096,549,397,-5
530.5,1464,2256,13800,703,387,-13
530.51,1636,2316,14076,1021,398,-68
530.52,1588,2260,14160,1382,433,-69
530.53,1596,2416,14280,1445,448,-72
530.54,1568,2488,14396,1351,511,-84
530.55,1448,2416,14272,1267,494,-65
530.56,1520,2476,14340,1180,445,-67
530.57,1604,2516,14060,1097,438,-83
530.58,1488,2552,14204,1016,369,-35
530.59,1504,2568,14156,980,340,-51
530.6,1452,2536,14016,914,406,-57
530.61,1512,2660,14100,841,418,-46
530.62,1488,2720,14152,928,437,-67
530.63,1432,2728,14208,991,440,-56
530.64,1456,2732,14292,1189,521,-85
530.65,1364,2932,14232,1167,482,-111
530.66,1332,2744,14368,1154,569,-105
530.67,1396,2804,14088,997,639,-48
530.68,1472,2932,13932,496,388,-21
530.69,1496,2860,13972,634,430,-65
530.7,1408,2848,13928,844,384,-85
530.71,1396,2824,14044,941,270,-76
530.72,1496,2872,14224,1242,429,-100
530.73,1392,3008,14180,1085,336,-62
530.74,1308,3120,14048,933,375,-80
530.75,1360,3016,14008,925,347,-51
530.76,1420,3004,14164,826,347,-73
530.77,1416,3012,14180,934,372,-120
530.78,1396,3124,14052,1082,398,-83
530.79,1328,3212,14124,1114,406,-127
530.8,1400,3128,13960,1030,460,-84
530.81,1364,3148,13984,915,426,-95
530.82,1348,3060,14008,944,375,-88
530.83,1376,3168,14164,1047,407,-99
530.84,1344,3352,14044,983,398,-96
530.85,1392,3168,13992,773,395,-107
530.86,1388,3240,14068,878,464,-93
530.87,1292,3292,13992,962,459,-102
530.88,1264,3300,14116,1021,396,-84
530.89,1348,3264,14008,920,388,-75
530.9,1196,3276,14064,792,373,-67
530.91,1308,3320,13948,895,370,-56
530.92,1416,3420,13952,900,401,-94
530.93,1236,3488,13972,884,430,-103
530.94,1280,3500,14016,844,429,-86
530.95,1376,3560,14036,842,481,-74
530.96,1316,3460,13992,767,402,-86
530.97,1332,3592,14208,803,391,-112
530.98,1232,3492,14112,843,419,-46
530.99,1192,3516,14056,707,426,-76
531.0,1324,3576,13876,709,300,-100
531.01,1396,3540,13896,640,349,-53
531.02,1276,3620,13816,592,306,-40
531.03,1152,3660,14044,634,317,-59
531.04,1220,3628,13852,695,316,-36
531.05,1124,3696,13964,711,298,-76
531.06,1232,3668,13924,699,377,-93
531.07,1364,3792,14076,666,360,-70
531.08,1260,3744,13964,616,386,-75
531.09,1280,3736,13920,569,352,-86
531.1,1280,3708,13968,525,370,-107
531.11,1228,3788,13856,520,325,-70
531.12,1160,3728,13884,497,325,-81
531.13,1312,3656,14068,482,313,-65
531.14,1172,3784,13908,478,299,-51
531.15,1308,3832,14028,524,301,-71
531.16,1188,3772,13980,521,344,-54
531.17,1156,3864,13884,462,281,-40
531.18,1272,3812,14040,452,340,-45
531.19,1316,3828,14060,443,323,-46
531.2,1244,3976,14008,435,337,-68
531.21,1228,3956,13964,455,364,-69
531.22,1220,3948,14036,424,417,-45
531.23,1288,3920,13952,462,376,-50
531.24,1204,3952,13988,307,362,-37
531.25,1204,3900,13692,210,285,-35
531.26,1256,3900,13776,170,262,-26
531.27,1168,3896,13936,174,295,-45
531.28,1172,3944,14040,434,419,-59
531.29,1268,3988,14092,535,442,-89
531.3,1192,4108,13972,415,416,-71
531.31,1080,4032,13704,230,377,-78
531.32,1276,4064,13948,151,287,-49
531.33,1184,4024,13964,201,221,-58
531.34,1148,3956,14088,38,227,15
531.35,1132,4064,13556,-582,308,85
531.36,1256,3908,13848,-486,148,18
531.37,1376,4080,14508,668,587,-68
531.38,1072,4292,14232,499,234,-98
531.39,1104,4088,13672,-233,23,20
531.4,1172,4076,13744,-116,246,13
531.41,1068,3976,13568,-478,29,99
531.42,1144,3868,13520,-419,18,105
531.43,1228,3956,13744,37,127,56
531.44,1316,4080,14012,206,20,19
531.45,1208,4004,14088,138,-68,36
531.46,1192,4116,13932,-133,-15,69
531.47,1176,4052,14048,-174,50,79
531.48,1196,4128,13912,-58,140,11
531.49,1180,4060,13944,27,199,16
531.5,1184,4092,13928,117,285,-32
531.51,1276,4152,13756,120,346,-63
531.52,1184,4032,13792,128,328,-28
531.53,1152,4104,13876,284,290,-20
531.54,1224,4048,13892,340,223,-34
531.55,1280,4084,13968,362,251,-43
531.56,1240,4112,13996,206,249,-28
531.57,1156,4096,14004,140,273,-22
531.58,1148,4044,13928,41,315,-30
531.59,1116,4132,13932,-84,302,-30
531.6,1252,4068,13808,-65,262,-32
531.61,1188,4156,13900,-92,275,-57
531.62,1220,4040,13828,-134,291,-8
531.63,1188,4028,13844,-146,289,-3
531.64,1172,4184,13720,-126,241,1
531.65,1204,4192,13784,-90,247,-8
531.66,1308,4052,13752,-45,249,-11
531.67,1056,4124,13968,-1,265,-21
531.68,1188,4208,13960,12,296,-24
531.69,1192,4256,13896,-10,249,-31
531.7,1204,4148,14000,83,324,-63
531.71,1088,4164,13968,148,535,-76
531.72,1184,4148,13636,-428,252,26
531.73,1168,3988,13756,-380,302,-5
531.74,1276,4072,14012,116,335,-76
531.75,1124,4112,13920,43,247,-40
531.76,1104,4160,13948,-123,221,-29
531.77,1124,4128,13740,-310,210,20
531.78,1164,4280,14016,-341,140,18
531.79,1200,4196,13808,-302,70,44
531.8,1236,4208,13884,-369,136,22
531.81,1152,4144,13980,-398,157,19
531.82,1236,4236,13972,-410,147,4
531.83,1136,4296,14068,-608,145,35
531.84,1196,4092,13920,-687,125,49
531.85,1024,4088,13840,-722,98,80
531.86,1160,4012,13800,-776,3,74
531.87,1192,4152,13952,-795,13,91
531.88,1148,4052,13920,-1005,-33,148
531.89,1164,4000,13876,-1151,-30,137
531.9,1212,3920,13880,-1140,-12,103
531.91,1216,4032,14024,-1143,63,100
531.92,1184,3976,13904,-1212,79,99
531.93,1220,3896,13876,-1374,49,132
531.94,1200,3944,13812,-1485,9,155
531.95,1224,3884,13832,-1556,-27,165
531.96,1168,3812,14080,-1516,-7,167
531.97,1192,3804,14040,-1422,-28,184
531.98,1140,3768,13880,-1450,-58,152
531.99,1112,3732,14004,-1530,-27,147
532.0,1248,3748,13936,-1574,23,132
532.01,1204,3732,13980,-1557,-12,144
532.02,1372,3624,14004,-1632,-22,158
532.03,1188,3640,14040,-1638,-14,189
532.04,1312,3628,13912,-1749,17,159
532.05,1252,3584,13888,-1744,-10,169
532.06,1248,3420,13896,-1724,-45,166
532.07,1244,3324,14076,-1741,-49,175
532.08,1420,3368,14044,-1675,-62,154
532.09,1364,3440,14068,-1636,-48,182
532.1,1332,3376,14012,-1724,-55,140
532.11,1312,3356,14088,-1670,-65,178
532.12,1420,3288,14152,-1702,-42,181
532.13,1420,3320,14140,-1793,-84,184
532.14,1336,3196,14020,-1934,-128,169
532.15,1368,3092,13916,-2018,-133,192
532.16,1328,3104,14032,-1850,-120,149
532.17,1344,3104,14084,-1812,-111,179
532.18,1296,3128,14264,-1788,-82,123
532.19,1332,3056,14112,-1778,-92,134
532.2,1376,2924,14204,-1747,-87,114
532.21,1440,2948,14116,-1779,-110,111
532.22,1452,2884,14060,-1809,-108,129
532.23,1356,2832,14020,-1719,-120,124
532.24,1380,2704,14112,-1631,-121,112
532.25,1424,2840,14244,-1513,-65,102
532.26,1492,2852,14016,-1505,-14,70
532.27,1384,2728,14296,-1447,-82,77
532.28,1372,2752,14136,-1601,-83,84
532.29,1488,2792,14052,-1822,-117,101
532.3,1384,2600,13960,-1927,-166,86
532.31,1440,2548,14092,-1692,-182,101
532.32,1540,2552,14356,-1403,-32,74
532.33,1424,2556,14420,-1177,94,4
532.34,1432,2644,14264,-1205,21,10
532.35,1436,2588,14248,-1370,-60,47
532.36,1420,2432,14036,-1463,-109,70
532.37,1552,2384,14112,-1358,-185,60
532.38,1504,2416,14412,-1114,-53,71
532.39,1556,2472,14184,-1522,128,113
532.4,1548,2388,13448,-2540,-202,172
532.41,1796,2040,14744,-1531,13,2
532.42,1712,2280,14572,-314,98,-46
532.43,1504,2364,13640,-1639,-661,124
532.44,1704,2024,14268,-1313,-29,6
532.45,1384,2260,13880,-1185,-78,77
532.46,1532,2056,13788,-1754,-445,152
532.47,1600,2016,14148,-1087,-20,78
532.48,1648,2192,14632,-527,144,12
532.49,1564,2160,14672,-664,119,-17
532.5,1492,2332,14484,-1033,28,22
532.51,1596,2148,14488,-1455,30,49
532.52,1616,2216,14280,-1564,-36,108
532.53,1684,2072,14220,-1676,-5,38
532.54,1672,1992,13984,-1597,-11,42
532.55,1636,1844,14136,-1474,-1,63
532.56,1580,1888,13792,-1326,-34,36
532.57,1632,1812,14004,-1129,-14,22
532.58,1672,1784,14148,-845,-3,44
532.59,1684,1848,14344,-338,-16,14
532.6,1608,1856,14448,-398,25,-6
532.61,1664,1820,14384,-583,58,15
532.62,1660,1860,14192,-595,147,17
532.63,1620,1900,14208,-727,130,-3
532.64,1616,1812,14184,-691,105,8
532.65,1680,1716,14052,-825,30,37
532.66,1576,1712,14152,-729,29,14
532.67,1616,1744,14152,-665,118,6
532.68,1708,1784,13936,-725,131,-3
532.69,1716,1732,14256,-454,124,14
532.7,1720,1876,14096,-340,192,-18
532.71,1688,1740,14312,-235,239,-35
532.72,1632,1768,14484,6,197,13
532.73,1604,1848,14292,-69,145,25
532.74,1688,1736,14468,319,390,-26
532.75,1592,1780,14184,189,287,22
532.76,1656,1660,13948,-232,178,75
532.77,1764,1700,13992,357,312,-2
532.78,1732,1776,14160,382,250,-17
532.79,1668,1676,14256,524,220,-31
532.8,1732,1836,14236,704,344,-16
532.81,1668,1824,14284,601,314,-14
532.82,1696,1804,14188,679,297,-18
532.83,1652,1928,14160,625,256,-22
532.84,1680,1836,14412,731,304,-54
532.85,1672,1900,14348,843,371,-46
532.86,1616,1928,14236,821,374,-52
532.87,1588,1952,14176,793,429,-45
532.88,1572,1992,14288,718,415,-64
532.89,1568,1908,14304,688,348,-50
532.9,1684,1948,14244,677,295,-59
532.91,1584,2068,14308,751,319,-23
532.92,1544,1972,14112,760,256,-17
532.93,1644,2016,14180,761,351,-42
532.94,1624,2060,14172,886,375,-28
532.95,1512,2056,14280,1127,381,-72
532.96,1560,2152,14300,1167,332,-27
532.97,1640,2148,14144,1119,380,-48
532.98,1664,2212,14108,1086,444,-42
532.99,1656,2280,14292,1097,479,-28
533.0,1596,2244,14140,1136,502,-50
533.01,1492,2300,14236,1107,477,-30
533.02,1556,2420,14256,1150,494,-60
533.03,1568,2384,14136,1160,474,-70
533.04,1540,2408,14284,1110,458,-74
533.05,1536,2488,14352,1132,495,-62
533.06,1484,2464,14164,1147,471,-74
533.07,1632,2484,14084,1039,438,-50
533.08,1552,2484,14208,1022,444,-79
533.09,1400,2468,14272,1074,423,-36
533.1,1512,2620,14188,1127,416,-67
533.11,1480,2484,14272,1079,441,-52
533.12,1424,2616,14160,994,450,-96
533.13,1632,2568,14248,994,404,-52
533.14,1544,2600,14180,932,455,-73
533.15,1648,2620,14140,996,401,-66
533.16,1568,2708,14212,1156,440,-96
533.17,1488,2732,14080,1081,409,-63
533.18,1428,2744,14184,1038,418,-108
533.19,1560,2640,14144,1125,441,-127
533.2,1532,2800,14016,1108,445,-78
533.21,1452,2816,14096,1129,437,-112
533.22,1540,2836,14216,1160,459,-68
533.23,1440,2828,14264,1166,506,-87
533.24,1408,2936,14232,1141,531,-81
533.25,1440,2996,14188,1033,493,-63
533.26,1448,2996,13996,776,462,-56
533.27,1400,3052,14020,691,385,-55
533.28,1572,2912,14076,758,421,-70
533.29,1372,2996,14072,968,483,-92
533.3,1396,3032,14148,1152,514,-130
533.31,1440,3064,14152,1098,525,-72
533.32,1388,3148,14100,859,422,-112
533.33,1388,3100,14088,814,403,-100
533.34,1436,3036,14124,907,271,-52
533.35,1452,3196,14176,878,401,-29
533.36,1332,3340,13584,4,430,82
533.37,1508,3080,13900,171,290,-26
533.38,1648,3180,14692,1552,719,-208
533.39,1304,3408,14096,1145,146,-77
533.4,1432,3236,13900,390,109,-7
533.41,1424,3236,13960,728,465,-61
533.42,1276,3152,13476,147,20,80
533.43,1476,3100,13636,175,121,49
533.44,1464,3168,14124,905,252,-75
533.45,1504,3296,14332,1126,107,-74
533.46,1564,3424,14452,1024,95,-57
533.47,1304,3520,14204,688,175,-76
533.48,1188,3636,14300,518,271,-37
533.49,1392,3484,13952,561,318,-43
533.5,1240,3536,13944,642,343,-14
533.51,1372,3600,13840,658,389,-49
533.52,1292,3480,13808,573,363,-64
533.53,1464,3408,13908,594,314,-68
533.54,1452,3556,13976,922,232,-55
533.55,1444,3492,13940,1007,222,-80
533.56,1492,3508,14128,1007,335,-119
533.57,1364,3540,14124,929,331,-50
533.58,1464,3556,14140,784,391,-73
533.59,1420,3688,14008,696,421,-70
533.6,1336,3684,14056,598,406,-86
533.61,1440,3640,13944,516,394,-60
533.62,1284,3700,14076,446,373,-85
533.63,1316,3620,13868,398,318,-79
533.64,1356,3684,13740,383,325,-52
533.65,1340,3736,13944,374,322,-83
533.66,1288,3724,13992,443,320,-79
533.67,1340,3764,14008,522,375,-71
533.68,1348,3792,13840,595,412,-79
533.69,1376,3788,14032,627,389,-96
533.7,1172,3896,13912,509,344,-88
533.71,1308,3748,14136,768,721,-164
533.72,1296,3820,13956,297,441,-67
533.73,1188,3732,13608,-170,405,-65
533.74,1316,3684,13772,131,410,-88
533.75,1284,3896,13960,559,396,-100
533.76,1268,3796,14208,416,270,-75
533.77,1296,3888,13820,249,256,-69
533.78,1284,3804,13956,156,235,-48
533.79,1344,3904,13916,193,174,-15
533.8,1340,4036,13976,250,185,7
533.81,1332,3936,13896,283,197,10
533.82,1368,3936,14016,362,275,-30
533.83,1276,3992,13992,397,274,-70
533.84,1376,3900,13864,368,308,-42
533.85,1272,4008,13904,298,336,-68
533.86,1204,3904,13976,254,312,-59
533.87,1340,3916,13916,283,281,-42
533.88,1296,3972,13912,352,259,-50
533.89,1216,3792,13732,239,225,-31
533.9,1208,3936,13752,263,254,-15
533.91,1328,4004,13828,339,291,-47
533.92,1232,3952,13960,299,289,-70
533.93,1236,3976,13880,323,286,-30
533.94,1280,4096,13836,276,272,-22
533.95,1296,3996,13944,282,286,-45
533.96,1292,4016,13940,255,262,-15
533.97,1288,4132,13948,261,269,-38
533.98,1220,4088,13900,274,217,1
533.99,1336,4100,13868,295,261,-38
534.0,1248,4180,13856,247,252,-26
534.01,1168,4036,13964,225,278,3
534.02,1264,4020,13908,259,241,-3
534.03,1268,4096,13956,262,293,-42
534.04,1160,4032,13772,222,255,-10
534.05,1280,4068,13768,187,257,12
534.06,1264,4024,13948,165,247,-6
534.07,1276,4152,13936,162,263,-27
534.08,1268,4156,13928,161,283,-45
534.09,1280,4116,13908,173,292,-18
534.1,1292,4084,13736,115,308,-40
534.11,1292,4152,13908,126,290,-37
534.12,1304,4208,13744,61,250,-33
534.13,1240,4088,14016,1,283,-30
534.14,1248,4244,13808,-17,247,-25
534.15,1196,4268,13832,-95,245,-34
534.16,1204,4120,13868,-152,219,-10
534.17,1292,4100,13852,-167,239,11
534.18,1208,4208,13816,-201,237,-12
534.19,1160,4196,13872,-254,202,4
534.2,1276,4180,13956,-288,204,-1
534.21,1256,4244,13920,-321,244,20
534.22,1300,4128,13720,-358,215,6
534.23,1368,4096,13824,-358,193,10
534.24,1172,4212,13924,-374,168,-3
534.25,1284,4120,13868,-434,184,11
534.26,1268,4152,13988,-463,189,31
534.27,1300,4200,13948,-489,184,9
534.28,1292,4096,13860,-535,179,25
534.29,1356,4132,13944,-586,174,36
534.3,1272,4140,13916,-661,140,38
534.31,1200,4120,14040,-664,170,46
534.32,1236,4152,13904,-726,188,43
534.33,1168,4084,14060,-808,146,40
534.34,1236,3956,13896,-966,120,65
534.35,1268,4048,13812,-1139,23,99
534.36,1332,3944,13912,-1183,57,100
534.37,1312,4008,14016,-959,164,60
534.38,1192,3956,14144,-902,199,60
534.39,1268,3916,14016,-1036,155,55
534.4,1292,3876,14040,-1204,167,71
534.41,1248,3920,14012,-1448,-24,161
534.42,1208,3828,14128,-1422,-202,179
534.43,1240,3832,14072,-1484,-130,236
534.44,1272,3932,13564,-2309,-28,307
534.45,1444,3648,13956,-2365,-301,265
534.46,1648,3692,14528,-1124,117,137
534.47,1220,3912,13932,-1220,-219,173
534.48,1284,3656,13588,-2108,-416,272
534.49,1364,3528,13756,-1866,-93,228
534.5,1192,3456,13408,-2154,-379,308
534.51,1252,3260,13644,-1980,-343,274
534.52,1516,3276,13956,-1294,-220,210
534.53,1516,3456,14284,-834,-255,136
534.54,1368,3528,14328,-1128,-275,188
534.55,1288,3524,14348,-1427,-222,213
534.56,1360,3556,14268,-1482,-147,203
534.57,1320,3548,13836,-1509,-105,211
534.58,1460,3392,14072,-1535,16,182
534.59,1376,3320,13804,-1580,28,163
534.6,1484,3176,13932,-1719,-7,167
534.61,1428,3168,13788,-1615,-107,178
534.62,1560,3120,13944,-1290,-124,144
534.63,1500,3108,14072,-1061,-62,129
534.64,1436,3084,14220,-1026,10,96
534.65,1452,3076,14352,-1154,20,104
534.66,1436,3112,14304,-1234,15,100
534.67,1348,3072,14156,-1336,55,135
534.68,1432,3000,14084,-1365,13,122
534.69,1624,3016,14208,-1299,-49,118
534.7,1484,2944,14100,-1371,-52,118
534.71,1492,2936,13944,-1397,13,96
534.72,1432,2880,14176,-1377,-33,86
534.73,1584,2964,14120,-1278,22,84
534.74,1536,2896,14260,-1302,65,52
534.75,1516,2932,14056,-1216,105,20
534.76,1428,2908,14140,-1178,119,43
534.77,1540,2808,14072,-1222,110,42
534.78,1348,2828,13980,-1334,-8,23
534.79,1460,2632,14320,-1013,244,44
534.8,1492,2788,13908,-1196,27,76
534.81,1556,2756,13964,-1422,35,58
534.82,1576,2584,13988,-1199,1,24
534.83,1628,2764,14260,-711,-30,9
534.84,1564,2716,14052,-725,-76,25
534.85,1608,2712,14148,-938,-31,44
534.86,1568,2632,14164,-1064,-41,70
534.87,1560,2716,14156,-1009,-1,-4
534.88,1716,2592,14280,-988,-10,19
534.89,1576,2576,14184,-1069,47,1
534.9,1584,2700,14164,-1107,47,14
534.91,1684,2600,14272,-1113,113,19
534.92,1484,2444,14212,-1160,67,11
534.93,1532,2400,14196,-1183,100,23
534.94,1496,2404,14144,-1226,52,24
534.95,1564,2368,14220,-1266,-11,23
534.96,1668,2328,14260,-1142,1,3
534.97,1656,2324,14020,-1106,-22,8
534.98,1628,2432,14032,-1078,5,7
534.99,1584,2268,14184,-1085,35,3
535.0,1632,2232,14148,-1002,-17,29
535.01,1644,2256,14132,-940,10,-6
535.02,1688,2300,14036,-1026,45,5
535.03,1584,2204,14128,-1036,58,38
535.04,1680,2260,14244,-1096,58,62
535.05,1596,2132,14160,-1055,51,39
535.06,1680,2212,14168,-983,49,26
535.07,1688,2216,14176,-933,24,38
535.08,1696,2096,14108,-905,34,35
535.09,1668,2244,14196,-838,88,39
535.1,1656,2184,14360,-812,64,16
535.11,1644,2116,14260,-791,81,32
535.12,1588,2156,14264,-752,122,-11
535.13,1636,2156,14152,-715,100,-16
535.14,1708,2128,14364,-744,57,7
535.15,1748,2104,14196,-657,103,11
535.16,1644,2068,14316,-624,121,-2
535.17,1632,2072,14204,-628,115,18
535.18,1716,2020,14276,-629,77,26
535.19,1620,2000,14184,-635,94,48
535.2,1656,2048,14048,-548,102,22
535.21,1724,2096,14156,-547,73,15
535.22,1656,1948,14300,-490,83,-8
535.23,1756,1940,14312,-384,84,-14
535.24,1612,2032,14036,-347,158,-1
535.25,1692,2040,14140,-305,133,-1
535.26,1640,1852,14260,-213,156,15
535.27,1776,1952,14168,-134,136,-2
535.28,1776,1920,14292,-81,233,-10
535.29,1644,1944,14088,67,186,12
535.3,1684,2060,14052,44,207,31
535.31,1692,2028,14080,193,215,10
535.32,1828,2064,14164,261,288,20
535.33,1680,2048,14300,284,288,-21
535.34,1712,2152,14140,257,296,-25
535.35,1764,2040,14168,290,328,-15
535.36,1704,2048,14236,420,368,-25
535.37,1644,2144,14204,443,406,-43
535.38,1616,2120,14276,380,386,-31
535.39,1648,2144,14208,358,292,-19
535.4,1716,2100,14116,287,218,-27
535.41,1680,2008,14124,177,172,15
535.42,1696,2140,14184,354,307,-7
535.43,1736,2080,14300,615,367,-42
535.44,1608,2244,14280,604,317,-53
535.45,1608,2236,13980,508,283,-33
535.46,1680,2196,14104,431,259,-6
535.47,1736,2036,14036,503,205,-25
535.48,1688,2196,14304,825,265,-40
535.49,1636,2148,14388,767,509,-8
535.5,1548,2376,13644,-297,327,83
535.51,1768,2024,14104,-61,274,22
535.52,1488,2348,14424,1633,317,-115
535.53,1568,2360,14168,1075,12,-60
535.54,1756,2172,14012,303,-12,26
535.55,1708,2244,14116,1034,517,-67
535.56,1500,2248,13660,175,-77,104
535.57,1812,2164,13980,553,162,52
535.58,1768,2384,14380,1296,437,-25
535.59,1612,2484,14656,1440,392,-74
535.6,1640,2552,14332,1166,384,-26
535.61,1616,2640,14348,729,358,18
535.62,1616,2660,14292,580,359,31
535.63,1620,2456,14256,653,402,-13
535.64,1548,2472,14136,669,465,-15
535.65,1540,2512,14072,715,491,-36
535.66,1576,2524,13824,727,418,-55
535.67,1688,2452,13992,860,443,-58
535.68,1628,2476,13980,1149,383,-61
535.69,1584,2516,14116,1343,334,-90
535.7,1676,2552,14264,1466,375,-108
535.71,1628,2632,14140,1433,446,-119
535.72,1672,2756,14348,1251,414,-132
535.73,1588,2756,14240,1123,468,-111
535.74,1600,2844,14136,976,399,-81
535.75,1552,2816,13984,891,365,-71
535.76,1564,2776,14000,823,344,-58
535.77,1552,2964,14076,813,356,-38
535.78,1556,2740,13996,837,356,-51
535.79,1532,2884,13956,914,391,-65
535.8,1532,2972,14100,968,422,-71
535.81,1592,2972,14144,1025,445,-56
535.82,1468,3008,14248,1168,476,-107
535.83,1472,3056,14200,1161,339,-55
535.84,1536,3012,14448,1299,735,-136
535.85,1468,3188,13872,924,480,-38
535.86,1504,3156,14004,666,532,-70
535.87,1516,3132,13844,871,507,-112
535.88,1452,3072,14140,968,333,-127
535.89,1508,3184,14136,1157,414,-130
535.9,1516,3164,14132,1197,340,-121
535.91,1572,3252,14160,967,350,-75
535.92,1440,3324,14108,839,328,-44
535.93,1508,3300,13964,740,280,-32
535.94,1552,3296,14100,765,323,-68
535.95,1480,3356,14196,884,291,-105
535.96,1548,3276,14044,915,296,-105
535.97,1544,3316,14172,922,391,-114
535.98,1428,3424,14116,844,319,-93
535.99,1420,3284,13936,907,222,-101
536.0,1436,3316,14176,1036,171,-105
536.01,1540,3392,14024,930,239,-45
536.02,1572,3460,14088,811,265,-51
536.03,1472,3544,13960,1040,469,-143
536.04,1484,3368,14228,952,284,-87
536.05,1396,3596,13776,743,450,-126
536.06,1356,3540,13956,811,394,-107
536.07,1540,3564,13764,815,326,-77
536.08,1424,3556,13924,682,254,-60
536.09,1388,3496,14048,665,347,-99
536.1,1456,3616,14136,662,383,-80
536.11,1496,3784,14076,636,334,-63
536.12,1404,3828,13904,508,304,-63
536.13,1440,3744,13968,490,268,-45
536.14,1576,3836,13928,461,285,-44
536.15,1424,3720,13944,470,288,-83
536.16,1452,3780,13920,535,299,-74
536.17,1412,3764,13980,562,300,-73
536.18,1460,3820,13880,538,315,-84
536.19,1460,3860,13920,485,317,-38
536.2,1368,3792,13960,498,251,-75
536.21,1412,3884,13784,511,308,-43
536.22,1428,3896,13928,508,310,-68
536.23,1384,3936,13888,498,260,-64
536.24,1480,3928,13960,484,261,-64
536.25,1420,3956,13984,445,329,-42
536.26,1432,3988,13968,488,311,-65
536.27,1440,3972,13892,446,268,-56
536.28,1372,3984,13912,346,285,-39
536.29,1312,4020,13916,356,316,-75
536.3,1444,3956,13884,402,310,-74
536.31,1468,3972,13992,341,343,-44
536.32,1304,4072,13800,333,329,-67
536.33,1388,3956,13932,367,294,-19
536.34,1400,4020,13880,317,290,-46
536.35,1396,3972,13848,305,291,-17
536.36,1516,4064,13932,338,288,-50
536.37,1388,4128,13984,346,305,-78
536.38,1356,4080,13908,344,318,-56
536.39,1452,4100,13872,353,350,-77
536.4,1332,4100,13904,332,328,-42
536.41,1352,4156,13800,223,347,-49
536.42,1332,4004,13872,93,264,-38
536.43,1260,4092,13732,70,186,-6
536.44,1360,4080,13768,64,265,-25
536.45,1320,4088,13896,305,387,-59
536.46,1216,4132,13848,419,447,-106
536.47,1356,4260,13908,239,384,-86
536.48,1304,4232,13904,85,326,-72
536.49,1248,4184,13720,39,226,-46
536.5,1264,4228,13908,119,148,-14
536.51,1256,4200,13876,-127,270,47
536.52,1248,4108,13228,-902,97,117
536.53,1532,4020,14176,-6,460,-22
536.54,1464,4320,14364,593,436,-110
536.55,1280,4224,13996,-190,9,-11
536.56,1292,4128,13800,-245,176,21
536.57,1192,4184,13544,-448,91,80
536.58,1312,3980,13480,-590,-20,117
536.59,1360,3964,13744,-138,166,96
536.6,1324,4112,13844,73,106,19
536.61,1300,4136,14016,107,-103,60
536.62,1320,4104,14060,-117,-100,69
536.63,1268,4112,14012,-300,-32,79
536.64,1344,4172,13832,-130,52,43
536.65,1240,4180,13860,-102,165,19
536.66,1316,4208,13828,43,287,-11
536.67,1412,4244,13844,-20,287,6
536.68,1332,4120,13928,-90,217,-11
536.69,1364,4164,13788,25,175,9
536.7,1372,4176,13764,154,163,18
536.71,1320,4216,13844,107,193,18
536.72,1380,4152,13972,48,179,21
536.73,1472,4260,13956,-76,199,-28
536.74,1308,4136,13880,-236,228,-1
536.75,1332,4204,13824,-325,261,-18
536.76,1364,4224,13904,-358,238,12
536.77,1364,4132,14044,-446,211,32
536.78,1308,4112,13904,-432,237,31
536.79,1352,4180,13936,-477,226,15
536.8,1444,4188,13844,-553,178,60
536.81,1404,4160,13644,-524,161,52
536.82,1440,4096,13936,-462,152,52
536.83,1388,4192,13780,-457,197,62
536.84,1388,4252,13932,-419,273,13
536.85,1400,4156,13828,-449,249,13
536.86,1396,4192,13944,-561,182,-10
536.87,1368,4080,14136,-311,537,-31
536.88,1236,4152,13692,-894,215,52
536.89,1420,4040,13732,-1231,209,105
536.9,1340,3940,14000,-725,267,46
536.91,1256,4000,13908,-586,127,39
536.92,1456,4072,13912,-848,49,97
536.93,1404,4080,13880,-977,51,95
536.94,1356,4028,14080,-939,47,94
536.95,1420,4024,13960,-926,33,81
536.96,1464,4024,13940,-981,15,93
536.97,1384,4000,13860,-960,75,94
536.98,1428,3988,13976,-996,82,80
536.99,1460,3944,14132,-965,145,87
537.0,1296,3936,13992,-1051,112,94
537.01,1376,3928,13976,-1146,102,93
537.02,1448,3844,13968,-1108,92,127
537.03,1380,3792,14088,-1111,73,97
537.04,1444,3776,13936,-1169,75,105
537.05,1344,3660,13820,-1186,104,115
537.06,1408,3728,13924,-1303,103,144
537.07,1372,3712,13948,-1351,122,133
537.08,1436,3676,13944,-1295,80,155
537.09,1492,3712,13988,-1303,25,134
537.1,1452,3620,14008,-1452,47,158
537.11,1376,3604,14012,-1415,89,144
537.12,1492,3604,14064,-1400,118,128
537.13,1476,3560,13992,-1409,72,118
537.14,1528,3500,14100,-1387,82,153
537.15,1372,3496,14028,-1321,109,143
537.16,1412,3492,14068,-1217,64,134
537.17,1400,3472,14112,-1320,106,147
537.18,1492,3464,13976,-1321,96,129
537.19,1528,3412,14016,-1319,93,106
537.2,1468,3408,13980,-1346,62,158
537.21,1508,3368,13980,-1306,57,103
537.22,1552,3388,14124,-1293,54,132
537.23,1472,3256,13948,-1283,114,102
537.24,1484,3284,14084,-1262,66,87
537.25,1456,3288,13996,-1314,97,77
537.26,1572,3172,14148,-1179,41,110
537.27,1520,3272,14152,-1248,74,108
537.28,1448,3132,14044,-1321,72,76
537.29,1420,3132,14016,-1303,35,90
537.3,1472,2976,14048,-1322,3,101
537.31,1492,3064,14040,-1276,15,82
537.32,1508,3044,14036,-1152,105,60
537.33,1468,2980,14112,-1242,48,66
537.34,1596,2976,14176,-1222,60,66
537.35,1488,2908,14080,-1236,70,68
537.36,1496,2896,14172,-1243,49,73
537.37,1532,2920,14032,-1218,42,85
537.38,1524,2880,14080,-1181,19,48
537.39,1640,2796,14064,-1107,38,84
537.4,1496,2780,14092,-1124,48,60
537.41,1552,2928,14180,-1121,88,67
537.42,1440,2912,14108,-1119,126,46
537.43,1556,2900,14196,-1082,86,60
537.44,1548,2676,14260,-1098,82,55
537.45,1556,2748,14168,-1131,135,75
537.46,1556,2744,14148,-1107,139,42
537.47,1544,2704,14028,-1131,153,33
537.48,1648,2584,14232,-1130,123,18
537.49,1552,2708,14056,-1277,102,45
537.5,1492,2664,14036,-1368,25,39
537.51,1476,2524,14152,-1191,57,29
537.52,1628,2468,14304,-959,177,51
537.53,1572,2588,14312,-831,224,-2
537.54,1536,2604,14212,-948,218,-3
537.55,1560,2508,14072,-1186,95,16
537.56,1524,2436,14012,-1101,5,59
537.57,1532,2452,14272,-839,100,7
537.58,1600,2444,14328,-870,236,-7
537.59,1552,2556,13924,-1534,275,48
537.6,1648,2280,13732,-2017,-130,53
537.61,1872,2188,14672,-571,361,-39
537.62,1508,2456,14184,-103,-20,-47
537.63,1468,2380,13784,-1264,-390,121
537.64,1600,2220,14148,-520,327,-24
537.65,1436,2352,13900,-982,33,87
537.66,1636,2252,13872,-1357,-253,148
537.67,1800,2100,14236,-436,247,18
537.68,1632,2292,14644,-104,348,-48
537.69,1540,2424,14672,-277,254,-4
537.7,1552,2364,14324,-560,137,35
537.71,1520,2452,14268,-784,136,45
537.72,1616,2376,14248,-932,69,79
537.73,1588,2236,14272,-906,123,59
537.74,1616,2248,14032,-811,262,34
537.75,1520,2152,14016,-727,215,29
537.76,1588,2188,13816,-531,139,53
537.77,1668,2084,13888,-161,157,15
537.78,1620,2184,14128,258,187,12
537.79,1712,2040,14272,459,209,9
537.8,1608,2220,14248,575,305,-26
537.81,1616,2176,14232,630,336,-8
537.82,1772,2180,14152,613,380,-40
537.83,1572,2172,14276,568,411,-37
537.84,1744,2316,13996,518,359,-51
537.85,1648,2228,14084,593,337,-24
537.86,1596,2284,14180,656,360,-41
537.87,1644,2340,14112,654,309,-25
537.88,1596,2292,14136,745,284,-10
537.89,1704,2404,14116,940,316,-30
537.9,1548,2312,14284,1114,390,-17
537.91,1560,2368,14156,1197,392,-45
537.92,1540,2528,14268,1367,419,-52
537.93,1564,2588,14272,1280,373,-59
537.94,1680,2568,14424,1409,641,-89
537.95,1488,2544,14124,1058,581,-61
537.96,1524,2540,14124,727,432,-46
537.97,1608,2484,14076,1023,480,-91
537.98,1512,2600,14028,1091,363,-75
537.99,1668,2548,14020,1115,333,-88
538.0,1604,2576,14232,1298,394,-115
538.01,1468,2704,14160,1200,319,-81
538.02,1624,2672,14156,1170,331,-71
538.03,1568,2688,14148,1103,267,-60
538.04,1528,2824,14056,1118,314,-72
538.05,1596,2852,14248,1163,375,-74
538.06,1472,2856,14104,1212,405,-113
538.07,1560,2884,14264,1141,411,-113
538.08,1532,2852,14280,1115,431,-99
538.09,1396,2916,14220,957,441,-81
538.1,1512,2980,14040,882,365,-75
538.11,1520,2876,14176,925,401,-86
538.12,1500,2960,13908,956,369,-77
538.13,1472,2908,13932,776,308,-41
538.14,1532,2964,13968,801,409,-67
538.15,1400,2928,14052,974,378,-77
538.16,1432,3000,14060,1133,318,-53
538.17,1492,3076,14052,1123,368,-74
538.18,1532,3092,14112,978,342,-64
538.19,1488,3224,13880,862,355,-62
538.2,1624,3152,14104,895,423,-61
538.21,1464,3284,14152,882,410,-38
538.22,1496,3272,13984,827,397,-77
538.23,1420,3240,14176,749,403,-82
538.24,1448,3292,14052,757,357,-86
538.25,1420,3416,14196,810,378,-88
538.26,1416,3308,14212,844,341,-86
538.27,1456,3340,14232,799,339,-82
538.28,1420,3408,14104,812,293,-65
538.29,1436,3280,14016,715,317,-75
538.3,1396,3280,13928,761,300,-76
538.31,1452,3484,13980,852,379,-87
538.32,1480,3340,13984,784,314,-114
538.33,1388,3416,14076,776,347,-98
538.34,1480,3484,14036,854,336,-109
538.35,1372,3548,14068,837,379,-102
538.36,1320,3524,13884,739,359,-95
538.37,1400,3480,14024,738,347,-91
538.38,1480,3512,13956,730,309,-80
538.39,1280,3632,13928,725,298,-80
538.4,1324,3520,13988,732,337,-54
538.41,1432,3680,14104,680,349,-88
538.42,1424,3604,14044,672,314,-82
538.43,1340,3524,14064,629,363,-65
538.44,1348,3704,13912,619,328,-99
538.45,1256,3700,13924,595,347,-87
538.46,1424,3680,14076,598,422,-131
538.47,1312,3712,14004,639,422,-76
538.48,1388,3656,14000,602,351,-60
538.49,1324,3756,14096,512,356,-55
538.5,1440,3728,13852,463,274,-60
538.51,1380,3716,13712,428,209,-48
538.52,1536,3864,14120,659,350,-101
538.53,1444,3808,13852,920,614,-77
538.54,1272,3776,13968,883,284,-73
538.55,1372,3928,14180,857,447,-104
538.56,1372,3944,14144,583,357,-96
538.57,1324,3848,13892,444,352,-69
538.58,1320,3844,14008,449,210,-74
538.59,1216,3848,14000,333,228,3
538.6,1172,3896,13304,-486,166,101
538.61,1556,3676,13976,-7,214,-45
538.62,1480,3904,14484,970,502,-163
538.63,1512,4084,14092,672,202,-75
538.64,1340,3936,13872,63,164,-1
538.65,1452,3948,13816,248,413,-37
538.66,1200,3852,13416,-371,40,81
538.67,1396,3720,13736,-101,173,58
538.68,1428,3888,13940,331,185,-3
538.69,1344,3928,14168,580,-11,-28
538.7,1340,4004,14024,577,-66,-48
538.71,1216,4148,14012,349,-53,8
538.72,1336,3996,14184,166,221,0
538.73,1340,4060,13864,104,238,-12
538.74,1320,3988,13848,217,211,-21
538.75,1324,4192,13868,249,248,-15
538.76,1380,4004,13692,127,258,-51
538.77,1416,4040,13736,230,253,-34
538.78,1448,4024,13672,439,233,-32
538.79,1324,4048,13800,544,244,-24
538.8,1432,4032,13944,483,207,-1
538.81,1344,4096,13932,418,243,-34
538.82,1308,4148,13972,254,241,-30
538.83,1212,4040,13828,208,305,-58
538.84,1348,4156,13876,183,310,-30
538.85,1260,4124,13980,154,300,-28
538.86,1220,4148,13884,119,307,-19
538.87,1300,4076,13872,122,311,-40
538.88,1260,3996,13864,110,278,-39
538.89,1372,4152,13900,120,281,-9
538.9,1316,4052,13864,169,254,-49
538.91,1336,4280,13876,201,291,-36
538.92,1232,4208,13768,205,331,-50
538.93,1296,4188,13844,288,324,-43
538.94,1236,4200,13896,271,264,-76
538.95,1356,4080,14164,492,676,-122
538.96,1236,4236,13628,-19,369,-20
538.97,1252,4088,13568,-306,289,-1
538.98,1340,4120,13792,199,469,-70
538.99,1284,4192,13964,349,419,-102
539.0,1284,4260,13916,130,336,-76
539.01,1352,4264,13848,33,264,-12
539.02,1328,4244,13852,-105,237,-20
539.03,1256,4248,13824,-35,236,-3
539.04,1384,4280,13800,-6,164,1
539.05,1392,4220,13952,-61,218,-31
539.06,1360,4316,13816,-64,216,-7
539.07,1344,4364,13872,-62,256,-26
539.08,1348,4228,13888,-147,286,-22
539.09,1248,4212,13880,-220,228,25
539.1,1328,4204,13968,-241,193,11
539.11,1308,4164,13908,-163,221,-17
539.12,1276,4172,13772,-107,253,1
539.13,1296,4264,13828,-203,263,28
539.14,1196,4176,13968,-293,269,9
539.15,1292,4164,13956,-299,281,13
539.16,1200,4260,13716,-363,266,12
539.17,1264,4252,13780,-437,257,30
539.18,1304,4172,13884,-534,199,-9
539.19,1400,4244,13864,-559,204,38
539.2,1420,4204,13828,-623,181,66
539.21,1396,4164,13948,-621,197,58
539.22,1324,4220,13976,-600,218,37
539.23,1224,4192,13908,-575,224,57
539.24,1248,4188,13936,-639,234,32
539.25,1248,4064,13800,-668,261,35
539.26,1312,4140,13892,-672,280,42
539.27,1304,4124,13968,-891,190,73
539.28,1280,4028,13776,-904,290,52
539.29,1292,4024,13932,-1078,160,112
539.3,1248,3980,14040,-1054,209,70
539.31,1288,4024,13848,-1130,186,76
539.32,1380,4000,13868,-1161,220,95
539.33,1248,4036,14004,-1111,191,66
539.34,1352,3960,13976,-1125,268,62
539.35,1344,3992,14024,-1203,268,90
539.36,1220,3840,13908,-1367,187,74
539.37,1264,3944,13852,-1517,156,120
539.38,1228,3904,13904,-1522,61,167
539.39,1292,3768,13980,-1395,86,149
539.4,1292,3768,13824,-1388,105,134
539.41,1312,3784,13904,-1402,142,115
539.42,1312,3732,13912,-1375,206,111
539.43,1292,3720,13788,-1433,170,119
539.44,1172,3616,13876,-1552,160,134
539.45,1308,3608,13992,-1434,125,128
539.46,1444,3676,14000,-1272,153,75
539.47,1272,3668,14076,-1402,232,85
539.48,1448,3488,13932,-1571,223,137
539.49,1244,3480,13900,-1782,116,152
539.5,1344,3404,13848,-1881,-8,138
539.51,1432,3412,14052,-1648,41,119
539.52,1324,3412,14104,-1279,148,109
539.53,1356,3440,14344,-1105,175,84
539.54,1288,3480,14244,-1249,176,113
539.55,1212,3304,13980,-1410,76,116
539.56,1268,3212,13876,-1450,-39,128
539.57,1428,3292,14120,-1275,-66,130
539.58,1364,3288,14188,-1485,87,164
539.59,1340,3272,13712,-2212,82,245
539.6,1424,3020,13840,-2309,-160,183
539.61,1416,3064,14620,-878,212,-5
539.62,1244,3248,14072,-1072,-175,107
539.63,1408,3160,13888,-1970,-410,173
539.64,1504,2928,14128,-1192,242,24
539.65,1260,2960,13624,-1733,-257,200
539.66,1512,2784,13688,-2001,-318,239
539.67,1528,2808,14140,-1037,12,87
539.68,1456,3116,14408,-724,30,56
539.69,1464,3076,14388,-1009,91,37
539.7,1296,2992,14364,-1343,7,48
539.71,1392,2960,14268,-1484,83,86
539.72,1300,3004,14236,-1709,93,109
539.73,1488,2864,14112,-1891,44,147
539.74,1432,2772,14012,-1818,25,96
539.75,1352,2624,13980,-1771,-60,96
539.76,1408,2612,13976,-1555,-56,109
539.77,1468,2588,13952,-1344,-58,62
539.78,1548,2516,14040,-921,-5,50
539.79,1552,2540,14228,-728,106,13
539.8,1472,2604,14276,-729,132,30
539.81,1516,2564,14240,-871,120,10
539.82,1436,2556,14212,-913,115,9
539.83,1644,2556,14300,-1029,102,48
539.84,1604,2480,14112,-1113,111,48
539.85,1472,2480,14268,-1109,94,17
539.86,1552,2452,14228,-1151,39,33
539.87,1568,2544,14064,-1184,38,5
539.88,1520,2400,14116,-1087,83,35
539.89,1656,2452,14024,-1071,59,11
539.9,1528,2512,14164,-1079,111,5
539.91,1496,2384,14168,-917,181,6
539.92,1424,2432,14316,-709,166,-17
539.93,1416,2440,14140,-853,125,-10
539.94,1600,2380,14368,-686,368,-17
539.95,1408,2332,14052,-765,198,18
539.96,1436,2360,14132,-1205,137,11
539.97,1472,2260,14076,-991,78,26
539.98,1560,2164,14276,-683,47,1
539.99,1508,2324,14240,-601,64,-11
540.0,1456,2316,14320,-707,87,-10
540.01,1568,2248,14408,-820,47,14
540.02,1552,2232,14208,-846,45,-3
540.03,1580,2260,14296,-889,55,-10
540.04,1556,2208,14288,-863,111,-39
540.05,1524,2188,14204,-861,112,-27
540.06,1564,2220,14144,-815,154,-69
540.07,1468,2100,14204,-704,126,-32
540.08,1468,2056,14180,-756,176,-30
540.09,1432,2024,14224,-720,184,8
540.1,1572,2028,14244,-659,140,25
540.11,1548,1992,14044,-538,125,21
540.12,1592,2096,14172,-384,175,6
540.13,1752,2060,14100,-355,112,15
540.14,1492,2052,14168,-278,134,-7
540.15,1564,2036,14052,-85,156,13
540.16,1452,2016,14124,75,186,1
540.17,1472,2024,14160,168,243,-2
540.18,1512,2040,14192,192,250,26
540.19,1588,2120,14184,283,291,15
540.2,1444,2080,14232,372,352,-7
540.21,1592,2248,14192,415,411,6
540.22,1456,2180,14104,460,350,-22
540.23,1560,2164,14228,496,423,-31
540.24,1432,2232,14184,479,392,-26
540.25,1540,2328,14124,424,286,-2
540.26,1540,2156,14180,491,310,-23
540.27,1568,2272,14072,592,328,3
540.28,1492,2348,14160,563,337,-4
540.29,1544,2196,14096,580,304,-13
540.3,1552,2208,14112,652,293,-6
540.31,1388,2360,14120,703,334,-12
540.32,1524,2276,14132,822,365,-25
540.33,1432,2308,14280,883,361,-23
540.34,1456,2260,14132,959,357,-27
540.35,1440,2324,14252,987,399,-49
540.36,1440,2388,14208,976,439,-74
540.37,1540,2424,14288,929,453,-53
540.38,1476,2432,14356,803,477,-66
540.39,1488,2400,14148,735,420,-78
540.4,1484,2528,14208,769,406,-68
540.41,1440,2504,14268,807,425,-96
540.42,1392,2528,14264,736,395,-51
540.43,1440,2572,14040,468,250,-33
540.44,1332,2476,14036,428,187,6
540.45,1444,2468,14024,588,223,14
540.46,1448,2592,14364,987,401,-39
540.47,1520,2584,14316,1244,478,-41
540.48,1388,2720,14260,1113,433,-35
540.49,1420,2704,14148,1021,386,-20
540.5,1324,2676,13888,949,333,-18
540.51,1508,2668,14240,1206,364,-29
540.52,1344,2792,14448,1162,500,-35
540.53,1408,2936,13728,58,430,55
540.54,1576,2676,13872,48,246,15
540.55,1544,2788,14716,1447,690,-177
540.56,1356,2928,14052,1240,292,-78
540.57,1472,2932,14180,334,21,-24
540.58,1412,2760,14176,1097,641,-123
540.59,1172,2864,13728,407,90,74
540.6,1400,2836,13476,-84,-56,113
540.61,1528,2752,13916,746,283,3
540.62,1504,2924,14232,1278,235,-77
540.63,1408,3060,14468,1276,257,-88
540.64,1444,3000,14360,959,247,-26
540.65,1328,3104,14248,800,391,-13
540.66,1320,3132,14268,794,410,-21
540.67,1288,3084,14080,641,373,-13
540.68,1408,3192,14028,650,378,-43
540.69,1380,3068,14032,621,339,-48
540.7,1404,3172,13996,706,315,-27
540.71,1364,3208,13936,729,335,-6
540.72,1376,3048,14040,939,303,-65
540.73,1508,3188,14172,1102,307,-62
540.74,1392,3192,14180,994,322,-65
540.75,1392,3172,14180,973,351,-76
540.76,1328,3308,14252,781,364,-64
540.77,1444,3292,14108,689,357,-84
540.78,1412,3272,14072,617,323,-44
540.79,1344,3264,14088,561,310,-21
540.8,1284,3324,13988,539,287,-44
540.81,1416,3308,13968,525,289,-58
540.82,1364,3268,13980,513,283,-31
540.83,1348,3320,14008,592,308,-41
540.84,1428,3392,14040,692,293,-63
540.85,1272,3404,13992,733,294,-40
540.86,1232,3484,14068,875,353,-76
540.87,1392,3556,14020,944,330,-113
540.88,1380,3612,14104,1038,469,-131
540.89,1248,3588,14240,1061,667,-128
540.9,1352,3500,13768,493,355,-55
540.91,1328,3420,13728,252,317,-35
540.92,1368,3472,14040,716,337,-106
540.93,1296,3556,14188,1050,286,-119
540.94,1416,3488,14024,890,241,-104
540.95,1284,3584,14012,629,299,-26
540.96,1216,3676,14064,678,272,-62
540.97,1312,3612,14120,699,201,-16
540.98,1372,3652,14008,619,241,-59
540.99,1376,3580,14000,637,313,-78
541.0,1268,3708,13928,701,300,-43
541.01,1436,3784,14008,696,302,-104
541.02,1384,3816,13904,568,365,-86
541.03,1308,3668,13992,427,330,-51
541.04,1376,3744,13928,485,283,-48
541.05,1280,3720,14000,555,332,-65
541.06,1332,3744,13928,562,328,-61
541.07,1364,3760,13860,431,302,-29
541.08,1236,3724,14008,463,345,-71
541.09,1236,3724,13916,595,326,-78
541.1,1240,3808,14044,592,336,-79
541.11,1180,3740,13940,571,351,-66
541.12,1172,3916,13860,547,302,-60
541.13,1312,3984,14024,459,329,-53
541.14,1308,3928,13932,418,326,-27
541.15,1284,3912,13936,412,356,-44
541.16,1216,3948,13796,468,323,-49
541.17,1240,4028,13928,443,310,-39
541.18,1196,3968,13892,422,340,-51
541.19,1252,3972,13972,410,286,-40
541.2,1264,4028,13872,451,312,-33
541.21,1292,3932,13932,429,323,-43
541.22,1232,4000,14004,353,330,-48
541.23,1320,3968,14028,324,304,-50
541.24,1188,3928,13932,360,320,-33
541.25,1300,3940,13832,319,314,-51
541.26,1260,4036,13820,336,308,-48
541.27,1292,4068,13940,302,359,-63
541.28,1192,4076,13920,303,329,-32
541.29,1244,3996,13644,334,323,-67
541.3,1196,4072,13964,319,314,-69
541.31,1284,4048,13960,281,314,-77
541.32,1228,4164,13900,239,295,-58
541.33,1232,4104,13948,203,288,-62
541.34,1180,4104,13932,219,299,-13
541.35,1112,4252,14020,206,301,-20
541.36,1284,4076,13844,213,315,-44
541.37,1216,4160,13840,201,314,-34
541.38,1224,4068,13844,191,327,-42
541.39,1220,4156,13752,195,323,-30
541.4,1132,4220,13888,166,287,-6
541.41,1184,4116,13880,120,292,-58
541.42,1148,4236,13872,130,319,-24
541.43,1300,4108,13808,133,317,-40
541.44,1248,4168,13816,140,316,-8
541.45,1148,4160,14016,126,309,-40
541.46,1184,4212,13820,94,291,-46
541.47,1236,4204,13852,114,309,-21
541.48,1232,4168,13820,105,310,-38
541.49,1232,4260,13980,47,295,-3
541.5,1216,4292,13708,22,273,-12
541.51,1312,4236,13960,-17,294,-21
541.52,1280,4188,13832,25,279,-23
541.53,1220,4160,13856,-41,284,-31
541.54,1204,4248,14012,-48,303,-49
541.55,1228,4168,13784,-71,308,-23
541.56,1140,4128,13772,-131,317,-23
541.57,1148,4176,14068,-198,289,-7
541.58,1096,4284,13828,-234,283,-9
541.59,1204,4228,13788,-270,224,-25
541.6,1276,4168,13900,-332,223,7
541.61,1176,4212,13916,-332,250,-6
541.62,1200,4248,13832,-395,220,-25
541.63,1180,4144,13916,-425,229,-38
541.64,1156,4128,13964,-498,280,27
541.65,1184,4248,13944,-626,266,27
541.66,1232,4252,13856,-779,222,3
541.67,1108,4236,13820,-934,150,57
541.68,1128,4136,13652,-1110,98,108
541.69,1248,4092,13860,-1104,93,72
541.7,1168,4116,14184,-857,249,40
541.71,1212,4188,14024,-846,322,18
541.72,1148,4088,14092,-1100,204,62
541.73,1108,3980,13840,-1303,145,72
541.74,1160,4024,13800,-1308,51,99
541.75,1288,4016,14036,-1148,-22,92
541.76,1120,3896,14184,-1226,39,149
541.77,1056,3992,13576,-2003,101,211
541.78,1388,3844,14016,-1973,-3,165
541.79,1328,3916,14620,-739,323,49
541.8,1084,4068,13860,-1331,-133,139
541.81,1088,3768,13812,-1769,-218,200
541.82,1336,3684,13960,-1299,106,162
541.83,1068,3588,13480,-2024,-305,285
541.84,1252,3452,13688,-1832,-240,250
541.85,1392,3576,13992,-1031,-176,156
541.86,1456,3708,14288,-859,-171,144
541.87,1184,3848,14208,-1222,-254,178
541.88,1340,3752,14196,-1406,-165,203
541.89,1256,3680,14328,-1500,-59,195
541.9,1216,3608,13988,-1615,-18,181
541.91,1416,3580,14136,-1561,92,185
541.92,1308,3528,13872,-1744,35,181
541.93,1276,3400,13676,-1925,22,157
541.94,1300,3356,13736,-1659,-41,169
541.95,1388,3248,14128,-1225,17,118
541.96,1276,3304,14224,-1061,106,97
541.97,1376,3308,14260,-1107,121,94
541.98,1264,3188,14152,-1184,114,115
541.99,1392,3208,14208,-1334,92,133
542.0,1280,3212,14104,-1353,107,131
542.01,1268,3164,14104,-1387,87,118
542.02,1280,3152,14076,-1368,4,133
542.03,1416,3212,14056,-1370,12,120
542.04,1356,3120,13952,-1324,9,95
542.05,1312,3100,14024,-1224,43,101
542.06,1272,3064,14060,-1131,68,60
542.07,1428,3044,14020,-1101,106,70
542.08,1328,3220,14080,-1053,163,64
542.09,1324,3036,14096,-899,132,48
542.1,1432,3040,14124,-826,172,39
542.11,1352,3180,14120,-841,142,32
542.12,1416,2956,14332,-914,221,25
542.13,1316,3000,14168,-741,402,24
542.14,1140,3008,13780,-1350,53,81
542.15,1432,2796,13956,-1417,-8,50
542.16,1448,2800,14236,-763,86,-19
542.17,1360,2948,14204,-667,-13,-5
542.18,1516,3008,14120,-965,-14,28
542.19,1452,2836,14284,-1076,36,33
542.2,1432,2908,14144,-1082,116,-4
542.21,1364,2832,14324,-1117,41,32
542.22,1376,2860,14128,-1170,20,9
542.23,1488,2812,14212,-1119,54,15
542.24,1516,2792,14260,-1088,53,17
542.25,1436,2744,14148,-1100,38,-9
542.26,1456,2672,14256,-1021,103,23
542.27,1380,2688,14324,-1049,133,11
542.28,1412,2636,14196,-1149,165,12
542.29,1408,2568,14116,-1090,126,-13
542.3,1456,2588,14344,-1056,108,23
542.31,1456,2540,14204,-1078,42,1
542.32,1472,2520,14152,-1129,30,23
542.33,1392,2520,14248,-1144,44,7
542.34,1420,2472,14136,-1160,23,-4
542.35,1448,2496,14204,-1110,15,10
542.36,1460,2500,14112,-1114,23,29
542.37,1540,2516,14104,-1174,13,25
542.38,1440,2488,14172,-1163,61,40
542.39,1500,2480,14188,-1091,122,20
542.4,1488,2556,14224,-999,104,-10
542.41,1408,2284,14188,-1060,62,29
542.42,1480,2312,14176,-1003,74,39
542.43,1464,2308,14160,-877,77,7
542.44,1524,2364,14176,-820,109,13
542.45,1440,2336,14212,-831,99,-5
542.46,1500,2384,14072,-848,76,3
542.47,1508,2280,14044,-857,82,4
542.48,1440,2304,14108,-875,78,4
542.49,1516,2204,14128,-788,99,13
542.5,1544,2172,14216,-741,78,-4
542.51,1488,2200,14132,-696,88,8
542.52,1512,2188,14216,-547,101,-6
542.53,1532,2156,14220,-400,127,5
542.54,1504,2100,14232,-416,133,38
542.55,1536,2140,14116,-283,134,12
542.56,1484,1988,14200,-117,169,9
542.57,1488,2192,14104,-80,149,10
542.58,1596,2060,14080,90,214,20
542.59,1500,2084,14272,264,326,-1
542.6,1400,2164,14184,311,343,26
542.61,1532,2136,14112,416,336,-9
542.62,1464,2176,14084,497,307,2
542.63,1472,2164,14224,577,341,9
542.64,1376,2244,14124,672,358,-15
542.65,1360,2200,14120,680,329,-17
542.66,1552,2228,14176,770,367,-31
542.67,1464,2360,14136,826,375,-42
542.68,1448,2484,14220,821,395,-14
542.69,1572,2404,14256,896,434,-12
542.7,1432,2476,14268,903,432,-9
542.71,1516,2468,14152,872,390,-19
542.72,1536,2452,14172,887,396,-36
542.73,1432,2532,14228,908,441,-30
542.74,1408,2460,14268,894,446,-32
542.75,1464,2456,14232,895,407,-55
542.76,1368,2528,14224,924,412,-63
542.77,1448,2560,14152,878,402,-36
542.78,1420,2508,14200,919,439,-50
542.79,1480,2640,14156,961,451,-40
542.8,1332,2572,14144,911,414,-50
542.81,1452,2780,14200,885,502,-54
542.82,1332,2680,14052,763,413,-44
542.83,1404,2652,14076,661,363,-66
542.84,1300,2720,13932,684,282,-32
542.85,1416,2616,14120,726,319,-42
542.86,1328,2672,14240,993,487,-78
542.87,1336,2896,14460,1172,533,-97
542.88,1316,2896,14328,1113,508,-76
542.89,1344,2920,14212,854,449,-67
542.9,1340,2864,14032,653,314,-11
542.91,1296,2768,14120,850,318,-36
542.92,1396,2864,14364,1047,396,-15
542.93,1256,2964,14344,635,541,35
542.94,1308,2976,13568,-313,273,72
542.95,1604,2732,14444,333,487,-53
542.96,1400,3004,14444,1468,463,-142
542.97,1256,3076,13796,376,11,12
542.98,1512,2852,14384,802,414,-85
542.99,1264,3032,13936,749,330,-18
543.0,1376,2860,13592,-319,-48,115
543.01,1420,2788,14056,611,287,2
543.02,1276,3004,14372,1118,191,-70
543.03,1336,3100,14496,1124,247,-90
543.04,1332,3160,14200,945,149,-31
543.05,1252,3184,14320,733,224,5
543.06,1312,3276,14264,658,322,31
543.07,1240,3264,14116,606,289,18
543.08,1252,3268,14068,589,310,15
543.09,1416,3140,13912,574,332,-25
543.1,1356,3124,13792,596,309,-30
543.11,1296,3088,13920,833,323,-67
543.12,1524,3188,13964,1090,309,-86
543.13,1400,3244,14068,1175,341,-80
543.14,1360,3204,14104,1026,358,-78
543.15,1424,3312,14160,884,371,-79
543.16,1328,3404,14256,853,368,-73
543.17,1320,3380,14112,728,381,-52
543.18,1260,3392,14164,645,344,-65
543.19,1200,3396,14104,539,321,-70
543.2,1232,3408,14028,551,320,-33
543.21,1228,3468,14080,532,360,-70
543.22,1280,3372,14108,512,315,-50
543.23,1228,3424,13912,537,319,-50
543.24,1288,3448,14068,696,380,-84
543.25,1408,3504,14032,820,376,-78
543.26,1364,3484,14064,907,424,-90
543.27,1212,3664,13996,978,404,-100
543.28,1320,3588,14284,1001,528,-127
543.29,1160,3704,14136,952,679,-103
543.3,1308,3584,13752,363,404,-28
543.31,1188,3592,13696,267,414,-51
543.32,1192,3652,14016,574,319,-96
543.33,1260,3680,14120,866,316,-134
543.34,1388,3736,14088,723,245,-66
543.35,1300,3756,13944,503,262,-56
543.36,1140,3700,13932,566,264,-50
543.37,1296,3740,13932,514,227,-7
543.38,1284,3764,14032,595,275,-72
543.39,1304,3804,13952,694,279,-94
543.4,1268,3756,13988,734,356,-84
543.41,1280,3812,13904,716,341,-81
543.42,1240,3820,13988,530,399,-76
543.43,1236,3760,14140,463,334,-45
543.44,1176,3824,13820,486,325,-50
543.45,1308,3844,14100,581,341,-61
543.46,1260,3864,13852,555,319,-47
543.47,1316,3872,13888,339,284,-32
543.48,1264,3860,13852,420,315,-62
543.49,1216,3856,13828,514,369,-60
543.5,1200,3916,14040,553,359,-90
543.51,1176,3884,13872,462,315,-62
543.52,1148,3856,13968,426,328,-52
543.53,1164,3848,13920,415,347,-40
543.54,1240,3968,13812,376,349,-48
543.55,1172,4008,13908,399,347,-58
543.56,1244,3984,13956,395,320,-48
543.57,1068,4120,13900,346,348,-49
543.58,1224,4020,13808,359,324,-69
543.59,1224,4016,13884,364,349,-77
543.6,1140,4116,13916,336,351,-55
543.61,1100,4068,13976,303,342,-29
543.62,1248,4108,14016,241,331,-47
543.63,1244,4024,14044,241,312,-16
543.64,1240,4024,13820,235,291,-32
543.65,1140,4060,13936,200,330,-52
543.66,1292,4040,13832,230,296,-44
543.67,1188,4104,13984,220,333,-40
543.68,1180,4136,13908,202,337,-38
543.69,1148,4060,13856,164,328,-70
543.7,1100,4192,13968,144,312,-14
543.71,1184,4132,13872,100,338,-21
543.72,1200,4048,13932,85,325,-29
543.73,1176,4148,13952,93,289,-60
543.74,1116,4172,13824,88,321,-46
543.75,1200,4032,13908,64,293,-59
543.76,1188,4124,13916,14,303,-61
543.77,1132,4224,13880,16,291,-29
543.78,1052,4188,13812,-7,296,-22
543.79,1200,4208,13896,-33,289,-5
543.8,1232,4164,13936,-18,318,-28
543.81,1100,4124,14000,-36,309,-23
543.82,1088,4160,13972,-28,296,-48
543.83,1116,4064,13896,-41,305,-36
543.84,976,4132,13872,-71,283,-11
543.85,1156,4176,13952,-78,260,-10
543.86,1144,4132,13932,-124,261,-9
543.87,1192,4220,13932,-134,255,-18
543.88,1180,4188,13888,-154,258,6
543.89,1152,4136,13808,-172,264,-28
543.9,1068,4216,13988,-197,271,-18
543.91,1064,4240,13988,-214,293,-32
543.92,1144,4164,13960,-249,255,1
543.93,992,4200,13776,-303,296,-25
543.94,1108,4188,13848,-318,248,1
543.95,1072,4176,14040,-380,245,-1
543.96,1148,4088,14004,-467,273,22
543.97,1120,4204,13960,-595,206,25
543.98,1104,4224,13936,-656,190,24
543.99,1192,4216,13872,-773,196,56
544.0,1092,4132,13964,-899,193,46
544.01,1120,4132,13968,-1029,189,73
544.02,1220,4088,13984,-1104,235,30
544.03,1192,4104,14112,-1279,229,61
544.04,1124,4064,14016,-1610,173,58
544.05,1168,4016,13924,-1683,81,94
544.06,1192,3948,13824,-1763,49,128
544.07,1088,3840,13780,-2010,-41,151
544.08,1172,3796,14036,-1996,-70,179
544.09,1172,3784,13840,-1832,-65,161
544.1,1148,3776,14108,-1575,100,143
544.11,1180,3784,14184,-1451,162,115
544.12,1196,3768,14104,-1469,55,127
544.13,1240,3700,14020,-1636,44,136
544.14,1084,3668,13904,-1807,-5,162
544.15,1180,3612,14028,-1607,-109,191
544.16,1192,3676,14260,-1564,17,202
544.17,1016,3636,13808,-2169,113,239
544.18,1160,3544,13604,-2744,-204,247
544.19,1528,3336,14436,-1831,52,138
544.2,1208,3576,14000,-1103,-72,95
544.21,1076,3452,13664,-2099,-521,242
544.22,1400,3144,14224,-1644,-45,112
544.23,1100,3224,13836,-1617,-110,197
544.24,1284,3216,13564,-2434,-538,334
544.25,1416,2996,13792,-1720,-207,190
544.26,1428,3224,14376,-713,-88,60
544.27,1324,3372,14420,-1026,-123,77
544.28,1092,3280,14296,-1448,-82,157
544.29,1140,3308,14332,-1632,-32,164
544.3,1360,3196,14100,-1814,-58,203
544.31,1208,3140,13976,-1858,-40,128
544.32,1320,3060,14084,-1757,-94,150
544.33,1264,3000,13964,-1777,-24,133
544.34,1200,2944,13808,-1774,-76,143
544.35,1300,2792,14040,-1547,-40,109
544.36,1464,2856,14376,-1229,-75,78
544.37,1364,2788,14248,-995,0,45
544.38,1288,2828,14256,-968,-1,38
544.39,1352,2816,14140,-1122,-10,69
544.4,1268,2724,14160,-1192,23,59
544.41,1504,2788,14056,-1203,-13,49
544.42,1376,2704,14100,-1247,31,57
544.43,1356,2712,14148,-1287,7,73
544.44,1392,2728,14232,-1235,33,36
544.45,1420,2656,14312,-1273,67,48
544.46,1428,2596,14112,-1225,9,37
544.47,1440,2668,14260,-1178,86,1
544.48,1340,2716,14064,-1150,52,41
544.49,1356,2612,14192,-1055,88,32
544.5,1312,2632,14048,-984,81,44
544.51,1360,2588,14176,-784,123,22
544.52,1348,2760,14272,-737,177,-9
544.53,1352,2536,14176,-872,135,-14
544.54,1496,2536,14364,-678,412,-25
544.55,1432,2528,13964,-1227,34,32
544.56,1320,2400,13960,-1582,-49,63
544.57,1472,2388,14112,-968,-43,22
544.58,1376,2412,14324,-608,-49,-38
544.59,1532,2484,14288,-810,-30,26
544.6,1424,2428,14328,-875,10,11
544.61,1344,2428,14176,-905,8,37
544.62,1324,2444,14308,-993,18,-12
544.63,1456,2360,14320,-953,22,-18
544.64,1540,2288,14232,-895,63,-35
544.65,1412,2236,14164,-864,71,-1
544.66,1404,2260,14092,-846,72,-45
544.67,1400,2228,14088,-867,137,-2
544.68,1408,2184,14140,-947,162,-7
544.69,1400,2220,14140,-929,111,-15
544.7,1464,2264,14184,-938,114,-11
544.71,1460,2172,14268,-907,28,-7
544.72,1476,2128,14132,-851,21,-27
544.73,1480,2200,14040,-891,-1,21
544.74,1500,2152,14156,-813,25,10
544.75,1484,2156,14184,-735,36,35
544.76,1416,2124,14220,-592,30,20
544.77,1528,2092,14148,-617,56,43
544.78,1432,2068,14212,-544,94,30
544.79,1496,2132,14136,-483,173,13
544.8,1512,2128,14196,-385,170,27
544.81,1476,2024,14136,-248,164,26
544.82,1460,2172,14208,-142,202,17
544.83,1456,2020,14268,-38,219,10
544.84,1520,2104,14240,105,241,11
544.85,1500,2052,14116,179,242,39
544.86,1468,2132,14296,240,272,24
544.87,1376,2008,14128,365,281,-7
544.88,1460,2120,14196,456,312,5
544.89,1484,2048,14236,581,369,-20
544.9,1484,2148,14140,573,380,-14
544.91,1532,2192,14280,566,384,-32
544.92,1500,2232,14044,616,380,-60
544.93,1540,2088,14272,629,355,-44
544.94,1420,2244,14128,694,358,-34
544.95,1432,2276,14212,785,341,-45
544.96,1440,2352,14260,772,346,-24
544.97,1344,2308,14332,782,399,-54
544.98,1452,2324,14220,792,376,-47
544.99,1560,2320,14228,847,402,-18
545.0,1400,2340,14104,851,412,-27
545.01,1384,2424,14276,935,409,-47
545.02,1552,2508,14308,924,427,-30
545.03,1484,2548,14116,942,415,-43
545.04,1468,2412,14132,939,421,-36
545.05,1412,2432,14208,951,388,-33
545.06,1412,2440,14372,1059,437,-25
545.07,1436,2576,14184,1120,414,3
545.08,1464,2536,14124,1123,442,-32
545.09,1424,2620,14372,1198,503,-20
545.1,1328,2692,14388,1190,523,-61
545.11,1392,2612,14196,1118,529,-69
545.12,1360,2720,14356,1117,478,-9
545.13,1428,2696,14184,1078,520,-63
545.14,1308,2756,14188,1017,454,-61
545.15,1296,2712,14172,1015,441,-38
545.16,1304,2852,14120,1030,444,-36
545.17,1336,2804,14168,976,438,-59
545.18,1344,2788,14184,1007,424,-75
545.19,1316,2896,14164,1030,371,-66
545.2,1272,2864,14232,1040,513,-60
545.21,1264,2864,14116,1110,548,-97
545.22,1356,2948,14136,985,498,-81
545.23,1344,2892,14212,905,515,-75
545.24,1272,2992,14068,613,421,-31
545.25,1256,2952,14164,451,338,-58
545.26,1324,3008,14048,503,317,-41
545.27,1352,2868,14156,716,424,-73
545.28,1352,3048,14308,982,476,-76
545.29,1256,3196,14092,912,429,-96
545.3,1156,3092,14212,722,409,-67
545.31,1180,3216,13996,565,364,-27
545.32,1324,2952,13872,527,271,-18
545.33,1248,3000,14072,808,338,-28
545.34,1140,3152,14356,824,420,-6
545.35,1204,3244,13824,139,524,56
545.36,1300,3136,13868,-82,210,33
545.37,1380,3116,14356,1180,572,-138
545.38,1156,3356,14352,1403,305,-85
545.39,1268,3216,13788,442,61,17
545.4,1428,3168,14384,1054,580,-140
545.41,1248,3312,13680,838,334,-24
545.42,1288,3232,13424,-210,-32,99
545.43,1336,3040,13792,548,341,-11
545.44,1260,3188,13996,1164,254,-54
545.45,1204,3424,14348,1352,211,-76
545.46,1216,3508,14152,1255,179,-82
545.47,1212,3560,14320,962,208,-14
545.48,1212,3476,14160,882,273,-21
545.49,1184,3568,14136,797,315,-31
545.5,1280,3560,14024,742,333,-6
545.51,1236,3504,13956,731,361,-68
545.52,1204,3476,13824,725,388,-86
545.53,1240,3480,13780,921,361,-84
545.54,1180,3504,13940,1058,364,-78
545.55,1220,3476,13980,1119,384,-86
545.56,1212,3544,14204,1039,357,-88
545.57,1192,3548,14144,954,327,-76
545.58,1256,3668,14156,810,368,-77
545.59,1268,3612,14036,757,396,-93
545.6,1356,3728,14100,682,370,-65
545.61,1140,3736,13888,552,350,-42
545.62,1244,3764,14020,523,303,-57
545.63,1304,3664,14024,545,312,-56
545.64,1120,3788,14036,527,335,-46
545.65,1224,3920,14132,556,326,-73
545.66,1144,3876,13720,604,313,-50
545.67,1092,3828,13980,664,360,-37
545.68,1096,3800,13952,754,373,-56
545.69,1148,3988,13936,870,421,-63
545.7,1112,3872,13896,739,271,-126
545.71,1196,3928,14256,1116,753,-160
545.72,1080,4056,13828,670,503,-35
545.73,1116,3936,13584,-58,381,-21
545.74,1160,3784,13776,261,402,-65
545.75,1220,3860,13852,628,390,-89
545.76,1096,3876,13816,571,291,-80
545.77,1128,4096,13912,355,250,-40
545.78,1168,4008,14024,341,197,-27
545.79,1040,4000,13964,314,233,-17
545.8,1128,4008,13892,329,189,-55
545.81,1184,4016,13940,399,235,-40
545.82,1172,4012,13928,491,263,-51
545.83,1068,4056,13916,584,292,-42
545.84,1140,4084,13996,492,365,-72
545.85,1060,4136,13880,376,313,-73
545.86,1108,4124,13932,328,321,-14
545.87,1100,3988,13824,348,326,-30
545.88,1188,4116,14068,428,308,-52
545.89,1028,4036,13732,333,312,-39
545.9,1144,4100,13860,208,272,-19
545.91,1008,4092,13864,210,307,-38
545.92,1032,4132,13980,285,297,-20
545.93,1084,4184,13800,260,332,-69
545.94,1172,4148,13900,197,311,-66
545.95,1056,4112,13744,170,305,-30
545.96,1040,4132,14016,162,307,-12
545.97,1136,4224,13800,146,320,-37
545.98,1116,4216,13888,202,270,-31
545.99,1084,4216,13944,184,331,-30
546.0,1000,4260,13896,185,305,-40
546.01,1016,4156,13764,185,303,-44
546.02,1060,4232,13900,168,310,-27
546.03,1068,4256,13900,151,329,-21
546.04,1060,4232,13956,142,300,-33
546.05,1104,4160,13872,76,272,-4
546.06,1036,4288,13816,86,275,-21
546.07,1060,4200,13864,54,299,-28
546.08,1084,4172,13832,48,311,-39
546.09,1136,4236,13804,25,303,-13
546.1,1044,4256,13984,-6,337,-35
546.11,1156,4184,14060,4,286,-32
546.12,1140,4264,13832,-33,282,-39
546.13,1052,4228,13812,-48,277,-13
546.14,1060,4212,13772,-91,246,-11
546.15,996,4208,13868,-86,280,-13
546.16,1092,4320,13916,-118,275,-17
546.17,1088,4240,14004,-134,231,-19
546.18,1144,4284,13792,-146,269,-43
546.19,1020,4280,13952,-169,295,-31
546.2,1072,4212,13904,-247,296,-22
546.21,1076,4224,13892,-238,274,-13
546.22,1064,4220,13720,-319,238,-11
546.23,964,4268,13948,-319,244,-32
546.24,1084,4216,13864,-331,204,0
546.25,1052,4216,13972,-387,250,11
546.26,1100,4172,13868,-455,232,12
546.27,1052,4296,13816,-500,196,-7
546.28,1088,4228,13824,-586,183,37
546.29,1088,4236,13868,-637,182,19
546.3,1128,4220,13860,-671,124,46
546.31,952,4136,13808,-687,142,37
546.32,1064,4184,13868,-722,159,28
546.33,976,4224,14012,-746,180,32
546.34,1000,4128,13980,-813,168,53
546.35,1120,4172,13836,-828,160,54
546.36,1080,4132,13972,-855,130,59
546.37,1020,4180,13944,-954,54,79
546.38,1140,4132,13976,-947,126,94
546.39,1104,4148,13984,-997,121,57
546.4,1032,4056,13872,-1049,107,71
546.41,1096,3972,13968,-1094,145,62
546.42,1064,3996,13896,-1115,112,77
546.43,972,3936,13852,-1204,87,51
546.44,1012,3928,13880,-1162,93,108
546.45,1080,3932,13932,-1133,44,87
546.46,1132,3988,13884,-1231,61,95
546.47,1196,3920,14012,-1199,71,98
546.48,1032,3936,13964,-1224,137,108
546.49,1132,3864,13908,-1223,118,90
546.5,1068,3900,13820,-1316,125,98
546.51,1048,3764,13920,-1453,57,78
546.52,1040,3796,13816,-1602,1,128
546.53,1120,3700,13756,-1584,-81,146
546.54,1220,3524,14004,-1214,65,115
546.55,1192,3724,14152,-985,115,104
546.56,1060,3764,14188,-1101,94,105
546.57,964,3640,13956,-1302,142,108
546.58,932,3596,13768,-1514,-27,117
546.59,1184,3528,13980,-1508,-71,155
546.6,1128,3452,14104,-1252,26,142
546.61,1124,3572,14024,-1411,132,176
546.62,1012,3640,13708,-2185,85,227
546.63,1308,3392,14036,-2236,-155,164
546.64,1300,3360,14576,-915,163,38
546.65,984,3588,13908,-1238,-307,142
546.66,1256,3320,14156,-1805,-313,162
546.67,1284,3244,14208,-1274,64,103
546.68,1048,3344,13600,-2201,-514,319
546.69,1368,2980,13652,-2467,-492,323
546.7,1296,3180,14052,-1388,-199,182
546.71,1360,3280,14432,-1169,-311,141
546.72,1356,3236,14584,-1158,-92,114
546.73,1128,3128,14184,-1061,-3,115
546.74,1192,3236,14244,-1312,-168,201
546.75,1152,3060,14148,-1394,-71,156
546.76,1216,3096,14176,-1321,17,154
546.77,1212,3084,14172,-1379,-47,146
546.78,1204,2936,13920,-1506,25,107
546.79,1240,2884,13900,-1431,-49,118
546.8,1404,2932,14008,-1073,-37,68
546.81,1388,2892,14124,-831,-7,42
546.82,1268,2768,14404,-596,72,34
546.83,1340,2904,14284,-650,56,68
546.84,1240,2920,14280,-853,6,66
546.85,1336,2860,14272,-1157,80,67
546.86,1240,2832,14168,-1266,77,59
546.87,1364,2756,14112,-1240,4,55
546.88,1276,2788,14112,-1316,7,79
546.89,1308,2724,14060,-1431,11,74
546.9,1280,2752,14208,-1386,34,49
546.91,1404,2696,14092,-1260,4,37
546.92,1376,2588,14076,-1120,24,34
546.93,1412,2620,14240,-1024,65,31
546.94,1412,2624,14092,-856,74,62
546.95,1392,2584,14260,-785,136,36
546.96,1348,2728,14220,-650,126,16
546.97,1280,2656,14188,-796,19,18
546.98,1360,2544,14392,-537,286,-24
546.99,1392,2672,14176,-715,148,46
547.0,1428,2532,13748,-1419,-55,82
547.01,1532,2336,14096,-864,-128,34
547.02,1488,2404,14208,-434,1,-23
547.03,1424,2556,14348,-536,40,-19
547.04,1468,2488,14156,-783,46,32
547.05,1400,2540,14236,-910,-40,58
547.06,1388,2472,14236,-983,-67,58
547.07,1436,2500,14268,-984,-39,-4
547.08,1408,2400,14116,-940,14,17
547.09,1624,2312,14172,-884,16,4
547.1,1468,2428,14296,-792,82,9
547.11,1360,2360,14308,-785,131,2
547.12,1388,2408,14240,-873,121,2
547.13,1504,2280,14088,-933,81,19
547.14,1436,2168,14096,-850,51,-7
547.15,1432,2272,14324,-730,47,-10
547.16,1452,2224,14188,-743,27,-11
547.17,1472,2188,14148,-671,1,29
547.18,1400,2112,14008,-552,87,20
547.19,1448,2136,14140,-439,73,5
547.2,1456,2200,14132,-431,81,-7
547.21,1508,2236,14192,-460,122,59
547.22,1420,2160,14104,-393,128,57
547.23,1540,2212,14080,-250,164,27
547.24,1496,2200,14160,-126,238,6
547.25,1428,2228,14148,5,198,19
547.26,1484,2208,14112,136,195,45
547.27,1452,2216,14104,284,257,-10
547.28,1508,2292,14116,410,327,5
547.29,1464,2200,14168,478,309,-30
547.3,1464,2204,14168,522,365,-15
547.31,1432,2356,14164,610,417,-15
547.32,1348,2344,14196,579,379,-41
547.33,1392,2308,14148,667,408,-22
547.34,1376,2352,14168,731,387,-36
547.35,1452,2388,14308,790,389,-38
547.36,1312,2316,14328,857,421,-31
547.37,1508,2288,14208,800,411,-30
547.38,1412,2356,14212,830,432,-48
547.39,1336,2440,14196,916,442,-68
547.4,1344,2472,14244,920,447,-45
547.41,1332,2376,14204,893,412,-49
547.42,1412,2460,14068,944,337,-25
547.43,1424,2504,14208,1028,365,-37
547.44,1452,2464,14076,1194,367,-51
547.45,1356,2516,14176,1316,426,-41
547.46,1256,2620,14044,1362,474,-79
547.47,1436,2688,14192,1363,498,-65
547.48,1500,2664,14204,1408,521,-51
547.49,1352,2760,14212,1355,485,-91
547.5,1392,2764,14132,1358,532,-100
547.51,1400,2824,14040,1394,535,-96
547.52,1292,2844,14200,1415,556,-90
547.53,1312,2884,14204,1308,550,-77
547.54,1256,2992,14280,1306,560,-77
547.55,1284,2984,14124,1299,529,-97
547.56,1284,3040,14248,1224,517,-97
547.57,1264,2936,14084,1173,478,-52
547.58,1324,3012,14152,1212,503,-78
547.59,1340,3032,14084,1212,558,-82
547.6,1316,3064,14168,1113,506,-91
547.61,1340,3100,14108,1130,516,-70
547.62,1224,3176,14068,1155,456,-114
547.63,1324,3180,14388,1110,487,-87
547.64,1256,3216,13860,1015,404,-83
547.65,1188,3156,13968,1016,469,-62
547.66,1284,3196,14312,1345,540,-132
547.67,1340,3280,14248,1407,604,-157
547.68,1224,3376,14332,1254,581,-128
547.69,1208,3348,13936,1090,606,-141
547.7,1220,3416,13992,811,460,-87
547.71,1244,3360,13836,765,451,-85
547.72,1236,3252,14104,933,388,-65
547.73,1144,3412,14112,801,457,-42
547.74,1064,3500,13444,-43,365,43
547.75,1352,3308,14208,315,333,-83
547.76,1400,3436,14408,1566,625,-220
547.77,1092,3680,13972,1107,240,-90
547.78,1348,3592,14092,517,238,-40
547.79,1236,3524,14080,1001,670,-100
547.8,948,3628,13408,-231,-17,119
547.81,1216,3352,13540,-16,183,70
547.82,1160,3464,13872,955,257,-51
547.83,1180,3616,14060,1257,109,-60
547.84,1224,3700,14216,1341,186,-50
547.85,1052,3840,14216,1028,175,-55
547.86,1072,3808,14156,946,278,-59
547.87,1132,3764,14168,851,274,-2
547.88,1148,3880,14172,677,316,-18
547.89,1208,3860,13944,638,354,-65
547.9,1228,3828,13756,637,370,-52
547.91,1040,3756,13756,645,364,-69
547.92,1116,3724,13676,790,369,-83
547.93,1212,3868,13972,888,348,-95
547.94,1184,3776,14036,884,343,-64
547.95,1124,3848,14072,834,333,-59
547.96,1088,3916,14052,628,292,-50
547.97,1068,3824,13952,563,318,-51
547.98,1092,3868,13964,490,323,-49
547.99,1140,3908,13872,408,351,-35
548.0,1104,3980,13944,390,308,-39
548.01,1140,4040,13800,346,303,-44
548.02,1120,3992,13944,316,317,-47
548.03,1088,3972,13852,382,342,-67
548.04,1132,4080,13868,417,332,-77
548.05,1244,3976,13916,421,350,-34
548.06,1124,4088,13868,424,386,-34
548.07,1148,4056,13976,508,414,-52
548.08,1084,3996,14016,554,374,-46
548.09,1060,4132,13832,446,246,-80
548.1,1196,4092,14288,776,616,-105
548.11,1068,4088,13832,436,474,-63
548.12,1116,4132,13676,-265,263,6
548.13,1160,3984,13668,126,341,-54
548.14,1128,4128,14060,576,357,-101
548.15,1072,4116,13916,439,298,-83
548.16,1112,4184,13824,268,310,-65
548.17,1152,4116,13816,195,223,-24
548.18,1084,4168,13856,126,219,2
548.19,1000,4152,13936,153,170,19
548.2,1164,4112,13764,217,216,-35
548.21,1156,4140,13944,278,252,-31
548.22,1112,4300,13872,336,261,-39
548.23,1080,4220,13912,311,288,-38
548.24,1072,4276,13724,234,256,-25
548.25,1084,4236,13708,149,285,-15
548.26,1160,4184,13940,134,277,-17
548.27,980,4276,13760,240,286,-30
548.28,1084,4132,13844,137,254,-12
548.29,1136,4220,13832,80,229,-35
548.3,1088,4240,13804,73,287,-8
548.31,1092,4200,13832,83,292,-36
548.32,992,4212,13888,70,265,-38
548.33,1016,4236,13844,42,274,-8
548.34,1276,4224,13824,13,311,-38
548.35,1104,4224,13708,-3,279,-33
548.36,1044,4348,13816,6,281,-10
548.37,1024,4220,13792,26,256,-19
548.38,1012,4280,13844,38,274,-16
548.39,952,4308,13900,42,213,-19
548.4,1060,4248,13784,48,274,-9
548.41,1052,4376,13852,82,266,-7
548.42,1000,4308,13896,22,292,-21
548.43,1120,4244,13804,-40,281,-18
548.44,988,4244,13856,-72,254,1
548.45,996,4268,13800,-82,261,-8
548.46,1092,4276,13760,-57,272,-11
548.47,932,4240,13900,-63,232,-6
548.48,1080,4256,13828,-56,258,-23
548.49,984,4364,13800,-43,243,-20
548.5,1064,4232,13812,-69,275,-39
548.51,1072,4336,13976,-80,290,-30
548.52,996,4380,13940,-116,240,-50
548.53,968,4292,13900,-143,243,-8
548.54,1036,4428,13744,-173,244,-18
548.55,1084,4308,13932,-192,240,-4
548.56,1040,4332,14076,-211,242,-13
548.57,1008,4208,13944,-216,283,-17
548.58,964,4332,13748,-240,253,-4
548.59,980,4256,13916,-269,237,-9
548.6,1100,4268,13900,-315,229,2
548.61,1116,4336,13952,-333,209,6
548.62,1064,4284,13836,-378,199,16
548.63,1044,4300,13908,-365,207,30
548.64,1052,4272,13912,-407,255,17
548.65,1040,4304,13912,-484,236,7
548.66,1076,4256,13928,-560,242,0
548.67,964,4256,13896,-626,250,8
548.68,1072,4268,13876,-795,154,27
548.69,968,4208,13900,-864,157,89
548.7,1096,4244,13952,-969,140,82
548.71,1060,4180,13972,-1060,116,65
548.72,1052,4108,13936,-1227,71,83
548.73,1048,4188,13860,-1349,-13,101
548.74,976,4036,13864,-1332,42,113
548.75,1076,4108,14008,-1274,86,104
548.76,1096,4108,13808,-1396,23,132
548.77,1128,3952,13992,-1455,46,111
548.78,1056,4076,13864,-1426,67,99
548.79,944,3936,14044,-1561,86,104
548.8,1052,3960,13988,-1689,-1,121
548.81,1044,3844,13996,-1917,-57,156
548.82,1020,3760,13712,-1971,-59,190
548.83,1128,3748,14104,-1627,20,130
548.84,1072,3808,14248,-1417,107,103
548.85,1044,3948,14164,-1564,62,108
548.86,1112,3796,14024,-1693,-33,132
548.87,1116,3696,13920,-1871,-113,167
548.88,1040,3608,13764,-1939,-156,185
548.89,1156,3500,13960,-1720,-144,189
548.9,1116,3568,14188,-1678,-31,217
548.91,1072,3612,13580,-2481,-9,254
548.92,1260,3372,13844,-2535,-207,219
548.93,1324,3344,14556,-1294,165,61
548.94,996,3532,13740,-1609,-589,227
548.95,1292,3256,13864,-2057,-581,219
548.96,1312,3172,14200,-1201,44,122
548.97,1008,3288,13720,-1946,-423,270
548.98,1220,3168,13620,-2288,-480,308
548.99,1388,3036,13852,-1318,-65,142
549.0,1272,3324,14432,-633,-121,42
549.01,1280,3336,14428,-905,-157,111
549.02,1196,3220,14304,-1188,-130,109
549.03,1216,3308,14232,-1414,-89,152
549.04,1064,3308,14220,-1521,-106,153
549.05,1236,3140,14200,-1597,-195,227
549.06,1400,3104,14156,-1660,-131,153
549.07,1336,3112,13936,-1779,-71,148
549.08,1188,2852,13892,-1737,-72,136
549.09,1336,2864,13788,-1545,-109,119
549.1,1292,2784,13860,-1198,-93,110
549.11,1308,2780,14032,-918,-30,52
549.12,1336,2832,14128,-779,-25,37
549.13,1380,2856,14308,-808,56,47
549.14,1296,2856,14200,-910,32,35
549.15,1340,2832,14232,-1145,-6,65
549.16,1280,2796,14204,-1237,-3,59
549.17,1396,2792,14148,-1268,-45,64
549.18,1392,2756,14104,-1352,-37,73
549.19,1356,2740,14116,-1481,-27,59
549.2,1332,2700,14016,-1504,-128,58
549.21,1376,2688,14100,-1283,-52,44
549.22,1356,2768,14196,-1223,4,58
549.23,1268,2732,14052,-1185,21,62
549.24,1412,2652,14132,-1029,59,61
549.25,1368,2648,14256,-921,96,29
549.26,1436,2708,14292,-943,98,37
549.27,1300,2452,14456,-877,90,19
549.28,1220,2588,14288,-687,255,-6
549.29,1360,2524,14164,-1159,81,38
549.3,1388,2496,13912,-1529,-47,31
549.31,1404,2412,14132,-1109,-158,7
549.32,1484,2448,14264,-746,-140,-8
549.33,1560,2492,14148,-849,-117,23
549.34,1464,2436,14204,-913,4,14
549.35,1360,2448,14184,-955,-1,7
549.36,1352,2444,14328,-1038,-84,32
549.37,1460,2424,14260,-997,4,16
549.38,1432,2436,14104,-983,9,-5
549.39,1460,2348,14284,-967,34,-21
549.4,1412,2344,14240,-936,54,-9
549.41,1596,2268,14256,-968,78,0
549.42,1400,2232,14108,-1117,166,-18
549.43,1432,2208,14240,-1246,114,-12
549.44,1484,2144,14268,-1177,24,-13
549.45,1312,2268,14208,-1119,-53,-17
549.46,1460,2296,14148,-1165,-65,-26
549.47,1420,2092,14368,-1083,-7,-12
549.48,1456,2176,14264,-972,-70,-36
549.49,1476,2184,14056,-1071,-36,18
549.5,1492,2052,14248,-1008,-10,35
549.51,1544,2080,14208,-1015,20,12
549.52,1528,2012,14152,-981,78,29
549.53,1592,2104,14260,-1015,110,-8
549.54,1372,1984,14336,-929,58,-12
549.55,1584,2044,14168,-740,46,-9
549.56,1472,1916,14256,-662,48,21
549.57,1436,1932,14352,-631,78,13
549.58,1516,1960,14268,-623,86,4
549.59,1496,1992,14252,-614,91,40
549.6,1504,1860,14204,-585,62,12
549.61,1572,1984,14292,-492,134,-2
549.62,1660,2020,14276,-395,161,5
549.63,1516,1944,14184,-332,132,-12
549.64,1500,1876,14188,-238,153,21
549.65,1492,1896,14072,-228,130,29
549.66,1556,1988,14168,-67,120,24
549.67,1580,1900,14036,133,164,6
549.68,1584,1852,14024,288,260,-9
549.69,1720,1764,14192,468,295,-31
549.7,1444,1936,14224,572,330,-26
549.71,1568,1984,14400,604,388,-19
549.72,1452,2004,14264,611,414,-40
549.73,1432,1876,14108,652,412,-50
549.74,1456,1968,14204,696,351,-10
549.75,1380,1960,14224,781,391,-40
549.76,1532,2040,14148,854,379,-60
549.77,1340,2144,14304,851,383,-46
549.78,1464,2076,14256,875,406,-27
549.79,1584,2004,14164,879,401,-21
549.8,1452,2128,14428,950,430,-40
549.81,1448,2208,14328,1035,479,-34
549.82,1496,2300,14232,1012,421,-32
549.83,1520,2152,14212,916,366,-14
549.84,1432,2128,14004,889,109,19
549.85,1560,2144,14120,1135,-23,74
549.86,1540,2248,14280,1376,350,28
549.87,1488,2480,14348,1436,588,-14
549.88,1392,2296,14304,1485,521,-34
549.89,1520,2280,14204,1554,596,-96
549.9,1484,2400,14040,1450,573,-43
549.91,1444,2344,14208,1529,562,-53
549.92,1592,2660,14492,1848,760,-124
549.93,1416,2628,14384,1358,842,-58
549.94,1324,2644,13888,251,615,16
549.95,1584,2452,14456,739,545,-34
549.96,1504,2708,14376,1814,534,-153
549.97,1356,2704,13956,846,81,-13
549.98,1408,2504,14496,1181,466,-85
549.99,1256,2748,13864,1117,530,-61
550.0,1192,2720,13588,-141,-90,128
550.01,1384,2508,13776,340,310,43
550.02,1396,2612,14136,1563,480,-75
550.03,1388,2848,14448,1784,451,-125
550.04,1336,2992,14320,1776,512,-119
550.05,1388,3044,14316,1595,539,-113
550.06,1324,3096,14300,1481,619,-91
550.07,1300,2956,14176,1414,584,-68
550.08,1408,3108,14204,1196,486,-88
550.09,1276,3108,14276,1064,449,-45
550.1,1372,3052,13928,989,476,-91
550.11,1396,3176,14052,1071,475,-51
550.12,1316,2996,13876,1185,434,-43
550.13,1476,3000,13932,1286,375,-63
550.14,1440,3092,14180,1540,394,-87
550.15,1248,3152,14020,1537,442,-92
550.16,1256,3304,14200,1382,513,-130
550.17,1220,3316,14132,1259,493,-86
550.18,1268,3308,14148,1160,552,-108
550.19,1312,3424,14036,1072,462,-112
550.2,1276,3368,14044,988,465,-97
550.21,1212,3452,14064,1019,473,-82
550.22,1276,3388,14032,956,441,-118
550.23,1276,3444,13836,966,446,-111
550.24,1260,3416,14048,965,482,-92
550.25,1096,3528,14000,1092,438,-110
550.26,1156,3604,13904,1213,478,-99
550.27,1152,3580,13988,1213,406,-125
550.28,1192,3652,14244,1205,452,-147
550.29,1188,3644,14200,1321,723,-139
550.3,1212,3720,13772,611,427,-45
550.31,1228,3604,13804,495,461,-56
550.32,1280,3628,13908,707,308,-116
550.33,1200,3612,14104,1078,369,-136
550.34,1212,3624,13808,1022,341,-104
550.35,1224,3672,14052,762,289,-71
550.36,1224,3612,13996,800,313,-56
550.37,1224,3736,13916,743,261,-66
550.38,1212,3884,13976,759,302,-75
550.39,1184,3844,13900,816,341,-62
550.4,1224,4004,13972,926,396,-108
550.41,1232,3936,13904,962,406,-101
550.42,1104,3952,13976,827,404,-82
550.43,1124,3824,14024,628,408,-84
550.44,1160,3956,13988,638,405,-68
550.45,1284,3856,13944,671,382,-70
550.46,1128,3948,13804,508,271,-42
550.47,1104,3948,13872,422,270,-29
550.48,1104,3984,13828,528,398,-88
550.49,1060,3928,13868,574,421,-69
550.5,1132,4056,13984,520,335,-70
550.51,1172,4060,13896,511,341,-61
550.52,1076,4032,13988,432,325,-49
550.53,1172,4068,13956,403,320,-6
550.54,1196,4104,13868,451,331,-12
550.55,1116,4084,13900,434,342,-47
550.56,1096,4064,13888,418,268,-27
550.57,1092,4136,13764,445,290,-41
550.58,1080,4220,13964,493,358,-49
550.59,1128,4228,13892,418,381,-56
550.6,1128,4100,13872,321,355,-44
550.61,1080,4236,13880,292,306,-53
550.62,1028,4160,13832,265,346,-20
550.63,1052,4196,13944,275,324,-37
550.64,1084,4172,13840,235,310,-20
550.65,1144,4240,13924,264,326,-51
550.66,1128,4172,13844,258,334,-29
550.67,1064,4356,14020,242,312,-54
550.68,996,4284,13928,182,300,-42
550.69,1048,4304,13812,183,314,-41
550.7,1112,4308,13760,202,301,-64
550.71,1056,4300,13944,184,302,-40
550.72,1060,4180,13852,168,325,-37
550.73,1008,4304,13808,146,305,-74
550.74,1040,4276,13856,134,294,-48
550.75,1108,4224,13748,118,322,-57
550.76,1120,4272,13820,110,285,-33
550.77,1088,4228,13844,64,297,-26
550.78,1144,4296,13820,49,280,-18
550.79,972,4276,13800,16,312,-3
550.8,1052,4332,13868,8,303,-24
550.81,1060,4296,13900,54,310,-29
550.82,1104,4252,13844,7,296,-46
550.83,1072,4344,13912,21,314,-23
550.84,1084,4292,13904,4,293,-29
550.85,1056,4284,13732,2,283,-14
550.86,1048,4376,13792,-2,280,-25
550.87,1164,4292,13932,13,297,-13
550.88,1008,4352,13848,-14,293,-20
550.89,964,4296,13888,-63,295,-27
550.9,1008,4360,13760,-161,234,-1
550.91,1004,4276,13788,-244,200,8
550.92,944,4340,13788,-246,230,7
550.93,1036,4304,13816,-44,361,-26
550.94,1036,4296,13948,53,393,-97
550.95,1052,4352,13888,-59,313,-40
550.96,1004,4412,13768,-211,270,-18
550.97,1000,4320,13788,-356,215,-15
550.98,1128,4324,13868,-289,201,-15
550.99,1004,4284,13996,-219,134,0
551.0,928,4344,13704,-621,256,106
551.01,1012,4236,13284,-1137,28,146
551.02,1360,4200,13992,-217,373,14
551.03,1072,4496,14188,438,454,-100
551.04,1016,4348,13836,-372,-67,29
551.05,1180,4296,13792,-465,64,53
551.06,872,4312,13636,-619,147,86
551.07,984,4168,13436,-929,-158,135
551.08,1180,4008,13548,-390,39,113
551.09,1104,4116,13852,-79,64,27
551.1,980,4200,14020,-46,-78,18
551.11,1080,4288,14012,-215,-40,73
551.12,972,4316,13992,-301,-28,79
551.13,976,4364,13844,-200,49,92
551.14,1180,4248,13948,-244,52,48
551.15,1064,4268,13876,-228,125,33
551.16,1092,4268,13856,-227,236,38
551.17,1072,4228,13772,-279,247,2
551.18,1056,4244,13752,-295,197,21
551.19,1144,4316,13888,-187,165,53
551.2,1108,4196,13940,-183,176,5
551.21,1092,4212,13896,-280,159,30
551.22,1168,4192,13996,-503,99,54
551.23,1152,4204,13884,-642,78,56
551.24,1108,4160,13880,-760,96,62
551.25,1064,4152,13964,-842,118,75
551.26,1072,4144,14064,-876,53,56
551.27,1048,4080,13836,-903,60,98
551.28,1156,4096,13748,-1008,51,123
551.29,1160,4044,13932,-1018,50,102
551.3,1188,4108,13904,-958,82,87
551.31,1212,4088,13748,-911,125,86
551.32,1076,4072,13876,-879,94,77
551.33,1140,4036,13888,-755,141,32
551.34,1060,4044,14076,-673,134,40
551.35,1196,4024,13972,-785,81,35
551.36,1128,3996,14292,-540,383,5
551.37,924,4148,13884,-866,264,77
551.38,1144,3928,13536,-1459,33,129
551.39,1104,3856,13824,-927,172,34
551.4,1160,3988,14104,-482,177,15
551.41,1112,3972,13852,-780,48,21
551.42,1236,3968,13908,-949,91,70
551.43,1116,3884,13868,-1128,59,105
551.44,1176,3896,14036,-1139,-28,121
551.45,1236,3872,14024,-1052,-57,109
551.46,1216,3972,14072,-1070,12,102
551.47,1156,3852,14016,-1159,-7,109
551.48,1276,3812,14008,-1134,-31,140
551.49,1196,3884,14092,-1131,1,138
551.5,1232,3664,13864,-1211,23,98
551.51,1280,3612,14012,-1217,19,119
551.52,1196,3608,13860,-1097,5,116
551.53,1176,3592,13840,-1105,51,114
551.54,1220,3600,13884,-1089,47,128
551.55,1220,3604,13900,-1110,41,91
551.56,1216,3476,14000,-1055,49,48
551.57,1192,3588,13932,-1033,12,65
551.58,1136,3636,13932,-980,55,63
551.59,1236,3528,14124,-1002,59,99
551.6,1200,3492,14084,-1124,87,85
551.61,1272,3492,14124,-1128,69,91
551.62,1120,3480,13976,-1114,18,81
551.63,1116,3452,13980,-1196,-42,117
551.64,1268,3444,14036,-1116,29,104
551.65,1144,3496,14080,-1076,29,94
551.66,1224,3400,14000,-996,12,110
551.67,1236,3364,13964,-972,13,108
551.68,1220,3344,14228,-1002,57,93
551.69,1284,3324,14048,-1063,42,81
551.7,1216,3256,14040,-1146,79,89
551.71,1196,3284,14116,-1134,35,85
551.72,1292,3324,14076,-1048,102,72
551.73,1236,3228,14000,-1142,51,72
551.74,1236,3168,14040,-1185,-7,90
551.75,1368,3236,14084,-1144,-2,86
551.76,1348,3148,14036,-1160,-33,75
551.77,1340,3204,14028,-1235,-30,74
551.78,1368,3076,14024,-1180,-8,77
551.79,1332,3172,14036,-1219,25,68
551.8,1332,3052,13984,-1226,-68,84
551.81,1380,2992,14104,-1114,-16,57
551.82,1416,3084,14184,-1029,14,45
551.83,1364,2960,14120,-1064,-10,74
551.84,1356,2896,14176,-1035,30,81
551.85,1352,3040,14156,-1073,1,75
551.86,1336,2948,14060,-1036,46,61
551.87,1280,2944,13988,-1001,86,54
551.88,1412,2940,14220,-1005,61,62
551.89,1284,2936,14172,-1025,92,61
551.9,1368,2916,14064,-1037,79,45
551.91,1372,2900,14148,-1094,-6,85
551.92,1288,2824,13884,-1173,-21,65
551.93,1256,2776,14140,-1158,-23,64
551.94,1420,2740,14184,-981,101,13
551.95,1352,2680,14392,-687,149,1
551.96,1280,2800,14212,-786,92,19
551.97,1284,2772,14100,-868,53,29
551.98,1328,2692,14116,-962,-55,50
551.99,1412,2672,14148,-1034,-82,77
552.0,1312,2720,14248,-864,-31,18
552.01,1432,2676,14228,-980,157,75
552.02,1312,2784,13728,-1857,89,107
552.03,1692,2492,14268,-1786,-80,69
552.04,1496,2552,14764,-319,245,-105
552.05,1280,2728,13908,-1013,-425,48
552.06,1672,2428,14188,-1334,-292,56
552.07,1472,2324,14068,-557,211,-10
552.08,1296,2628,13548,-1572,-458,167
552.09,1536,2256,13784,-1511,-274,191
552.1,1560,2340,14268,-265,195,-6
552.11,1544,2576,14744,-51,232,-28
552.12,1428,2536,14564,-274,159,10
552.13,1400,2616,14268,-587,92,59
552.14,1368,2616,14476,-715,141,83
552.15,1424,2532,14268,-810,53,102
552.16,1536,2504,14220,-878,-8,73
552.17,1508,2384,14088,-949,50,49
552.18,1492,2288,14040,-1062,66,72
552.19,1408,2216,13908,-941,74,63
552.2,1644,2212,13996,-705,16,74
552.21,1468,2328,13944,-311,28,54
552.22,1496,2236,14288,66,135,9
552.23,1464,2292,14448,15,105,-21
552.24,1432,2304,14260,-10,114,26
552.25,1520,2296,14336,-77,155,12
552.26,1576,2296,14228,-56,150,7
552.27,1488,2220,14004,11,202,-14
552.28,1652,2244,14176,90,192,19
552.29,1600,2300,14196,213,235,19
552.3,1600,2320,14080,325,234,1
552.31,1496,2268,14128,439,298,-6
552.32,1612,2352,13984,576,274,-45
552.33,1504,2336,14004,809,313,-32
552.34,1500,2452,14084,1112,419,-29
552.35,1468,2452,14040,1338,469,-62
552.36,1412,2540,14232,1581,479,-75
552.37,1584,2528,14404,1712,407,-81
552.38,1592,2580,14276,2121,788,-131
552.39,1428,2712,13940,1844,543,-51
552.4,1532,2532,14100,1667,587,-71
552.41,1504,2624,13904,2089,608,-123
552.42,1388,2716,13996,2129,417,-93
552.43,1536,2788,14168,2371,552,-152
552.44,1448,2892,14088,2465,625,-145
552.45,1500,2892,14104,2338,650,-154
552.46,1356,2992,14132,2230,589,-122
552.47,1400,2956,14248,2105,544,-126
552.48,1520,3012,14280,2032,649,-148
552.49,1508,3172,14092,1913,608,-158
552.5,1376,3288,14184,1879,689,-164
552.51,1252,3232,14316,1832,656,-187
552.52,1412,3276,14116,1665,631,-180
552.53,1332,3184,14144,1511,607,-151
552.54,1352,3364,13940,1452,510,-162
552.55,1312,3264,14012,1532,496,-149
552.56,1324,3236,14060,1444,469,-110
552.57,1420,3324,13880,1241,372,-101
552.58,1312,3400,13964,1345,466,-140
552.59,1268,3488,14144,1442,530,-119
552.6,1232,3536,14140,1384,508,-157
552.61,1296,3588,13992,1295,519,-108
552.62,1300,3680,13980,1186,482,-116
552.63,1280,3676,14044,1146,496,-135
552.64,1364,3840,14204,1103,530,-94
552.65,1212,3684,14124,1079,496,-110
552.66,1116,3732,13880,1111,458,-88
552.67,1220,3768,14020,1054,442,-113
552.68,1220,3764,13968,989,409,-103
552.69,1212,3868,14052,1032,446,-84
552.7,1236,3796,13988,930,402,-93
552.71,1228,3836,13948,856,364,-70
552.72,1308,3852,13796,847,388,-71
552.73,1268,3960,14072,789,424,-103
552.74,1228,3992,13988,750,426,-94
552.75,1220,3892,13924,743,450,-98
552.76,1188,4024,14012,722,451,-119
552.77,1188,3916,14104,644,478,-135
552.78,1148,4000,13824,657,438,-92
552.79,1140,3980,13808,606,408,-113
552.8,1180,4080,13888,516,387,-89
552.81,1204,3980,13872,512,358,-89
552.82,1204,4004,13960,469,394,-82
552.83,1144,4068,13980,490,405,-62
552.84,1300,4024,14020,476,395,-72
552.85,1108,4072,14016,513,414,-94
552.86,1124,4172,13912,392,380,-47
552.87,1080,4068,13888,274,335,-46
552.88,1068,4084,13736,131,280,-45
552.89,1168,4136,13812,249,363,-51
552.9,1144,4252,13932,501,489,-78
552.91,1088,4096,13960,595,514,-93
552.92,1128,4168,13940,452,469,-117
552.93,1112,4212,13744,226,424,-63
552.94,988,4280,13780,153,383,-41
552.95,1156,4156,13996,258,292,-68
552.96,1056,4284,14008,105,230,15
552.97,968,4216,13484,-594,257,98
552.98,1248,4028,13652,-418,183,49
552.99,1264,4308,14380,821,688,-179
553.0,912,4360,14132,579,303,-104
553.01,1088,4380,13824,-157,-13,60
553.02,1180,4216,13872,6,302,-20
553.03,1052,4176,13520,-462,85,80
553.04,1112,3968,13456,-542,-14,100
553.05,1388,3988,13684,28,155,48
553.06,1248,4044,14036,227,148,33
553.07,1092,4184,14104,363,-15,14
553.08,1152,4320,14056,298,-37,16
553.09,1092,4300,14096,182,138,32
553.1,1164,4256,13992,187,80,-24
553.11,1092,4276,13772,133,178,-13
553.12,1232,4260,13744,191,269,-23
553.13,1148,4400,13684,199,331,-36
553.14,1204,4260,13704,262,296,-53
553.15,1168,4232,13676,405,250,-24
553.16,1216,4356,13912,489,232,-17
553.17,1192,4268,13980,367,238,-3
553.18,1164,4324,13964,258,217,3
553.19,1268,4260,13888,222,242,1
553.2,1156,4328,13968,167,259,-16
553.21,1152,4308,13804,61,278,-15
553.22,1192,4352,13800,2,244,-37
553.23,1228,4272,13824,8,296,-3
553.24,1152,4304,13864,-13,291,-20
553.25,1072,4324,13728,-51,274,-22
553.26,1112,4352,13840,-24,290,3
553.27,1196,4360,13876,7,296,-18
553.28,1136,4376,13836,33,311,-14
553.29,1080,4360,13820,65,323,-29
553.3,1088,4340,13732,86,341,-51
553.31,1108,4440,13892,289,199,-53
553.32,1108,4540,13840,231,228,-40
553.33,1048,4432,14156,291,616,-70
553.34,1072,4448,13404,-354,111,45
553.35,1116,4268,13692,-195,335,-13
553.36,1036,4404,14000,263,327,-66
553.37,936,4336,13748,66,215,-31
553.38,1128,4292,13820,-18,231,-1
553.39,1116,4404,13764,-106,196,23
553.4,964,4440,13680,-49,201,-5
553.41,1196,4372,13748,8,115,9
553.42,1188,4408,13924,-66,139,-19
553.43,1036,4520,13816,51,174,-19
553.44,1132,4460,13872,70,313,-41
553.45,1052,4492,13964,29,205,1
553.46,1120,4460,13772,-7,178,19
553.47,1068,4416,13868,-104,211,9
553.48,1208,4420,13880,-100,194,3
553.49,992,4376,13828,-34,199,3
553.5,1140,4472,13844,-118,158,-23
553.51,1044,4472,13908,-239,120,28
553.52,1236,4420,13824,-249,183,-1
553.53,1044,4452,13860,-276,225,2
553.54,1084,4392,13800,-308,229,-13
553.55,1116,4528,13756,-367,194,5
553.56,1144,4388,13840,-440,211,14
553.57,1176,4340,13748,-434,196,37
553.58,1080,4416,13784,-462,170,26
553.59,1172,4344,13864,-452,163,24
553.6,1040,4460,14036,-466,210,25
553.61,1132,4320,13772,-468,172,31
553.62,1148,4476,13812,-524,204,14
553.63,1164,4504,13804,-561,220,9
553.64,1064,4364,13868,-656,164,36
553.65,948,4396,13860,-711,145,53
553.66,1088,4308,13828,-773,174,53
553.67,1104,4372,13756,-882,131,49
553.68,1164,4344,13780,-947,103,93
553.69,1140,4340,13700,-910,75,108
553.7,1140,4316,13788,-895,71,56
553.71,1160,4276,13800,-874,102,82
553.72,1092,4260,13956,-875,127,65
553.73,1136,4120,13904,-967,68,74
553.74,1140,4272,13860,-1013,112,93
553.75,1096,4236,13864,-1046,66,102
553.76,1056,4224,13900,-1033,135,64
553.77,1168,4128,13820,-1102,138,78
553.78,1184,4084,13932,-1170,130,41
553.79,1236,4196,13852,-1242,86,93
553.8,1128,4080,13852,-1257,64,104
553.81,1152,4000,13892,-1260,17,114
553.82,1204,3968,13888,-1189,30,113
553.83,1292,3952,13920,-1119,35,119
553.84,1120,4088,13900,-1163,20,120
553.85,1200,3944,13892,-1188,67,110
553.86,1104,3932,14004,-1201,70,89
553.87,1204,3796,13896,-1209,108,110
553.88,1176,3816,13988,-1229,68,120
553.89,1208,3880,13896,-1177,38,116
553.9,1112,3852,13924,-1137,28,108
553.91,1256,3868,14112,-1138,89,115
553.92,1140,3764,14076,-1095,32,141
553.93,1248,3684,13928,-1142,40,109
553.94,1140,3760,13964,-1134,64,103
553.95,1148,3780,14028,-1145,75,99
553.96,1116,3552,14060,-1197,61,108
553.97,1164,3640,14024,-1189,100,98
553.98,1220,3664,14040,-1222,82,88
553.99,1260,3644,13880,-1301,14,82
554.0,1224,3592,14036,-1420,-50,128
554.01,1192,3524,14004,-1447,-94,129
554.02,1232,3460,14080,-1112,101,75
554.03,1300,3596,14080,-940,157,46
554.04,1264,3596,14032,-1018,84,67
554.05,1260,3532,14112,-1113,69,90
554.06,1148,3456,13956,-1219,-56,98
554.07,1280,3376,14004,-1135,-77,117
554.08,1288,3532,14048,-989,-16,88
554.09,1244,3432,14148,-1176,96,142
554.1,1228,3392,13580,-2035,-37,203
554.11,1444,3116,14164,-1738,5,90
554.12,1300,3292,14432,-481,180,-9
554.13,1180,3300,13864,-1176,-485,155
554.14,1484,3124,13972,-1303,-200,119
554.15,1160,3232,13868,-971,60,108
554.16,1232,3048,13508,-1855,-545,261
554.17,1580,2968,13908,-915,-29,145
554.18,1460,3088,14196,-393,112,65
554.19,1376,3224,14360,-333,-39,26
554.2,1312,3244,14200,-683,-36,80
554.21,1300,3316,14160,-906,45,104
554.22,1360,3268,14328,-930,80,91
554.23,1328,3188,14412,-1175,-110,145
554.24,1400,3048,14040,-1231,-61,145
554.25,1332,3116,13904,-1391,-33,130
554.26,1384,2952,13800,-1410,-71,118
554.27,1324,2800,13860,-1185,-87,136
554.28,1480,2796,14136,-809,-95,77
554.29,1516,2976,14256,-609,-23,45
554.3,1528,2992,14296,-624,-9,45
554.31,1368,2896,14212,-700,-25,78
554.32,1432,2880,14312,-766,61,66
554.33,1444,2876,14100,-869,84,62
554.34,1368,2848,14172,-929,26,68
554.35,1452,2744,14068,-942,7,74
554.36,1552,2868,14084,-950,-22,84
554.37,1440,2772,14080,-1003,-53,86
554.38,1468,2832,14252,-1010,-46,86
554.39,1532,2832,14140,-922,21,38
554.4,1508,2788,14188,-816,16,42
554.41,1388,2788,14168,-703,79,62
554.42,1300,2764,14132,-553,168,39
554.43,1360,2808,14128,-438,165,17
554.44,1376,2740,14076,-527,93,33
554.45,1476,2764,14288,-304,337,-3
554.46,1444,2824,13996,-458,251,22
554.47,1324,2724,14120,-955,48,59
554.48,1496,2564,13988,-740,64,15
554.49,1464,2684,14192,-623,-50,13
554.5,1560,2620,14296,-340,18,-23
554.51,1564,2628,14288,-335,54,-11
554.52,1524,2716,14100,-480,38,24
554.53,1452,2552,14076,-521,39,-5
554.54,1424,2748,14148,-545,27,24
554.55,1584,2712,14244,-458,61,4
554.56,1628,2564,14208,-328,112,4
554.57,1436,2596,14140,-313,114,-14
554.58,1560,2564,14148,-187,171,10
554.59,1604,2680,14344,-213,177,-8
554.6,1532,2556,14080,-383,141,31
554.61,1516,2544,14208,-361,145,23
554.62,1568,2556,14312,-232,181,4
554.63,1596,2612,14320,-264,139,-27
554.64,1516,2584,14032,-305,142,21
554.65,1596,2488,13944,-268,141,15
554.66,1540,2596,14132,-89,165,-30
554.67,1440,2564,14060,-27,152,5
554.68,1516,2592,14140,46,181,7
554.69,1480,2496,14076,52,200,11
554.7,1524,2576,14168,144,229,29
554.71,1548,2552,13960,349,278,18
554.72,1628,2648,13988,477,301,-5
554.73,1540,2656,14080,644,307,-30
554.74,1584,2684,14040,836,353,-36
554.75,1540,2648,14052,1082,431,-71
554.76,1556,2668,14124,1280,465,-70
554.77,1528,2736,14092,1486,497,-89
554.78,1472,2684,14056,1639,541,-79
554.79,1604,2832,14024,1764,543,-105
554.8,1432,2820,14076,1966,570,-94
554.81,1536,2908,14020,2023,570,-129
554.82,1464,2988,14076,2143,649,-147
554.83,1388,3012,14060,2164,638,-138
554.84,1384,2996,14052,2109,693,-164
554.85,1472,3128,14152,2109,701,-184
554.86,1424,3192,14088,2067,698,-198
554.87,1464,3220,14208,1979,734,-177
554.88,1368,3216,14148,1818,677,-164
554.89,1356,3264,14072,1787,677,-189
554.9,1332,3436,13924,1742,612,-164
554.91,1440,3356,14176,1617,627,-190
554.92,1408,3324,14008,1517,649,-181
554.93,1328,3460,14020,1489,598,-183
554.94,1288,3436,14024,1448,555,-163
554.95,1288,3524,14064,1340,566,-184
554.96,1332,3620,13968,1315,567,-162
554.97,1336,3512,14048,1261,536,-176
554.98,1268,3588,14036,1226,562,-156
554.99,1368,3664,13988,1155,513,-147
555.0,1268,3564,13988,1059,544,-120
555.01,1368,3764,14012,1049,500,-123
555.02,1436,3700,14116,1019,546,-132
555.03,1280,3760,14024,944,509,-118
555.04,1384,3856,13988,888,540,-119
555.05,1252,3756,13996,910,509,-111
555.06,1284,3836,14008,873,483,-79
555.07,1228,3928,13904,720,492,-104
555.08,1168,3836,13948,598,417,-102
555.09,1224,3776,13960,531,362,-92
555.1,1204,3852,13916,589,443,-92
555.11,1256,3884,14260,800,541,-124
555.12,1224,4084,14144,844,535,-134
555.13,1248,4056,13964,715,464,-122
555.14,1108,4104,13960,471,431,-101
555.15,1140,3924,13732,315,366,-92
555.16,1124,4016,13916,396,323,-79
555.17,1136,3976,14072,487,276,-58
555.18,1056,4072,13752,-78,347,41
555.19,1212,3832,13572,-374,97,62
555.2,1284,4132,14380,1153,669,-222
555.21,1044,4268,13928,288,75,-35
555.22,1240,4004,14120,38,113,-45
555.23,1192,4184,13804,189,411,-25
555.24,1008,3952,13300,-680,-155,125
555.25,1312,3752,13528,-99,139,77
555.26,1304,4040,13700,332,222,12
555.27,1164,3988,14024,520,70,3
555.28,1184,4140,14032,623,-10,18
555.29,1148,4136,14000,376,54,11
555.3,964,4244,13884,379,108,29
555.31,1132,4296,14072,306,131,-1
555.32,1216,4200,13916,329,260,8
555.33,1124,4200,13732,296,301,-20
555.34,1160,4224,13752,317,354,-43
555.35,1296,4092,13708,500,301,-38
555.36,1308,4172,13800,574,206,-36
555.37,1320,4104,13968,584,305,-22
555.38,1244,4200,13992,471,248,-48
555.39,1260,4236,14000,410,227,6
555.4,1244,4228,13956,290,266,-29
555.41,1216,4200,13772,147,276,-41
555.42,1128,4188,13924,171,291,-48
555.43,1204,4184,13904,95,300,-11
555.44,1268,4304,13720,87,283,-31
555.45,1212,4356,13904,57,267,-24
555.46,1056,4220,13916,59,281,-37
555.47,1128,4296,13744,92,276,-39
555.48,1204,4172,13832,108,285,-21
555.49,1220,4296,13840,120,320,-38
555.5,1148,4296,13756,207,320,-40
555.51,1096,4312,13888,216,361,-46
555.52,1068,4364,13708,328,348,-62
555.53,1216,4248,14116,247,279,-58
555.54,1056,4404,14088,415,618,-83
555.55,1016,4392,13528,-194,217,23
555.56,1164,4252,13544,-208,319,-4
555.57,1284,4208,13932,266,401,-87
555.58,1196,4304,13728,210,304,-78
555.59,1116,4268,13760,83,255,-37
555.6,1116,4396,13792,-48,211,-20
555.61,1100,4372,13788,-41,203,-7
555.62,1264,4340,13836,41,137,4
555.63,1184,4388,13908,-17,165,-21
555.64,1112,4396,13852,46,210,-3
555.65,1156,4444,13744,96,172,-11
555.66,1224,4440,13884,135,198,0
555.67,1016,4356,13912,76,201,-18
555.68,1204,4364,13812,-18,226,-7
555.69,1212,4292,13840,-23,215,-14
555.7,1172,4304,13832,45,222,-7
555.71,1124,4336,13812,70,213,-11
555.72,1104,4372,13828,-35,186,-6
555.73,1096,4324,13808,-86,183,-20
555.74,1164,4268,13780,-94,224,-4
555.75,1104,4408,13820,-65,228,-8
555.76,1136,4368,13744,-99,259,-7
555.77,1172,4396,13872,-142,231,11
555.78,1080,4456,13764,-151,260,20
555.79,1192,4480,13704,-138,254,-3
555.8,1120,4412,13780,-91,240,-22
555.81,1304,4484,13852,-83,293,6
555.82,1096,4424,13816,-122,254,1
555.83,1140,4436,13836,-103,239,1
555.84,1064,4332,13924,-114,250,4
555.85,1216,4432,13832,-101,287,-16
555.86,1172,4428,13888,-167,254,-25
555.87,1092,4304,13772,-34,240,1
555.88,1124,4384,13808,-289,262,18
555.89,1036,4284,13764,-100,174,24
555.9,1076,4468,13812,-183,251,3
555.91,1180,4448,13728,-156,227,-15
555.92,1176,4360,13828,-145,256,-7
555.93,1192,4376,13808,-196,258,-16
555.94,1184,4408,13780,-178,255,-30
555.95,1160,4376,13736,-197,251,2
555.96,1196,4368,13780,-210,243,-55
555.97,1224,4432,13860,-220,218,-12
555.98,1224,4384,13736,-208,213,-9
555.99,1156,4392,13860,-242,207,18
556.0,1200,4348,13736,-257,238,17
556.01,1144,4368,13788,-258,207,2
556.02,1028,4348,13880,-236,235,-13
556.03,1176,4356,13740,-276,234,12
556.04,1040,4396,13860,-288,223,8
556.05,1132,4328,13812,-302,244,25
556.06,1096,4292,13860,-304,218,23
556.07,1132,4368,13988,-316,206,11
556.08,1116,4396,13816,-325,208,30
556.09,1156,4328,13680,-322,207,-21
556.1,1076,4292,13896,-345,236,12
556.11,1120,4356,13756,-343,224,15
556.12,1140,4340,13772,-346,196,25
556.13,1040,4344,13808,-424,202,11
556.14,1144,4392,13944,-441,186,30
556.15,1200,4344,13792,-465,195,36
556.16,1160,4360,13708,-522,184,-4
556.17,1076,4276,13860,-541,164,29
556.18,1184,4268,13908,-582,201,32
556.19,1136,4288,13816,-613,181,42
556.2,1208,4304,13952,-670,176,19
556.21,1132,4308,13964,-813,139,49
556.22,1052,4308,13872,-980,120,82
556.23,1088,4172,13704,-1189,59,86
556.24,1220,4160,13836,-1133,33,110
556.25,1248,4060,13996,-866,160,41
556.26,1128,4140,14084,-737,187,62
556.27,1128,4220,14104,-833,135,46
556.28,1072,4136,14056,-953,74,75
556.29,1096,4004,13740,-1129,57,107
556.3,1152,4104,13744,-1112,8,107
556.31,1212,4092,14076,-982,3,109
556.32,1112,3972,13864,-1383,127,183
556.33,1196,4012,13560,-2045,-78,220
556.34,1424,3876,14308,-1095,276,59
556.35,1264,4064,14288,-417,119,19
556.36,1036,4056,13784,-1304,-295,137
556.37,1276,3876,13992,-1149,125,79
556.38,988,4008,13756,-1235,145,164
556.39,1104,3664,13384,-2151,-471,298
556.4,1316,3584,13656,-1421,-175,208
556.41,1308,3692,14044,-666,-95,139
556.42,1304,3844,14264,-598,-199,95
556.43,1124,3908,14188,-705,-212,146
556.44,1128,3888,14004,-868,-114,167
556.45,1172,3964,14120,-1020,-98,177
556.46,1244,3868,14000,-1074,-143,190
556.47,1308,3784,14088,-1047,-32,164
556.48,1200,3652,13796,-1170,15,139
556.49,1224,3560,13788,-1242,5,132
556.5,1280,3492,13836,-1024,-100,138
556.51,1392,3536,13984,-844,-29,121
556.52,1424,3508,14284,-803,66,126
556.53,1264,3484,13956,-936,-2,123
556.54,1336,3536,14148,-1011,18,92
556.55,1368,3472,13988,-1074,65,82
556.56,1372,3432,13988,-1127,88,119
556.57,1260,3512,13988,-1196,41,115
556.58,1320,3480,14240,-1288,28,123
556.59,1360,3400,13920,-1275,-14,107
556.6,1316,3448,13912,-1221,14,102
556.61,1392,3416,14100,-1178,30,94
556.62,1320,3412,13976,-1190,1,113
556.63,1288,3360,14132,-1124,35,94
556.64,1408,3456,14020,-997,79,75
556.65,1292,3332,14168,-969,140,76
556.66,1304,3384,14040,-975,115,47
556.67,1348,3232,14276,-969,128,47
556.68,1348,3276,14092,-959,360,58
556.69,1256,3356,14084,-1316,25,101
556.7,1356,3084,13812,-1484,9,112
556.71,1364,3052,14016,-1214,-70,68
556.72,1516,3224,14228,-743,-32,19
556.73,1396,3204,14176,-852,-28,34
556.74,1424,3172,14044,-1055,-50,90
556.75,1256,3104,14260,-1131,-21,88
556.76,1288,3180,14152,-1163,-44,56
556.77,1432,3244,14212,-1247,-19,49
556.78,1432,3140,14132,-1365,20,4
556.79,1396,3128,14184,-1412,-6,16
556.8,1508,3004,14176,-1454,13,14
556.81,1516,3032,14200,-1373,1,47
556.82,1384,2932,14264,-1444,23,28
556.83,1444,2796,14176,-1407,-25,87
556.84,1420,2764,14048,-1256,-74,48
556.85,1420,2788,14140,-1102,-55,28
556.86,1592,2812,13948,-1084,32,28
556.87,1380,2736,14084,-1067,41,47
556.88,1376,2708,14028,-956,6,34
556.89,1416,2680,14260,-951,25,23
556.9,1408,2700,14240,-876,45,22
556.91,1420,2796,14180,-983,84,40
556.92,1396,2748,14072,-1086,33,86
556.93,1536,2684,14260,-963,55,76
556.94,1568,2724,14280,-1032,100,92
556.95,1400,2612,14176,-1135,110,27
556.96,1496,2704,14180,-1106,46,62
556.97,1452,2620,14028,-1105,81,39
556.98,1516,2596,14184,-1081,87,26
556.99,1560,2660,14112,-1020,62,21
557.0,1504,2520,14120,-1070,65,16
557.01,1588,2496,14140,-1057,70,-4
557.02,1432,2484,14068,-987,76,29
557.03,1532,2572,14224,-980,84,38
557.04,1508,2520,14292,-1004,139,19
557.05,1472,2500,14156,-954,88,30
557.06,1592,2332,14224,-960,140,37
557.07,1576,2356,14152,-835,122,-9
557.08,1576,2404,14140,-894,108,-17
557.09,1564,2420,14184,-882,91,9
557.1,1480,2380,14376,-893,69,-2
557.11,1532,2388,14164,-925,98,-10
557.12,1524,2304,14240,-878,57,-6
557.13,1636,2292,14292,-807,161,-20
557.14,1464,2288,14128,-844,124,-11
557.15,1532,2220,14148,-845,146,6
557.16,1476,2188,14204,-847,136,11
557.17,1548,2212,14080,-782,114,32
557.18,1536,2188,14216,-751,70,27
557.19,1476,2156,14228,-696,106,14
557.2,1528,2260,14264,-669,101,17
557.21,1604,2152,14300,-640,149,-3
557.22,1624,2188,14232,-604,128,36
557.23,1428,2224,14296,-558,198,22
557.24,1460,2136,14204,-453,211,-4
557.25,1636,2208,14168,-434,143,10
557.26,1584,2100,14240,-392,169,2
557.27,1504,2092,14112,-254,172,-2
557.28,1552,2048,14112,-203,186,29
557.29,1604,2008,14044,-155,151,28
557.3,1584,2088,14112,-52,163,37
557.31,1572,2068,14112,115,231,40
557.32,1516,2112,14356,520,433,-45
557.33,1680,2164,14320,615,428,-83
557.34,1508,2164,14388,533,371,-68
557.35,1520,2224,14080,567,348,-31
557.36,1496,2116,13872,588,312,-30
557.37,1548,2160,14044,868,358,-34
557.38,1560,2304,14448,1144,528,-50
557.39,1524,2392,14452,802,613,-6
557.4,1456,2296,13800,-240,79,115
557.41,1572,2116,14124,263,283,36
557.42,1544,2348,14612,1622,467,-107
557.43,1288,2456,14032,779,16,-10
557.44,1680,2176,14132,710,205,-49
557.45,1504,2352,14388,1524,662,-102
557.46,1332,2452,13584,72,-110,98
557.47,1572,2184,13880,563,285,71
557.48,1636,2300,14156,1568,614,-59
557.49,1616,2520,14484,1791,595,-90
557.5,1448,2672,14376,1734,548,-125
557.51,1504,2808,14232,1418,457,-68
557.52,1600,2744,14224,1270,530,-26
557.53,1400,2756,14364,1269,334,-2
557.54,1496,2648,14116,1176,369,-32
557.55,1552,2696,14100,1045,434,-30
557.56,1500,2696,14016,1030,488,-35
557.57,1408,2708,13872,1134,488,-26
557.58,1500,2696,13936,1271,461,-25
557.59,1348,2764,14216,1520,457,-58
557.6,1468,2840,14244,1607,466,-75
557.61,1532,2868,14224,1457,481,-84
557.62,1444,2952,14268,1249,462,-91
557.63,1404,2928,14268,1067,486,-74
557.64,1332,2936,14112,979,418,-61
557.65,1340,3076,14072,916,359,-56
557.66,1460,3036,14056,932,361,-44
557.67,1388,3064,13984,821,352,-34
557.68,1488,2968,14144,897,382,-31
557.69,1372,3176,14056,930,393,-73
557.7,1324,3136,14116,1057,437,-76
557.71,1344,3232,14140,1252,479,-68
557.72,1328,3268,14232,1352,565,-108
557.73,1388,3268,14232,1270,449,-116
557.74,1360,3288,14364,1462,794,-116
557.75,1244,3404,13968,980,545,-38
557.76,1328,3332,13912,645,494,-53
557.77,1340,3264,14052,955,565,-99
557.78,1280,3360,13932,807,333,-90
557.79,1412,3328,14152,952,345,-112
557.8,1412,3352,14200,1201,458,-124
557.81,1404,3464,14036,911,363,-77
557.82,1308,3436,14132,852,272,-38
557.83,1408,3508,13980,751,244,-51
557.84,1320,3572,13960,784,284,-74
557.85,1232,3552,14100,936,311,-128
557.86,1380,3540,13888,984,341,-95
557.87,1400,3596,14044,933,373,-116
557.88,1252,3680,13936,869,411,-105
557.89,1256,3584,14036,781,357,-77
557.9,1296,3612,14040,726,362,-83
557.91,1268,3560,13980,656,323,-44
557.92,1388,3704,13984,596,331,-45
557.93,1324,3732,13836,628,349,-77
557.94,1300,3620,13948,727,404,-97
557.95,1192,3644,13876,761,416,-84
557.96,1156,3660,13896,769,407,-108
557.97,1204,3740,13888,680,338,-72
557.98,1408,3756,13944,679,368,-70
557.99,1256,3844,13924,629,383,-57
558.0,1280,3936,13964,586,363,-50
558.01,1292,3824,13972,627,364,-69
558.02,1172,3780,13996,570,351,-65
558.03,1124,3864,13936,526,318,-37
558.04,1192,3908,14104,612,344,-70
558.05,1256,3932,14004,629,370,-60
558.06,1216,3944,13904,554,356,-39
558.07,1192,3912,13956,510,341,-59
558.08,1256,3980,14040,506,365,-54
558.09,1276,3916,13832,527,339,-56
558.1,1268,4012,13936,489,343,-77
558.11,1264,3864,13952,468,379,-74
558.12,1172,4004,14012,499,371,-72
558.13,1268,4016,14004,455,356,-86
558.14,1260,3960,13860,496,349,-53
558.15,1120,3904,13864,456,334,-81
558.16,1156,4164,13964,422,327,-69
558.17,1204,4028,13944,437,328,-54
558.18,1148,4024,13876,398,318,-58
558.19,1144,4124,13848,421,346,-58
558.2,1100,4136,13920,411,337,-36
558.21,1152,4132,13912,341,323,-52
558.22,1168,4164,13960,342,331,-29
558.23,1180,4096,13796,307,330,-45
558.24,1268,4124,13836,313,301,-13
558.25,1204,4104,13892,287,355,-31
558.26,1056,4120,14092,340,369,-39
558.27,1224,4140,13868,342,353,-53
558.28,1116,4204,14040,292,382,-28
558.29,1128,4208,13964,173,332,-45
558.3,1136,4220,13784,66,253,-29
558.31,1204,4184,13668,4,252,-30
558.32,1252,4188,13820,125,352,-51
558.33,1208,4228,13964,386,437,-59
558.34,1192,4332,13924,393,456,-93
558.35,1096,4256,13692,254,381,-78
558.36,1116,4256,13884,79,325,-45
558.37,1072,4260,13792,-29,282,-29
558.38,1184,4184,13972,73,238,-42
558.39,1104,4180,13928,22,179,1
558.4,1004,4256,13540,-627,226,112
