200.175, 4215
200.1775, 4192
200.18, 4200
200.1825, 4177
200.185, 4083
200.1875, 4198
200.19, 4191
200.1925, 4176
200.195, 4181
200.1975, 4169
200.2, 4171
200.2025, 4094
200.205, 4195
200.2075, 4180
200.21, 4181
200.2125, 4154
200.215, 4194
200.2175, 4181
200.22, 4101
200.2225, 4187
200.225, 4190
200.2275, 4187
200.23, 4181
200.2325, 4178
200.235, 4161
200.2375, 4106
200.24, 4164
200.2425, 4153
200.245, 4164
200.2475, 4138
200.25, 4145
200.2525, 4160
200.255, 4069
200.2575, 4181
200.26, 4175
200.2625, 4169
200.265, 4130
200.2675, 4156
200.27, 4151
200.2725, 4060
200.275, 4152
200.2775, 4130
200.28, 4132
200.2825, 4115
200.285, 4120
200.2875, 4106
200.29, 4029
200.2925, 4125
200.295, 4127
200.2975, 4115
200.3, 4117
200.3025, 4127
200.305, 4124
200.3075, 4059
200.31, 4158
200.3125, 4181
200.315, 4175
200.3175, 4146
200.32, 4171
200.3225, 4189
200.325, 4091
200.3275, 4191
200.33, 4215
200.3325, 4213
200.335, 4208
200.3375, 4224
200.34, 4232
200.3425, 4150
200.345, 4221
200.3475, 4189
200.35, 4200
200.3525, 4207
200.355, 4231
200.3575, 4198
200.36, 4132
200.3625, 4215
200.365, 4220
200.3675, 4223
200.37, 4203
200.3725, 4223
200.375, 4196
200.3775, 4097
200.38, 4203
200.3825, 4211
200.385, 4188
200.3875, 4148
200.39, 4184
200.3925, 4179
200.395, 4115
200.3975, 4204
200.4, 4203
200.4025, 4184
200.405, 4182
200.4075, 4207
200.41, 4207
200.4125, 4125
200.415, 4214
200.4175, 4212
200.42, 4203
200.4225, 4211
200.425, 4208
200.4275, 4218
200.43, 4124
200.4325, 4221
200.435, 4197
200.4375, 4189
200.44, 4193
200.4425, 4208
200.445, 4205
200.4475, 4133
200.45, 4210
200.4525, 4226
200.455, 4224
200.4575, 4187
200.46, 4201
200.4625, 4192
200.465, 4109
200.4675, 4193
200.47, 4198
200.4725, 4172
200.475, 4175
200.4775, 4190
200.48, 4175
200.4825, 4110
200.485, 4192
200.4875, 4195
200.49, 4206
200.4925, 4177
200.495, 4197
200.4975, 4170
200.5, 4099
200.5025, 4196
200.505, 4190
200.5075, 4195
200.51, 4183
200.5125, 4221
200.515, 4168
200.5175, 4086
200.52, 4177
200.5225, 4159
200.525, 4177
200.5275, 4186
200.53, 4217
200.5325, 4186
200.535, 4099
200.5375, 4192
200.54, 4203
200.5425, 4194
200.545, 4174
200.5475, 4187
200.55, 4178
200.5525, 4090
200.555, 4168
200.5575, 4180
200.56, 4188
200.5625, 4182
200.565, 4185
200.5675, 4204
200.57, 4128
200.5725, 4211
200.575, 4186
200.5775, 4174
200.58, 4163
200.5825, 4190
200.585, 4153
200.5875, 4092
200.59, 4174
200.5925, 4165
200.595, 4164
200.5975, 4141
200.6, 4165
200.6025, 4194
200.605, 4086
200.6075, 4208
200.61, 4202
200.6125, 4193
200.615, 4148
200.6175, 4111
200.62, 4130
200.6225, 4070
200.625, 4146
200.6275, 4165
200.63, 4169
200.6325, 4148
200.635, 4172
200.6375, 4169
200.64, 4077
200.6425, 4163
200.645, 4181
200.6475, 4186
200.65, 4163
200.6525, 4171
200.655, 4157
200.6575, 4062
200.66, 4163
200.6625, 4180
200.665, 4164
200.6675, 4134
200.67, 4135
200.6725, 4131
200.675, 4065
200.6775, 4160
200.68, 4169
200.6825, 4167
200.685, 4148
200.6875, 4155
200.69, 4142
200.6925, 4054
200.695, 4156
200.6975, 4148
200.7, 4138
200.7025, 4126
200.705, 4158
200.7075, 4159
200.71, 4091
200.7125, 4158
200.715, 4186
200.7175, 4168
200.72, 4166
200.7225, 4164
200.725, 4159
200.7275, 4088
200.73, 4150
200.7325, 4147
200.735, 4158
200.7375, 4127
200.74, 4139
200.7425, 4123
200.745, 4068
200.7475, 4169
200.75, 4119
200.7525, 4143
200.755, 4100
200.7575, 4118
200.76, 4132
200.7625, 4042
200.765, 4155
200.7675, 4144
200.77, 4159
200.7725, 4144
200.775, 4167
200.7775, 4162
200.78, 4056
200.7825, 4161
200.785, 4138
200.7875, 4145
200.79, 4151
200.7925, 4157
200.795, 4157
200.7975, 4073
200.8, 4169
200.8025, 4173
200.805, 4140
200.8075, 4134
200.81, 4160
200.8125, 4141
200.815, 4049
200.8175, 4165
200.82, 4185
200.8225, 4156
200.825, 4181
200.8275, 4189
200.83, 4172
200.8325, 4089
200.835, 4178
200.8375, 4170
200.84, 4167
200.8425, 4143
200.845, 4184
200.8475, 4196
200.85, 4101
200.8525, 4159
200.855, 4149
200.8575, 4179
200.86, 4172
200.8625, 4163
200.865, 4160
200.8675, 4057
200.87, 4152
200.8725, 4151
200.875, 4148
200.8775, 4146
200.88, 4148
200.8825, 4124
200.885, 4059
200.8875, 4165
200.89, 4151
200.8925, 4144
200.895, 4138
200.8975, 4162
200.9, 4148
200.9025, 4080
200.905, 4174
200.9075, 4163
200.91, 4167
200.9125, 4173
200.915, 4177
200.9175, 4194
200.92, 4079
200.9225, 4168
200.925, 4181
200.9275, 4175
200.93, 4152
200.9325, 4188
200.935, 4187
200.9375, 4098
200.94, 4186
200.9425, 4162
200.945, 4148
200.9475, 4162
200.95, 4147
200.9525, 4142
200.955, 4065
200.9575, 4162
200.96, 4155
200.9625, 4150
200.965, 4152
200.9675, 4145
200.97, 4148
200.9725, 4062
200.975, 4162
200.9775, 4161
200.98, 4142
200.9825, 4134
200.985, 4152
200.9875, 4144
200.99, 4052
200.9925, 4146
200.995, 4134
200.9975, 4159
201.0, 4153
201.0025, 4192
201.005, 4178
201.0075, 4089
201.01, 4151
201.0125, 4123
201.015, 4120
201.0175, 4119
201.02, 4170
201.0225, 4181
201.025, 4093
201.0275, 4175
201.03, 4175
201.0325, 4144
201.035, 4134
201.0375, 4185
201.04, 4192
201.0425, 4105
201.045, 4187
201.0475, 4171
201.05, 4166
201.0525, 4140
201.055, 4146
201.0575, 4131
201.06, 4025
201.0625, 4110
201.065, 4117
201.0675, 4126
201.07, 4147
201.0725, 4171
201.075, 4194
201.0775, 4106
201.08, 4182
201.0825, 4179
201.085, 4186
201.0875, 4097
201.09, 4205
201.0925, 4210
201.095, 4116
201.0975, 4218
201.1, 4209
201.1025, 4187
201.105, 4176
201.1075, 4200
201.11, 4199
201.1125, 4103
201.115, 4202
201.1175, 4192
201.12, 4200
201.1225, 4176
201.125, 4202
201.1275, 4188
201.13, 4105
201.1325, 4209
201.135, 4208
201.1375, 4214
201.14, 4208
201.1425, 4207
201.145, 4201
201.1475, 4116
201.15, 4204
201.1525, 4280
201.155, 4358
201.1575, 4399
201.16, 4408
201.1625, 4442
201.165, 4364
201.1675, 4421
201.17, 4240
201.1725, 4009
201.175, 3745
201.1775, 3420
201.18, 3052
201.1825, 2600
201.185, 2184
201.1875, 1811
201.19, 1742
201.1925, 1799
201.195, 2208
201.1975, 2977
201.2, 3733
201.2025, 4453
201.205, 4794
201.2075, 4852
201.21, 4757
201.2125, 4643
201.215, 4560
201.2175, 4431
201.22, 4507
201.2225, 4500
201.225, 4496
201.2275, 4465
201.23, 4498
201.2325, 4489
201.235, 4416
201.2375, 4500
201.24, 4500
201.2425, 4494
201.245, 4479
201.2475, 4468
201.25, 4489
201.2525, 4395
201.255, 4485
201.2575, 4464
201.26, 4444
201.2625, 4434
201.265, 4460
201.2675, 4418
201.27, 4331
201.2725, 4401
201.275, 4380
201.2775, 4374
201.28, 4374
201.2825, 4367
201.285, 4343
201.2875, 4253
201.29, 4329
201.2925, 4326
201.295, 4334
201.2975, 4306
201.3, 4315
201.3025, 4307
201.305, 4220
201.3075, 4294
201.31, 4266
201.3125, 4279
201.315, 4273
201.3175, 4280
201.32, 4264
201.3225, 4180
201.325, 4284
201.3275, 4279
201.33, 4272
201.3325, 4246
201.335, 4264
201.3375, 4257
201.34, 4162
201.3425, 4254
201.345, 4235
201.3475, 4246
201.35, 4220
201.3525, 4244
201.355, 4219
201.3575, 4145
201.36, 4222
201.3625, 4228
201.365, 4211
201.3675, 4205
201.37, 4216
201.3725, 4223
201.375, 4110
201.3775, 4202
201.38, 4208
201.3825, 4212
201.385, 4222
201.3875, 4256
201.39, 4248
201.3925, 4144
201.395, 4224
201.3975, 4235
201.4, 4226
201.4025, 4220
201.405, 4214
201.4075, 4217
201.41, 4166
201.4125, 4220
201.415, 4233
201.4175, 4232
201.42, 4219
201.4225, 4226
201.425, 4210
201.4275, 4131
201.43, 4226
201.4325, 4233
201.435, 4214
201.4375, 4220
201.44, 4221
201.4425, 4226
201.445, 4140
201.4475, 4198
201.45, 4204
201.4525, 4210
201.455, 4209
201.4575, 4234
201.46, 4199
201.4625, 4112
201.465, 4177
201.4675, 4175
201.47, 4163
201.4725, 4124
201.475, 4144
201.4775, 4117
201.48, 4040
201.4825, 4127
201.485, 4110
201.4875, 4096
201.49, 4079
201.4925, 4113
201.495, 4104
201.4975, 4037
201.5, 4119
201.5025, 4127
201.505, 4124
201.5075, 4127
201.51, 4157
201.5125, 4138
201.515, 4055
201.5175, 4144
201.52, 4169
201.5225, 4147
201.525, 4146
201.5275, 4166
201.53, 4177
201.5325, 4110
201.535, 4159
201.5375, 4152
201.54, 4153
201.5425, 4154
201.545, 4177
201.5475, 4174
201.55, 4104
201.5525, 4159
201.555, 4159
201.5575, 4188
201.56, 4177
201.5625, 4186
201.565, 4173
201.5675, 4082
201.57, 4188
201.5725, 4219
201.575, 4196
201.5775, 4192
201.58, 4209
201.5825, 4209
201.585, 4120
201.5875, 4180
201.59, 4168
201.5925, 4166
201.595, 4146
201.5975, 4159
201.6, 4167
201.6025, 4071
201.605, 4163
201.6075, 4157
201.61, 4164
201.6125, 4163
201.615, 4171
201.6175, 4177
201.62, 4119
201.6225, 4158
201.625, 4147
201.6275, 4134
201.63, 4078
201.6325, 4183
201.635, 4200
201.6375, 4098
201.64, 4181
201.6425, 4168
201.645, 4159
201.6475, 4127
201.65, 4138
201.6525, 4161
201.655, 4069
201.6575, 4156
201.66, 4172
201.6625, 4155
201.665, 4157
201.6675, 4181
201.67, 4173
201.6725, 4084
201.675, 4164
201.6775, 4141
201.68, 4149
201.6825, 4143
201.685, 4150
201.6875, 4170
201.69, 4104
201.6925, 4193
201.695, 4191
201.6975, 4190
201.7, 4150
201.7025, 4170
201.705, 4177
201.7075, 4118
201.71, 4186
201.7125, 4163
201.715, 4178
201.7175, 4175
201.72, 4193
201.7225, 4187
201.725, 4113
201.7275, 4184
201.73, 4194
201.7325, 4182
201.735, 4163
201.7375, 4181
201.74, 4190
201.7425, 4105
201.745, 4203
201.7475, 4195
201.75, 4191
201.7525, 4185
201.755, 4201
201.7575, 4202
201.76, 4119
201.7625, 4192
201.765, 4190
201.7675, 4191
201.77, 4181
201.7725, 4208
201.775, 4182
201.7775, 4093
201.78, 4202
201.7825, 4187
201.785, 4183
201.7875, 4175
201.79, 4200
201.7925, 4162
201.795, 4090
201.7975, 4178
201.8, 4202
201.8025, 4173
201.805, 4175
201.8075, 4189
201.81, 4184
201.8125, 4086
201.815, 4155
201.8175, 4178
201.82, 4171
201.8225, 4173
201.825, 4176
201.8275, 4200
201.83, 4093
201.8325, 4160
201.835, 4172
201.8375, 4204
201.84, 4173
201.8425, 4181
201.845, 4164
201.8475, 4080
201.85, 4167
201.8525, 4182
201.855, 4166
201.8575, 4175
201.86, 4196
201.8625, 4189
201.865, 4102
201.8675, 4215
201.87, 4187
201.8725, 4183
201.875, 4178
201.8775, 4210
201.88, 4195
201.8825, 4085
201.885, 4149
201.8875, 4139
201.89, 4162
201.8925, 4172
201.895, 4185
201.8975, 4172
201.9, 4088
201.9025, 4175
201.905, 4169
201.9075, 4185
201.91, 4185
201.9125, 4210
201.915, 4171
201.9175, 4048
201.92, 4154
201.9225, 4159
201.925, 4175
201.9275, 4164
201.93, 4186
201.9325, 4185
201.935, 4118
201.9375, 4181
201.94, 4189
201.9425, 4181
201.945, 4160
201.9475, 4159
201.95, 4136
201.9525, 4058
201.955, 4178
201.9575, 4166
201.96, 4159
201.9625, 4148
201.965, 4166
201.9675, 4172
201.97, 4091
201.9725, 4167
201.975, 4190
201.9775, 4195
201.98, 4152
201.9825, 4170
201.985, 4148
201.9875, 4079
201.99, 4190
201.9925, 4177
201.995, 4161
201.9975, 4168
202.0, 4170
202.0025, 4164
202.005, 4094
202.0075, 4175
202.01, 4177
202.0125, 4154
202.015, 4147
202.0175, 4160
202.02, 4165
202.0225, 4083
202.025, 4146
202.0275, 4139
202.03, 4172
202.0325, 4137
202.035, 4177
202.0375, 4181
202.04, 4075
202.0425, 4144
202.045, 4124
202.0475, 4149
202.05, 4135
202.0525, 4151
202.055, 4151
202.0575, 4122
202.06, 4160
202.0625, 4132
202.065, 4122
202.0675, 4126
202.07, 4166
202.0725, 4142
202.075, 4078
202.0775, 4173
202.08, 4172
202.0825, 4187
202.085, 4180
202.0875, 4191
202.09, 4171
202.0925, 4079
202.095, 4170
202.0975, 4181
202.1, 4173
202.1025, 4167
202.105, 4186
202.1075, 4195
202.11, 4090
202.1125, 4191
202.115, 4197
202.1175, 4175
202.12, 4177
202.1225, 4211
202.125, 4203
202.1275, 4115
202.13, 4207
202.1325, 4206
202.135, 4197
202.1375, 4128
202.14, 4213
202.1425, 4190
202.145, 4107
202.1475, 4201
202.15, 4196
202.1525, 4167
202.155, 4133
202.1575, 4169
202.16, 4181
202.1625, 4116
202.165, 4180
202.1675, 4179
202.17, 4161
202.1725, 4159
202.175, 4151
202.1775, 4159
202.18, 4056
202.1825, 4140
202.185, 4125
202.1875, 4119
202.19, 4099
202.1925, 4144
202.195, 4140
202.1975, 4068
202.2, 4161
202.2025, 4147
202.205, 4167
202.2075, 4160
202.21, 4203
202.2125, 4194
202.215, 4134
202.2175, 4225
202.22, 4212
202.2225, 4219
202.225, 4143
202.2275, 4221
202.23, 4215
202.2325, 4141
202.235, 4204
202.2375, 4179
202.24, 4178
202.2425, 4180
202.245, 4188
202.2475, 4189
202.25, 4096
202.2525, 4200
202.255, 4203
202.2575, 4185
202.26, 4181
202.2625, 4210
202.265, 4192
202.2675, 4098
202.27, 4200
202.2725, 4200
202.275, 4221
202.2775, 4195
202.28, 4262
202.2825, 4312
202.285, 4307
202.2875, 4391
202.29, 4437
202.2925, 4453
202.295, 4376
202.2975, 4226
202.3, 3993
202.3025, 3706
202.305, 3505
202.3075, 3262
202.31, 2877
202.3125, 2337
202.315, 2110
202.3175, 1939
202.32, 1882
202.3225, 2216
202.325, 2737
202.3275, 3599
202.33, 4462
202.3325, 4913
202.335, 5050
202.3375, 4964
202.34, 4942
202.3425, 4790
202.345, 4664
202.3475, 4592
202.35, 4559
202.3525, 4517
202.355, 4432
202.3575, 4512
202.36, 4507
202.3625, 4511
202.365, 4485
202.3675, 4506
202.37, 4492
202.3725, 4398
202.375, 4493
202.3775, 4447
202.38, 4417
202.3825, 4388
202.385, 4412
202.3875, 4425
202.39, 4334
202.3925, 4395
202.395, 4390
202.3975, 4367
202.4, 4348
202.4025, 4330
202.405, 4314
202.4075, 4225
202.41, 4323
202.4125, 4302
202.415, 4264
202.4175, 4262
202.42, 4286
202.4225, 4284
202.425, 4200
202.4275, 4275
202.43, 4279
202.4325, 4278
202.435, 4236
202.4375, 4266
202.44, 4262
202.4425, 4174
202.445, 4257
202.4475, 4238
202.45, 4232
202.4525, 4232
202.455, 4256
202.4575, 4229
202.46, 4161
202.4625, 4225
202.465, 4229
202.4675, 4196
202.47, 4182
202.4725, 4205
202.475, 4214
202.4775, 4183
202.48, 4213
202.4825, 4197
202.485, 4164
202.4875, 4123
202.49, 4206
202.4925, 4204
202.495, 4105
202.4975, 4209
202.5, 4216
202.5025, 4184
202.505, 4169
202.5075, 4185
202.51, 4173
202.5125, 4066
202.515, 4145
202.5175, 4168
202.52, 4154
202.5225, 4184
202.525, 4203
202.5275, 4204
202.53, 4134
202.5325, 4207
202.535, 4211
202.5375, 4158
202.54, 4115
202.5425, 4153
202.545, 4157
202.5475, 4077
202.55, 4155
202.5525, 4151
202.555, 4131
202.5575, 4130
202.56, 4151
202.5625, 4161
202.565, 4086
202.5675, 4184
202.57, 4142
202.5725, 4147
202.575, 4136
202.5775, 4169
202.58, 4175
202.5825, 4094
202.585, 4198
202.5875, 4165
202.59, 4174
202.5925, 4156
202.595, 4177
202.5975, 4144
202.6, 4070
202.6025, 4156
202.605, 4160
202.6075, 4158
202.61, 4159
202.6125, 4164
202.615, 4160
202.6175, 4068
202.62, 4177
202.6225, 4177
202.625, 4181
202.6275, 4189
202.63, 4205
202.6325, 4197
202.635, 4096
202.6375, 4194
202.64, 4207
202.6425, 4228
202.645, 4204
202.6475, 4228
202.65, 4230
202.6525, 4145
202.655, 4252
202.6575, 4260
202.66, 4250
202.6625, 4216
202.665, 4252
202.6675, 4229
202.67, 4157
202.6725, 4250
202.675, 4248
202.6775, 4232
202.68, 4245
202.6825, 4281
202.685, 4251
202.6875, 4201
202.69, 4257
202.6925, 4270
202.695, 4267
202.6975, 4235
202.7, 4244
202.7025, 4241
202.705, 4153
202.7075, 4246
202.71, 4255
202.7125, 4243
202.715, 4205
202.7175, 4250
202.72, 4252
202.7225, 4146
202.725, 4240
202.7275, 4206
202.73, 4203
202.7325, 4205
202.735, 4208
202.7375, 4205
202.74, 4138
202.7425, 4229
202.745, 4209
202.7475, 4229
202.75, 4225
202.7525, 4215
202.755, 4197
202.7575, 4125
202.76, 4191
202.7625, 4178
202.765, 4190
202.7675, 4178
202.77, 4201
202.7725, 4177
202.775, 4119
202.7775, 4207
202.78, 4214
202.7825, 4196
202.785, 4171
202.7875, 4171
202.79, 4141
202.7925, 4051
202.795, 4164
202.7975, 4162
202.8, 4181
202.8025, 4156
202.805, 4180
202.8075, 4181
202.81, 4107
202.8125, 4163
202.815, 4144
202.8175, 4149
202.82, 4154
202.8225, 4174
202.825, 4161
202.8275, 4090
202.83, 4173
202.8325, 4172
202.835, 4176
202.8375, 4164
202.84, 4205
202.8425, 4198
202.845, 4113
202.8475, 4207
202.85, 4186
202.8525, 4167
202.855, 4177
202.8575, 4181
202.86, 4173
202.8625, 4097
202.865, 4179
202.8675, 4193
202.87, 4159
202.8725, 4168
202.875, 4180
202.8775, 4170
202.88, 4088
202.8825, 4179
202.885, 4187
202.8875, 4174
202.89, 4146
202.8925, 4166
202.895, 4153
202.8975, 4074
202.9, 4167
202.9025, 4161
202.905, 4140
202.9075, 4137
202.91, 4169
202.9125, 4170
202.915, 4077
202.9175, 4151
202.92, 4150
202.9225, 4153
202.925, 4166
202.9275, 4163
202.93, 4156
202.9325, 4068
202.935, 4186
202.9375, 4173
202.94, 4157
202.9425, 4159
202.945, 4181
202.9475, 4169
202.95, 4090
202.9525, 4187
202.955, 4171
202.9575, 4178
202.96, 4164
202.9625, 4172
202.965, 4155
202.9675, 4085
202.97, 4167
202.9725, 4172
202.975, 4165
202.9775, 4157
202.98, 4162
202.9825, 4152
202.985, 4095
202.9875, 4152
202.99, 4166
202.9925, 4170
202.995, 4142
202.9975, 4180
203.0, 4182
203.0025, 4091
203.005, 4173
203.0075, 4153
203.01, 4145
203.0125, 4128
203.015, 4149
203.0175, 4122
203.02, 4072
203.0225, 4156
203.025, 4157
203.0275, 4148
203.03, 4127
203.0325, 4153
203.035, 4119
203.0375, 4065
203.04, 4147
203.0425, 4152
203.045, 4169
203.0475, 4152
203.05, 4161
203.0525, 4147
203.055, 4055
203.0575, 4172
203.06, 4166
203.0625, 4172
203.065, 4134
203.0675, 4159
203.07, 4159
203.0725, 4083
203.075, 4156
203.0775, 4148
203.08, 4134
203.0825, 4149
203.085, 4143
203.0875, 4118
203.09, 4069
203.0925, 4146
203.095, 4137
203.0975, 4155
203.1, 4144
203.1025, 4152
203.105, 4163
203.1075, 4059
203.11, 4158
203.1125, 4157
203.115, 4154
203.1175, 4146
203.12, 4185
203.1225, 4184
203.125, 4116
203.1275, 4183
203.13, 4176
203.1325, 4165
203.135, 4158
203.1375, 4145
203.14, 4143
203.1425, 4088
203.145, 4175
203.1475, 4185
203.15, 4161
203.1525, 4129
203.155, 4152
203.1575, 4125
203.16, 4075
203.1625, 4176
203.165, 4160
203.1675, 4148
203.17, 4109
203.1725, 4139
203.175, 4145
203.1775, 4094
203.18, 4177
203.1825, 4170
203.185, 4150
203.1875, 4150
203.19, 4161
203.1925, 4167
203.195, 4090
203.1975, 4178
203.2, 4179
203.2025, 4170
203.205, 4154
203.2075, 4166
203.21, 4157
203.2125, 4074
203.215, 4165
203.2175, 4168
203.22, 4164
203.2225, 4161
203.225, 4179
203.2275, 4156
203.23, 4060
203.2325, 4147
203.235, 4148
203.2375, 4129
203.24, 4112
203.2425, 4121
203.245, 4143
203.2475, 4079
203.25, 4160
203.2525, 4160
203.255, 4153
203.2575, 4146
203.26, 4173
203.2625, 4188
203.265, 4138
203.2675, 4204
203.27, 4211
203.2725, 4205
203.275, 4178
203.2775, 4174
203.28, 4178
203.2825, 4103
203.285, 4183
203.2875, 4183
203.29, 4194
203.2925, 4162
203.295, 4195
203.2975, 4161
203.3, 4068
203.3025, 4155
203.305, 4189
203.3075, 4182
203.31, 4136
203.3125, 4171
203.315, 4189
203.3175, 4099
203.32, 4169
203.3225, 4198
203.325, 4199
203.3275, 4208
203.33, 4248
203.3325, 4338
203.335, 4333
203.3375, 4419
203.34, 4439
203.3425, 4491
203.345, 4411
203.3475, 4275
203.35, 4090
203.3525, 3772
203.355, 3556
203.3575, 3262
203.36, 2835
203.3625, 2324
203.365, 1932
203.3675, 1763
203.37, 1734
203.3725, 2007
203.375, 2658
203.3775, 3556
203.38, 4369
203.3825, 4847
203.385, 4961
203.3875, 4845
203.39, 4803
203.3925, 4655
203.395, 4569
203.3975, 4550
203.4, 4546
203.4025, 4517
203.405, 4431
203.4075, 4511
203.41, 4527
203.4125, 4526
203.415, 4493
203.4175, 4507
203.42, 4492
203.4225, 4399
203.425, 4486
203.4275, 4457
203.43, 4452
203.4325, 4361
203.435, 4439
203.4375, 4419
203.44, 4333
203.4425, 4404
203.445, 4406
203.4475, 4392
203.45, 4364
203.4525, 4382
203.455, 4363
203.4575, 4309
203.46, 4364
203.4625, 4364
203.465, 4347
203.4675, 4331
203.47, 4348
203.4725, 4325
203.475, 4244
203.4775, 4322
203.48, 4304
203.4825, 4309
203.485, 4275
203.4875, 4292
203.49, 4282
203.4925, 4203
203.495, 4270
203.4975, 4247
203.5, 4236
203.5025, 4251
203.505, 4246
203.5075, 4237
203.51, 4150
203.5125, 4251
203.515, 4264
203.5175, 4246
203.52, 4240
203.5225, 4253
203.525, 4257
203.5275, 4180
203.53, 4257
203.5325, 4257
203.535, 4249
203.5375, 4233
203.54, 4246
203.5425, 4235
203.545, 4150
203.5475, 4231
203.55, 4232
203.5525, 4184
203.555, 4166
203.5575, 4178
203.56, 4167
203.5625, 4135
203.565, 4200
203.5675, 4182
203.57, 4182
203.5725, 4191
203.575, 4222
203.5775, 4214
203.58, 4145
203.5825, 4238
203.585, 4228
203.5875, 4217
203.59, 4212
203.5925, 4246
203.595, 4240
203.5975, 4147
203.6, 4232
203.6025, 4208
203.605, 4208
203.6075, 4201
203.61, 4224
203.6125, 4227
203.615, 4144
203.6175, 4219
203.62, 4218
203.6225, 4221
203.625, 4196
203.6275, 4207
203.63, 4206
203.6325, 4118
203.635, 4202
203.6375, 4192
203.64, 4187
203.6425, 4180
203.645, 4172
203.6475, 4182
203.65, 4078
203.6525, 4144
203.655, 4154
203.6575, 4127
203.66, 4092
203.6625, 4110
203.665, 4096
203.6675, 4026
203.67, 4080
203.6725, 4092
203.675, 4101
203.6775, 4111
203.68, 4119
203.6825, 4101
203.685, 4049
203.6875, 4141
203.69, 4135
203.6925, 4149
203.695, 4145
203.6975, 4169
203.7, 4162
203.7025, 4076
203.705, 4188
203.7075, 4167
203.71, 4167
203.7125, 4168
203.715, 4208
203.7175, 4206
203.72, 4114
203.7225, 4213
203.725, 4223
203.7275, 4231
203.73, 4223
203.7325, 4212
203.735, 4215
203.7375, 4136
203.74, 4220
203.7425, 4208
203.745, 4203
203.7475, 4199
203.75, 4225
203.7525, 4220
203.755, 4129
203.7575, 4225
203.76, 4201
203.7625, 4205
203.765, 4194
203.7675, 4220
203.77, 4190
203.7725, 4103
203.775, 4200
203.7775, 4210
203.78, 4211
203.7825, 4187
203.785, 4207
203.7875, 4196
203.79, 4120
203.7925, 4208
203.795, 4197
203.7975, 4175
203.8, 4147
203.8025, 4148
203.805, 4132
203.8075, 4046
203.81, 4127
203.8125, 4143
203.815, 4147
203.8175, 4141
203.82, 4165
203.8225, 4153
203.825, 4070
203.8275, 4172
203.83, 4163
203.8325, 4140
203.835, 4122
203.8375, 4148
203.84, 4157
203.8425, 4076
203.845, 4176
203.8475, 4175
203.85, 4181
203.8525, 4172
203.855, 4164
203.8575, 4168
203.86, 4105
203.8625, 4177
203.865, 4178
203.8675, 4161
203.87, 4153
203.8725, 4176
203.875, 4153
203.8775, 4093
203.88, 4166
203.8825, 4172
203.885, 4162
203.8875, 4138
203.89, 4169
203.8925, 4152
203.895, 4095
203.8975, 4188
203.9, 4187
203.9025, 4169
203.905, 4170
203.9075, 4156
203.91, 4150
203.9125, 4078
203.915, 4168
203.9175, 4143
203.92, 4160
203.9225, 4159
203.925, 4171
203.9275, 4157
203.93, 4104
203.9325, 4159
203.935, 4139
203.9375, 4123
203.94, 4130
203.9425, 4145
203.945, 4150
203.9475, 4092
203.95, 4173
203.9525, 4168
203.955, 4148
203.9575, 4145
203.96, 4155
203.9625, 4182
203.965, 4107
203.9675, 4180
203.97, 4171
203.9725, 4159
203.975, 4141
203.9775, 4161
203.98, 4151
203.9825, 4073
203.985, 4156
203.9875, 4146
203.99, 4135
203.9925, 4139
203.995, 4152
203.9975, 4144
204.0, 4074
204.0025, 4161
204.005, 4150
204.0075, 4148
204.01, 4126
204.0125, 4159
204.015, 4160
204.0175, 4098
204.02, 4190
204.0225, 4182
204.025, 4169
204.0275, 4164
204.03, 4175
204.0325, 4177
204.035, 4093
204.0375, 4182
204.04, 4182
204.0425, 4179
204.045, 4148
204.0475, 4155
204.05, 4166
204.0525, 4072
204.055, 4159
204.0575, 4158
204.06, 4148
204.0625, 4146
204.065, 4193
204.0675, 4165
204.07, 4081
204.0725, 4158
204.075, 4141
204.0775, 4140
204.08, 4139
204.0825, 4156
204.085, 4152
204.0875, 4071
204.09, 4152
204.0925, 4145
204.095, 4149
204.0975, 4151
204.1, 4165
204.1025, 4163
204.105, 4072
204.1075, 4171
204.11, 4161
204.1125, 4135
204.115, 4132
204.1175, 4129
204.12, 4167
204.1225, 4081
204.125, 4162
204.1275, 4164
204.13, 4175
204.1325, 4149
204.135, 4182
204.1375, 4179
204.14, 4117
204.1425, 4184
204.145, 4203
204.1475, 4158
204.15, 4152
204.1525, 4162
204.155, 4165
204.1575, 4083
204.16, 4171
204.1625, 4158
204.165, 4162
204.1675, 4146
204.17, 4164
204.1725, 4154
204.175, 4115
204.1775, 4175
204.18, 4162
204.1825, 4132
204.185, 4103
204.1875, 4146
204.19, 4159
204.1925, 4081
204.195, 4162
204.1975, 4158
204.2, 4139
204.2025, 4132
204.205, 4176
204.2075, 4161
204.21, 4091
204.2125, 4181
204.215, 4160
204.2175, 4158
204.22, 4155
204.2225, 4153
204.225, 4159
204.2275, 4068
204.23, 4168
204.2325, 4177
204.235, 4151
204.2375, 4171
204.24, 4183
204.2425, 4156
204.245, 4083
204.2475, 4169
204.25, 4171
204.2525, 4179
204.255, 4167
204.2575, 4206
204.26, 4190
204.2625, 4130
204.265, 4209
204.2675, 4170
204.27, 4154
204.2725, 4146
204.275, 4170
204.2775, 4149
204.28, 4075
204.2825, 4210
204.285, 4183
204.2875, 4168
204.29, 4163
204.2925, 4176
204.295, 4156
204.2975, 4062
204.3, 4172
204.3025, 4175
204.305, 4179
204.3075, 4152
204.31, 4152
204.3125, 4150
204.315, 4066
204.3175, 4161
204.32, 4136
204.3225, 4158
204.325, 4174
204.3275, 4202
204.33, 4184
204.3325, 4121
204.335, 4200
204.3375, 4164
204.34, 4155
204.3425, 4119
204.345, 4155
204.3475, 4156
204.35, 4027
204.3525, 4096
204.355, 4139
204.3575, 4164
204.36, 4152
204.3625, 4182
204.365, 4160
204.3675, 4080
204.37, 4167
204.3725, 4162
204.375, 4170
204.3775, 4152
204.38, 4190
204.3825, 4201
204.385, 4124
204.3875, 4206
204.39, 4202
204.3925, 4175
204.395, 4125
204.3975, 4163
204.4, 4170
204.4025, 4099
204.405, 4168
204.4075, 4157
204.41, 4170
204.4125, 4146
204.415, 4186
204.4175, 4173
204.42, 4092
204.4225, 4205
204.425, 4175
204.4275, 4173
204.43, 4119
204.4325, 4136
204.435, 4153
204.4375, 4067
204.44, 4207
204.4425, 4318
204.445, 4370
204.4475, 4395
204.45, 4418
204.4525, 4426
204.455, 4312
204.4575, 4270
204.46, 4076
204.4625, 3853
204.465, 3531
204.4675, 3269
204.47, 2892
204.4725, 2347
204.475, 2023
204.4775, 1836
204.48, 1896
204.4825, 2120
204.485, 2721
204.4875, 3575
204.49, 4244
204.4925, 4746
204.495, 4910
204.4975, 4901
204.5, 4752
204.5025, 4676
204.505, 4568
204.5075, 4473
204.51, 4555
204.5125, 4516
204.515, 4481
204.5175, 4458
204.52, 4509
204.5225, 4507
204.525, 4441
204.5275, 4519
204.53, 4511
204.5325, 4488
204.535, 4456
204.5375, 4474
204.54, 4477
204.5425, 4371
204.545, 4438
204.5475, 4424
204.55, 4379
204.5525, 4367
204.555, 4386
204.5575, 4377
204.56, 4308
204.5625, 4355
204.565, 4354
204.5675, 4345
204.57, 4326
204.5725, 4325
204.575, 4325
204.5775, 4259
204.58, 4337
204.5825, 4332
204.585, 4301
204.5875, 4278
204.59, 4299
204.5925, 4278
204.595, 4193
204.5975, 4277
204.6, 4291
204.6025, 4297
204.605, 4266
204.6075, 4293
204.61, 4267
204.6125, 4174
204.615, 4274
204.6175, 4271
204.62, 4248
204.6225, 4223
204.625, 4243
204.6275, 4243
204.63, 4153
204.6325, 4233
204.635, 4247
204.6375, 4217
204.64, 4194
204.6425, 4210
204.645, 4216
204.6475, 4174
204.65, 4222
204.6525, 4202
204.655, 4200
204.6575, 4196
204.66, 4224
204.6625, 4223
204.665, 4146
204.6675, 4238
204.67, 4203
204.6725, 4181
204.675, 4170
204.6775, 4189
204.68, 4184
204.6825, 4115
204.685, 4212
204.6875, 4184
204.69, 4171
204.6925, 4151
204.695, 4187
204.6975, 4189
204.7, 4117
204.7025, 4206
204.705, 4171
204.7075, 4185
204.71, 4179
204.7125, 4185
204.715, 4148
204.7175, 4102
204.72, 4189
204.7225, 4179
204.725, 4176
204.7275, 4152
204.73, 4143
204.7325, 4138
204.735, 4086
204.7375, 4172
204.74, 4172
204.7425, 4177
204.745, 4177
204.7475, 4181
204.75, 4145
204.7525, 4075
204.755, 4143
204.7575, 4146
204.76, 4142
204.7625, 4146
204.765, 4138
204.7675, 4120
204.77, 4058
204.7725, 4137
204.775, 4139
204.7775, 4143
204.78, 4136
204.7825, 4146
204.785, 4125
204.7875, 4044
204.79, 4104
204.7925, 4105
204.795, 4104
204.7975, 4124
204.8, 4164
204.8025, 4167
204.805, 4084
204.8075, 4193
204.81, 4167
204.8125, 4191
204.815, 4178
204.8175, 4199
204.82, 4214
204.8225, 4128
204.825, 4226
204.8275, 4236
204.83, 4237
204.8325, 4227
204.835, 4254
204.8375, 4218
204.84, 4135
204.8425, 4220
204.845, 4232
204.8475, 4253
204.85, 4231
204.8525, 4208
204.855, 4224
204.8575, 4164
204.86, 4240
204.8625, 4233
204.865, 4232
204.8675, 4163
204.87, 4223
204.8725, 4223
204.875, 4115
204.8775, 4205
204.88, 4231
204.8825, 4212
204.885, 4221
204.8875, 4221
204.89, 4226
204.8925, 4151
204.895, 4229
204.8975, 4188
204.9, 4198
204.9025, 4165
204.905, 4194
204.9075, 4214
204.91, 4134
204.9125, 4191
204.915, 4176
204.9175, 4191
204.92, 4178
204.9225, 4188
204.925, 4179
204.9275, 4120
204.93, 4199
204.9325, 4184
204.935, 4191
204.9375, 4178
204.94, 4192
204.9425, 4185
204.945, 4116
204.9475, 4155
204.95, 4179
204.9525, 4178
204.955, 4110
204.9575, 4205
204.96, 4195
204.9625, 4092
204.965, 4163
204.9675, 4140
204.97, 4179
204.9725, 4167
204.975, 4195
204.9775, 4196
204.98, 4123
204.9825, 4190
204.985, 4180
204.9875, 4176
204.99, 4148
204.9925, 4148
204.995, 4150
204.9975, 4085
205.0, 4174
205.0025, 4152
205.005, 4160
205.0075, 4168
205.01, 4169
205.0125, 4183
205.015, 4105
205.0175, 4190
205.02, 4183
205.0225, 4177
205.025, 4187
205.0275, 4199
205.03, 4180
205.0325, 4110
205.035, 4198
205.0375, 4192
205.04, 4178
205.0425, 4172
205.045, 4179
205.0475, 4169
205.05, 4076
205.0525, 4163
205.055, 4198
205.0575, 4182
205.06, 4150
205.0625, 4178
205.065, 4176
205.0675, 4097
205.07, 4161
205.0725, 4160
205.075, 4159
205.0775, 4175
205.08, 4183
205.0825, 4158
205.085, 4088
205.0875, 4183
205.09, 4179
205.0925, 4165
205.095, 4143
205.0975, 4168
205.1, 4160
205.1025, 4066
205.105, 4167
205.1075, 4176
205.11, 4177
205.1125, 4152
205.115, 4178
205.1175, 4185
205.12, 4094
205.1225, 4186
205.125, 4208
205.1275, 4221
205.13, 4186
205.1325, 4181
205.135, 4185
205.1375, 4115
205.14, 4182
205.1425, 4190
205.145, 4171
205.1475, 4153
205.15, 4205
205.1525, 4213
205.155, 4118
205.1575, 4195
205.16, 4204
205.1625, 4216
205.165, 4215
205.1675, 4218
205.17, 4212
205.1725, 4123
205.175, 4213
205.1775, 4205
205.18, 4204
205.1825, 4179
205.185, 4191
205.1875, 4211
205.19, 4105
205.1925, 4176
205.195, 4157
205.1975, 4152
205.2, 4159
205.2025, 4178
205.205, 4155
205.2075, 4123
205.21, 4153
205.2125, 4174
205.215, 4159
205.2175, 4096
205.22, 4196
205.2225, 4198
205.225, 4124
205.2275, 4221
205.23, 4204
205.2325, 4188
205.235, 4157
205.2375, 4181
205.24, 4181
205.2425, 4114
205.245, 4189
205.2475, 4164
205.25, 4174
205.2525, 4188
205.255, 4187
205.2575, 4190
205.26, 4134
205.2625, 4208
205.265, 4154
205.2675, 4164
205.27, 4138
205.2725, 4156
205.275, 4157
205.2775, 4089
205.28, 4179
205.2825, 4170
205.285, 4169
205.2875, 4154
205.29, 4175
205.2925, 4175
205.295, 4082
205.2975, 4184
205.3, 4163
205.3025, 4164
205.305, 4139
205.3075, 4168
205.31, 4188
205.3125, 4126
205.315, 4193
205.3175, 4150
205.32, 4159
205.3225, 4136
205.325, 4162
205.3275, 4152
205.33, 4063
205.3325, 4154
205.335, 4112
205.3375, 4126
205.34, 4120
205.3425, 4132
205.345, 4130
205.3475, 4057
205.35, 4099
205.3525, 4096
205.355, 4122
205.3575, 4124
205.36, 4141
205.3625, 4122
205.365, 4061
205.3675, 4162
205.37, 4169
205.3725, 4180
205.375, 4165
205.3775, 4198
205.38, 4199
205.3825, 4105
205.385, 4193
205.3875, 4175
205.39, 4154
205.3925, 4166
205.395, 4187
205.3975, 4180
205.4, 4115
205.4025, 4173
205.405, 4190
205.4075, 4167
205.41, 4161
205.4125, 4174
205.415, 4168
205.4175, 4115
205.42, 4183
205.4225, 4177
205.425, 4190
205.4275, 4139
205.43, 4152
205.4325, 4148
205.435, 4126
205.4375, 4303
205.44, 4362
205.4425, 4380
205.445, 4425
205.4475, 4445
205.45, 4423
205.4525, 4188
205.455, 4075
205.4575, 3827
205.46, 3537
205.4625, 3267
205.465, 2950
205.4675, 2542
205.47, 2056
205.4725, 1913
205.475, 1845
205.4775, 2065
205.48, 2489
205.4825, 3321
205.485, 4287
205.4875, 4777
205.49, 5038
205.4925, 5022
205.495, 4928
205.4975, 4755
205.5, 4696
205.5025, 4603
205.505, 4483
205.5075, 4506
205.51, 4473
205.5125, 4467
205.515, 4467
205.5175, 4483
205.52, 4480
205.5225, 4389
205.525, 4481
205.5275, 4467
205.53, 4456
205.5325, 4427
205.535, 4450
205.5375, 4438
205.54, 4340
205.5425, 4397
205.545, 4397
205.5475, 4401
205.55, 4376
205.5525, 4366
205.555, 4349
205.5575, 4285
205.56, 4380
205.5625, 4355
205.565, 4335
205.5675, 4306
205.57, 4342
205.5725, 4330
205.575, 4243
205.5775, 4297
205.58, 4308
205.5825, 4296
205.585, 4190
205.5875, 4283
205.59, 4295
205.5925, 4201
205.595, 4285
205.5975, 4275
205.6, 4238
205.6025, 4236
205.605, 4236
205.6075, 4239
205.61, 4143
205.6125, 4239
205.615, 4232
205.6175, 4204
205.62, 4192
205.6225, 4219
205.625, 4207
205.6275, 4134
205.63, 4207
205.6325, 4192
205.635, 4190
205.6375, 4184
205.64, 4201
205.6425, 4182
205.645, 4101
205.6475, 4198
205.65, 4172
205.6525, 4178
205.655, 4165
205.6575, 4158
205.66, 4167
205.6625, 4093
205.665, 4171
205.6675, 4179
205.67, 4152
205.6725, 4146
205.675, 4162
205.6775, 4157
205.68, 4081
205.6825, 4159
205.685, 4164
205.6875, 4132
205.69, 4125
205.6925, 4149
205.695, 4140
205.6975, 4060
205.7, 4159
205.7025, 4164
205.705, 4178
205.7075, 4127
205.71, 4149
205.7125, 4156
205.715, 4079
205.7175, 4139
205.72, 4143
205.7225, 4147
205.725, 4097
205.7275, 4113
205.73, 4124
205.7325, 4046
205.735, 4153
205.7375, 4153
205.74, 4163
205.7425, 4146
205.745, 4129
205.7475, 4131
205.75, 4060
205.7525, 4151
205.755, 4138
205.7575, 4115
205.76, 4116
205.7625, 4140
205.765, 4142
205.7675, 4074
205.77, 4155
205.7725, 4164
205.775, 4189
205.7775, 4165
205.78, 4194
205.7825, 4198
205.785, 4127
205.7875, 4208
205.79, 4192
205.7925, 4177
205.795, 4184
205.7975, 4218
205.8, 4227
205.8025, 4154
205.805, 4260
205.8075, 4261
205.81, 4253
205.8125, 4251
205.815, 4286
205.8175, 4255
205.82, 4186
205.8225, 4274
205.825, 4250
205.8275, 4247
205.83, 4228
205.8325, 4249
205.835, 4251
205.8375, 4159
205.84, 4255
205.8425, 4239
205.845, 4222
205.8475, 4206
205.85, 4252
205.8525, 4238
205.855, 4158
205.8575, 4241
205.86, 4255
205.8625, 4247
205.865, 4223
205.8675, 4257
205.87, 4225
205.8725, 4154
205.875, 4219
205.8775, 4219
205.88, 4223
205.8825, 4211
205.885, 4194
205.8875, 4196
205.89, 4126
205.8925, 4203
205.895, 4195
205.8975, 4187
205.9, 4170
205.9025, 4190
205.905, 4183
205.9075, 4108
205.91, 4205
205.9125, 4199
205.915, 4201
205.9175, 4212
205.92, 4228
205.9225, 4213
205.925, 4116
205.9275, 4194
205.93, 4202
205.9325, 4187
205.935, 4189
205.9375, 4192
205.94, 4213
205.9425, 4134
205.945, 4233
205.9475, 4214
205.95, 4206
205.9525, 4196
205.955, 4234
205.9575, 4190
205.96, 4130
205.9625, 4192
205.965, 4177
205.9675, 4182
205.97, 4175
205.9725, 4198
205.975, 4209
205.9775, 4136
205.98, 4214
205.9825, 4192
205.985, 4170
205.9875, 4160
205.99, 4200
205.9925, 4200
205.995, 4101
205.9975, 4197
206.0, 4206
206.0025, 4204
206.005, 4181
206.0075, 4199
206.01, 4200
206.0125, 4098
206.015, 4193
206.0175, 4161
206.02, 4167
206.0225, 4146
206.025, 4169
206.0275, 4158
206.03, 4093
206.0325, 4174
206.035, 4180
206.0375, 4167
206.04, 4141
206.0425, 4170
206.045, 4156
206.0475, 4076
206.05, 4154
206.0525, 4157
206.055, 4149
206.0575, 4155
206.06, 4181
206.0625, 4184
206.065, 4101
206.0675, 4183
206.07, 4186
206.0725, 4167
206.075, 4174
206.0775, 4161
206.08, 4140
206.0825, 4067
206.085, 4181
206.0875, 4179
206.09, 4182
206.0925, 4165
206.095, 4196
206.0975, 4199
206.1, 4104
206.1025, 4180
206.105, 4156
206.1075, 4141
206.11, 4122
206.1125, 4150
206.115, 4165
206.1175, 4070
206.12, 4172
206.1225, 4199
206.125, 4186
206.1275, 4173
206.13, 4183
206.1325, 4187
206.135, 4107
206.1375, 4176
206.14, 4187
206.1425, 4181
206.145, 4176
206.1475, 4216
206.15, 4183
206.1525, 4110
206.155, 4178
206.1575, 4179
206.16, 4177
206.1625, 4112
206.165, 4197
206.1675, 4191
206.17, 4101
206.1725, 4164
206.175, 4184
206.1775, 4160
206.18, 4154
206.1825, 4160
206.185, 4173
206.1875, 4082
206.19, 4173
206.1925, 4180
206.195, 4188
206.1975, 4174
206.2, 4177
206.2025, 4164
206.205, 4090
206.2075, 4179
206.21, 4175
206.2125, 4171
206.215, 4152
206.2175, 4185
206.22, 4182
206.2225, 4109
206.225, 4153
206.2275, 4159
206.23, 4165
206.2325, 4151
206.235, 4172
206.2375, 4152
206.24, 4066
206.2425, 4152
206.245, 4148
206.2475, 4150
206.25, 4143
206.2525, 4155
206.255, 4142
206.2575, 4059
206.26, 4164
206.2625, 4192
206.265, 4161
206.2675, 4154
206.27, 4186
206.2725, 4184
206.275, 4097
206.2775, 4194
206.28, 4189
206.2825, 4175
206.285, 4150
206.2875, 4172
206.29, 4161
206.2925, 4103
206.295, 4184
206.2975, 4202
206.3, 4182
206.3025, 4169
206.305, 4162
206.3075, 4179
206.31, 4096
206.3125, 4174
206.315, 4159
206.3175, 4172
206.32, 4150
206.3225, 4197
206.325, 4193
206.3275, 4126
206.33, 4195
206.3325, 4179
206.335, 4179
206.3375, 4154
206.34, 4169
206.3425, 4170
206.345, 4096
206.3475, 4195
206.35, 4170
206.3525, 4129
206.355, 4104
206.3575, 4145
206.36, 4171
206.3625, 4093
206.365, 4152
206.3675, 4161
206.37, 4164
206.3725, 4133
206.375, 4140
206.3775, 4135
206.38, 4094
206.3825, 4195
206.385, 4197
206.3875, 4194
206.39, 4157
206.3925, 4163
206.395, 4134
206.3975, 4038
206.4, 4141
206.4025, 4136
206.405, 4138
206.4075, 4134
206.41, 4147
206.4125, 4120
206.415, 4064
206.4175, 4143
206.42, 4136
206.4225, 4139
206.425, 4132
206.4275, 4160
206.43, 4174
206.4325, 4118
206.435, 4186
206.4375, 4185
206.44, 4193
206.4425, 4169
206.445, 4152
206.4475, 4159
206.45, 4103
206.4525, 4205
206.455, 4201
206.4575, 4172
206.46, 4166
206.4625, 4175
206.465, 4157
206.4675, 4054
206.47, 4147
206.4725, 4131
206.475, 4133
206.4775, 4162
206.48, 4175
206.4825, 4166
206.485, 4091
206.4875, 4170
206.49, 4160
206.4925, 4158
206.495, 4181
206.4975, 4292
206.5, 4341
206.5025, 4331
206.505, 4439
206.5075, 4467
206.51, 4489
206.5125, 4371
206.515, 4243
206.5175, 4035
206.52, 3685
206.5225, 3436
206.525, 3106
206.5275, 2684
206.53, 2154
206.5325, 1841
206.535, 1724
206.5375, 1771
206.54, 2186
206.5425, 2964
206.545, 3871
206.5475, 4541
206.55, 4875
206.5525, 4945
206.555, 4798
206.5575, 4740
206.56, 4619
206.5625, 4567
206.565, 4552
206.5675, 4544
206.57, 4516
206.5725, 4466
206.575, 4515
206.5775, 4522
206.58, 4539
206.5825, 4472
206.585, 4561
206.5875, 4545
206.59, 4424
206.5925, 4493
206.595, 4499
206.5975, 4477
206.6, 4442
206.6025, 4463
206.605, 4446
206.6075, 4344
206.61, 4432
206.6125, 4448
206.615, 4408
206.6175, 4406
206.62, 4394
206.6225, 4380
206.625, 4273
206.6275, 4358
206.63, 4356
206.6325, 4342
206.635, 4310
206.6375, 4328
206.64, 4339
206.6425, 4238
206.645, 4315
206.6475, 4323
206.65, 4292
206.6525, 4291
206.655, 4279
206.6575, 4290
206.66, 4214
206.6625, 4280
206.665, 4255
206.6675, 4252
206.67, 4220
206.6725, 4238
206.675, 4245
206.6775, 4177
206.68, 4221
206.6825, 4235
206.685, 4230
206.6875, 4240
206.69, 4247
206.6925, 4256
206.695, 4151
206.6975, 4216
206.7, 4225
206.7025, 4234
206.705, 4209
206.7075, 4216
206.71, 4228
206.7125, 4131
206.715, 4221
206.7175, 4224
206.72, 4198
206.7225, 4162
206.725, 4201
206.7275, 4211
206.73, 4120
206.7325, 4214
206.735, 4231
206.7375, 4205
206.74, 4185
206.7425, 4216
206.745, 4218
206.7475, 4139
206.75, 4217
206.7525, 4190
206.755, 4178
206.7575, 4165
206.76, 4182
206.7625, 4195
206.765, 4111
206.7675, 4180
206.77, 4189
206.7725, 4188
206.775, 4164
206.7775, 4170
206.78, 4184
206.7825, 4111
206.785, 4206
206.7875, 4174
206.79, 4184
206.7925, 4178
206.795, 4179
206.7975, 4193
206.8, 4123
206.8025, 4207
206.805, 4202
206.8075, 4180
206.81, 4140
206.8125, 4145
206.815, 4157
206.8175, 4082
206.82, 4126
206.8225, 4115
206.825, 4140
206.8275, 4096
206.83, 4114
206.8325, 4072
206.835, 4020
206.8375, 4100
206.84, 4112
206.8425, 4096
206.845, 4099
206.8475, 4121
206.85, 4109
206.8525, 4028
206.855, 4130
206.8575, 4120
206.86, 4116
206.8625, 4116
206.865, 4152
206.8675, 4159
206.87, 4100
206.8725, 4187
206.875, 4175
206.8775, 4125
206.88, 4125
206.8825, 4160
206.885, 4160
206.8875, 4080
206.89, 4166
206.8925, 4165
206.895, 4180
206.8975, 4177
206.9, 4188
206.9025, 4194
206.905, 4106
206.9075, 4201
206.91, 4193
206.9125, 4176
206.915, 4166
206.9175, 4187
206.92, 4191
206.9225, 4109
206.925, 4203
206.9275, 4200
206.93, 4189
206.9325, 4161
206.935, 4169
206.9375, 4193
206.94, 4099
206.9425, 4181
206.945, 4181
206.9475, 4182
206.95, 4174
206.9525, 4174
206.955, 4169
206.9575, 4102
206.96, 4181
206.9625, 4165
206.965, 4168
206.9675, 4163
206.97, 4201
206.9725, 4187
206.975, 4124
206.9775, 4207
206.98, 4208
206.9825, 4180
206.985, 4200
206.9875, 4177
206.99, 4200
206.9925, 4130
206.995, 4200
206.9975, 4180
207.0, 4175
207.0025, 4165
207.005, 4203
207.0075, 4230
207.01, 4148
207.0125, 4213
207.015, 4201
207.0175, 4182
207.02, 4166
207.0225, 4203
207.025, 4188
207.0275, 4101
207.03, 4183
207.0325, 4159
207.035, 4180
207.0375, 4153
207.04, 4178
207.0425, 4166
207.045, 4085
207.0475, 4179
207.05, 4172
207.0525, 4156
207.055, 4177
207.0575, 4206
207.06, 4208
207.0625, 4115
207.065, 4203
207.0675, 4210
207.07, 4194
207.0725, 4181
207.075, 4218
207.0775, 4197
207.08, 4128
207.0825, 4194
207.085, 4187
207.0875, 4173
207.09, 4171
207.0925, 4184
207.095, 4222
207.0975, 4142
207.1, 4226
207.1025, 4206
207.105, 4180
207.1075, 4168
207.11, 4171
207.1125, 4176
207.115, 4097
207.1175, 4164
207.12, 4192
207.1225, 4180
207.125, 4181
207.1275, 4186
207.13, 4151
207.1325, 4081
207.135, 4177
207.1375, 4160
207.14, 4166
207.1425, 4094
207.145, 4178
207.1475, 4185
207.15, 4073
207.1525, 4166
207.155, 4163
207.1575, 4186
207.16, 4146
207.1625, 4158
207.165, 4144
207.1675, 4096
207.17, 4198
207.1725, 4184
207.175, 4176
207.1775, 4164
207.18, 4170
207.1825, 4159
207.185, 4092
207.1875, 4181
207.19, 4182
207.1925, 4181
207.195, 4145
207.1975, 4178
207.2, 4167
207.2025, 4085
207.205, 4160
207.2075, 4173
207.21, 4156
207.2125, 4138
207.215, 4166
207.2175, 4162
207.22, 4090
207.2225, 4162
207.225, 4195
207.2275, 4182
207.23, 4164
207.2325, 4179
207.235, 4174
207.2375, 4088
207.24, 4176
207.2425, 4134
207.245, 4150
207.2475, 4146
207.25, 4166
207.2525, 4176
207.255, 4110
207.2575, 4206
207.26, 4192
207.2625, 4173
207.265, 4170
207.2675, 4189
207.27, 4171
207.2725, 4071
207.275, 4162
207.2775, 4172
207.28, 4153
207.2825, 4135
207.285, 4147
207.2875, 4159
207.29, 4141
207.2925, 4179
207.295, 4170
207.2975, 4176
207.3, 4147
207.3025, 4184
207.305, 4170
207.3075, 4112
207.31, 4191
207.3125, 4182
207.315, 4173
207.3175, 4174
207.32, 4196
207.3225, 4194
207.325, 4131
207.3275, 4202
207.33, 4204
207.3325, 4173
207.335, 4162
207.3375, 4198
207.34, 4181
207.3425, 4125
207.345, 4193
207.3475, 4200
207.35, 4185
207.3525, 4156
207.355, 4183
207.3575, 4151
207.36, 4091
207.3625, 4157
207.365, 4203
207.3675, 4168
207.37, 4156
207.3725, 4176
207.375, 4164
207.3775, 4097
207.38, 4164
207.3825, 4154
207.385, 4158
207.3875, 4086
207.39, 4194
207.3925, 4188
207.395, 4107
207.3975, 4182
207.4, 4172
207.4025, 4142
207.405, 4139
207.4075, 4147
207.41, 4149
207.4125, 4078
207.415, 4164
207.4175, 4170
207.42, 4181
207.4225, 4164
207.425, 4169
207.4275, 4161
207.43, 4084
207.4325, 4169
207.435, 4159
207.4375, 4151
207.44, 4139
207.4425, 4164
207.445, 4172
207.4475, 4098
207.45, 4186
207.4525, 4169
207.455, 4183
207.4575, 4170
207.46, 4175
207.4625, 4171
207.465, 4091
207.4675, 4172
207.47, 4165
207.4725, 4165
207.475, 4112
207.4775, 4140
207.48, 4139
207.4825, 4071
207.485, 4145
207.4875, 4143
207.49, 4135
207.4925, 4133
207.495, 4153
207.4975, 4129
207.5, 4065
207.5025, 4150
207.505, 4161
207.5075, 4153
207.51, 4152
207.5125, 4164
207.515, 4154
207.5175, 4107
207.52, 4208
207.5225, 4218
207.525, 4192
207.5275, 4187
207.53, 4222
207.5325, 4181
207.535, 4074
207.5375, 4164
207.54, 4158
207.5425, 4148
207.545, 4174
207.5475, 4185
207.55, 4189
207.5525, 4101
207.555, 4179
207.5575, 4189
207.56, 4178
207.5625, 4180
207.565, 4191
207.5675, 4196
207.57, 4093
207.5725, 4166
207.575, 4167
207.5775, 4164
207.58, 4178
207.5825, 4233
207.585, 4315
207.5875, 4272
207.59, 4394
207.5925, 4421
207.595, 4426
207.5975, 4399
207.6, 4296
207.6025, 4123
207.605, 3841
207.6075, 3634
207.61, 3349
207.6125, 2978
207.615, 2566
207.6175, 2134
207.62, 1908
207.6225, 1814
207.625, 2045
207.6275, 2522
207.63, 3341
207.6325, 4181
207.635, 4715
207.6375, 4917
207.64, 4851
207.6425, 4848
207.645, 4693
207.6475, 4589
207.65, 4510
207.6525, 4528
207.655, 4474
207.6575, 4380
207.66, 4469
207.6625, 4464
207.665, 4463
207.6675, 4455
207.67, 4468
207.6725, 4470
207.675, 4372
207.6775, 4470
207.68, 4460
207.6825, 4446
207.685, 4435
207.6875, 4436
207.69, 4438
207.6925, 4360
207.695, 4420
207.6975, 4407
207.7, 4374
207.7025, 4348
207.705, 4360
207.7075, 4342
207.71, 4264
207.7125, 4352
207.715, 4337
207.7175, 4345
207.72, 4315
207.7225, 4306
207.725, 4303
207.7275, 4215
207.73, 4275
207.7325, 4298
207.735, 4277
207.7375, 4272
207.74, 4268
207.7425, 4246
207.745, 4189
207.7475, 4262
207.75, 4269
207.7525, 4269
207.755, 4251
207.7575, 4249
207.76, 4206
207.7625, 4161
207.765, 4268
207.7675, 4233
207.77, 4214
207.7725, 4206
207.775, 4240
207.7775, 4220
207.78, 4133
207.7825, 4201
207.785, 4190
207.7875, 4195
207.79, 4170
207.7925, 4200
207.795, 4179
207.7975, 4113
207.8, 4206
207.8025, 4190
207.805, 4186
207.8075, 4075
207.81, 4222
207.8125, 4225
207.815, 4111
207.8175, 4178
207.82, 4157
207.8225, 4199
207.825, 4168
207.8275, 4185
207.83, 4191
207.8325, 4114
207.835, 4165
207.8375, 4157
207.84, 4164
207.8425, 4143
207.845, 4169
207.8475, 4158
207.85, 4115
207.8525, 4190
207.855, 4193
207.8575, 4182
207.86, 4165
207.8625, 4176
207.865, 4179
207.8675, 4094
207.87, 4192
207.8725, 4177
207.875, 4172
207.8775, 4159
207.88, 4170
207.8825, 4180
207.885, 4109
207.8875, 4180
207.89, 4145
207.8925, 4141
207.895, 4138
207.8975, 4167
207.9, 4145
207.9025, 4074
207.905, 4127
207.9075, 4130
207.91, 4097
207.9125, 4061
207.915, 4091
207.9175, 4116
207.92, 4052
207.9225, 4129
207.925, 4150
207.9275, 4144
207.93, 4115
207.9325, 4157
207.935, 4164
207.9375, 4099
207.94, 4175
207.9425, 4150
207.945, 4171
207.9475, 4169
207.95, 4197
207.9525, 4205
207.955, 4136
207.9575, 4219
207.96, 4209
207.9625, 4222
207.965, 4168
207.9675, 4250
207.97, 4233
207.9725, 4169
207.975, 4248
207.9775, 4225
207.98, 4217
207.9825, 4210
207.985, 4245
207.9875, 4234
207.99, 4185
207.9925, 4241
207.995, 4212
207.9975, 4217
208.0, 4186
208.0025, 4208
208.005, 4223
208.0075, 4165
208.01, 4209
208.0125, 4181
208.015, 4172
208.0175, 4113
208.02, 4200
208.0225, 4190
208.025, 4116
208.0275, 4214
208.03, 4215
208.0325, 4202
208.035, 4163
208.0375, 4229
208.04, 4207
208.0425, 4139
208.045, 4192
208.0475, 4200
208.05, 4190
208.0525, 4179
208.055, 4178
208.0575, 4171
208.06, 4120
208.0625, 4199
208.065, 4191
208.0675, 4188
208.07, 4197
208.0725, 4199
208.075, 4175
208.0775, 4092
208.08, 4195
208.0825, 4174
208.085, 4166
208.0875, 4170
208.09, 4192
208.0925, 4199
208.095, 4111
208.0975, 4206
208.1, 4196
208.1025, 4196
208.105, 4189
208.1075, 4207
208.11, 4192
208.1125, 4097
208.115, 4176
208.1175, 4172
208.12, 4150
208.1225, 4167
208.125, 4180
208.1275, 4196
208.13, 4140
208.1325, 4186
208.135, 4186
208.1375, 4160
208.14, 4140
208.1425, 4175
208.145, 4167
208.1475, 4100
208.15, 4208
208.1525, 4169
208.155, 4183
208.1575, 4135
208.16, 4175
208.1625, 4153
208.165, 4073
208.1675, 4161
208.17, 4167
208.1725, 4151
208.175, 4170
208.1775, 4192
208.18, 4191
208.1825, 4110
208.185, 4156
208.1875, 4168
208.19, 4172
208.1925, 4156
208.195, 4170
208.1975, 4172
208.2, 4097
208.2025, 4165
208.205, 4173
208.2075, 4174
208.21, 4163
208.2125, 4183
208.215, 4190
208.2175, 4118
208.22, 4211
208.2225, 4194
208.225, 4190
208.2275, 4196
208.23, 4196
208.2325, 4214
208.235, 4140
208.2375, 4207
208.24, 4207
208.2425, 4183
208.245, 4166
208.2475, 4188
208.25, 4187
208.2525, 4108
208.255, 4190
208.2575, 4198
208.26, 4186
208.2625, 4153
208.265, 4155
208.2675, 4149
208.27, 4079
208.2725, 4180
208.275, 4186
208.2775, 4186
208.28, 4154
208.2825, 4179
208.285, 4177
208.2875, 4104
208.29, 4158
208.2925, 4148
208.295, 4156
208.2975, 4129
208.3, 4154
208.3025, 4155
208.305, 4088
208.3075, 4159
208.31, 4152
208.3125, 4147
208.315, 4157
208.3175, 4182
208.32, 4162
208.3225, 4102
208.325, 4180
208.3275, 4193
208.33, 4173
208.3325, 4126
208.335, 4179
208.3375, 4186
208.34, 4127
208.3425, 4208
208.345, 4194
208.3475, 4191
208.35, 4161
208.3525, 4176
208.355, 4173
208.3575, 4080
208.36, 4155
208.3625, 4134
208.365, 4147
208.3675, 4155
208.37, 4168
208.3725, 4173
208.375, 4109
208.3775, 4189
208.38, 4186
208.3825, 4170
208.385, 4163
208.3875, 4176
208.39, 4197
208.3925, 4087
208.395, 4172
208.3975, 4160
208.4, 4141
208.4025, 4145
208.405, 4163
208.4075, 4157
208.41, 4087
208.4125, 4175
208.415, 4180
208.4175, 4187
208.42, 4173
208.4225, 4196
208.425, 4161
208.4275, 4072
208.43, 4170
208.4325, 4163
208.435, 4160
208.4375, 4151
208.44, 4177
208.4425, 4197
208.445, 4115
208.4475, 4197
208.45, 4201
208.4525, 4201
208.455, 4210
208.4575, 4202
208.46, 4205
208.4625, 4139
208.465, 4210
208.4675, 4181
208.47, 4206
208.4725, 4176
208.475, 4185
208.4775, 4172
208.48, 4090
208.4825, 4162
208.485, 4161
208.4875, 4167
208.49, 4144
208.4925, 4164
208.495, 4130
208.4975, 4059
208.5, 4151
208.5025, 4163
208.505, 4163
208.5075, 4045
208.51, 4217
208.5125, 4233
208.515, 4139
208.5175, 4202
208.52, 4200
208.5225, 4205
208.525, 4184
208.5275, 4190
208.53, 4186
208.5325, 4099
208.535, 4200
208.5375, 4203
208.54, 4209
208.5425, 4200
208.545, 4217
208.5475, 4189
208.55, 4106
208.5525, 4181
208.555, 4189
208.5575, 4178
208.56, 4171
208.5625, 4177
208.565, 4183
208.5675, 4105
208.57, 4172
208.5725, 4186
208.575, 4202
208.5775, 4197
208.58, 4228
208.5825, 4297
208.585, 4284
208.5875, 4406
208.59, 4430
208.5925, 4453
208.595, 4461
208.5975, 4373
208.6, 4178
208.6025, 3894
208.605, 3708
208.6075, 3404
208.61, 3112
208.6125, 2705
208.615, 2237
208.6175, 1936
208.62, 1712
208.6225, 1877
208.625, 2173
208.6275, 2851
208.63, 3818
208.6325, 4656
208.635, 4959
208.6375, 4930
208.64, 4960
208.6425, 4836
208.645, 4701
208.6475, 4599
208.65, 4583
208.6525, 4554
208.655, 4450
208.6575, 4507
208.66, 4502
208.6625, 4472
208.665, 4437
208.6675, 4501
208.67, 4488
208.6725, 4398
208.675, 4474
208.6775, 4481
208.68, 4430
208.6825, 4397
208.685, 4418
208.6875, 4405
208.69, 4349
208.6925, 4405
208.695, 4400
208.6975, 4365
208.7, 4353
208.7025, 4372
208.705, 4375
208.7075, 4269
208.71, 4333
208.7125, 4327
208.715, 4332
208.7175, 4293
208.72, 4308
208.7225, 4288
208.725, 4194
208.7275, 4290
208.73, 4294
208.7325, 4284
208.735, 4285
208.7375, 4293
208.74, 4266
208.7425, 4204
208.745, 4285
208.7475, 4272
208.75, 4271
208.7525, 4236
208.755, 4279
208.7575, 4269
208.76, 4179
208.7625, 4221
208.765, 4226
208.7675, 4228
208.77, 4206
208.7725, 4257
208.775, 4243
208.7775, 4157
208.78, 4244
208.7825, 4221
208.785, 4223
208.7875, 4207
208.79, 4229
208.7925, 4212
208.795, 4126
208.7975, 4201
208.8, 4209
208.8025, 4201
208.805, 4165
208.8075, 4200
208.81, 4190
208.8125, 4136
208.815, 4188
208.8175, 4204
208.82, 4212
208.8225, 4186
208.825, 4192
208.8275, 4203
208.83, 4142
208.8325, 4220
208.835, 4214
208.8375, 4180
208.84, 4164
208.8425, 4187
208.845, 4184
208.8475, 4125
208.85, 4203
208.8525, 4194
208.855, 4197
208.8575, 4192
208.86, 4187
208.8625, 4173
208.865, 4133
208.8675, 4176
208.87, 4160
208.8725, 4185
208.875, 4157
208.8775, 4160
208.88, 4191
208.8825, 4113
208.885, 4184
208.8875, 4169
208.89, 4143
208.8925, 4160
208.895, 4172
208.8975, 4162
208.9, 4098
208.9025, 4163
208.905, 4141
208.9075, 4152
208.91, 4139
208.9125, 4167
208.915, 4159
208.9175, 4076
208.92, 4160
208.9225, 4162
208.925, 4151
208.9275, 4102
208.93, 4193
208.9325, 4201
208.935, 4123
208.9375, 4192
208.94, 4203
208.9425, 4201
208.945, 4205
208.9475, 4205
208.95, 4215
208.9525, 4154
208.955, 4212
208.9575, 4215
208.96, 4196
208.9625, 4210
208.965, 4205
208.9675, 4209
208.97, 4151
208.9725, 4197
208.975, 4197
208.9775, 4179
208.98, 4211
208.9825, 4227
208.985, 4229
208.9875, 4160
208.99, 4226
208.9925, 4218
208.995, 4207
208.9975, 4238
209.0, 4248
209.0025, 4242
209.005, 4177
209.0075, 4230
209.01, 4250
209.0125, 4259
209.015, 4231
209.0175, 4253
209.02, 4245
209.0225, 4196
209.025, 4242
209.0275, 4218
209.03, 4204
209.0325, 4164
209.035, 4168
209.0375, 4188
209.04, 4143
209.0425, 4232
209.045, 4211
209.0475, 4207
209.05, 4187
209.0525, 4208
209.055, 4193
209.0575, 4116
209.06, 4193
209.0625, 4197
209.065, 4172
209.0675, 4158
209.07, 4198
209.0725, 4175
209.075, 4103
209.0775, 4193
209.08, 4186
209.0825, 4175
209.085, 4150
209.0875, 4163
209.09, 4181
209.0925, 4132
209.095, 4189
209.0975, 4196
209.1, 4187
209.1025, 4162
209.105, 4189
209.1075, 4182
209.11, 4134
209.1125, 4174
209.115, 4155
209.1175, 4174
209.12, 4160
209.1225, 4195
209.125, 4172
209.1275, 4102
209.13, 4184
209.1325, 4188
209.135, 4175
209.1375, 4171
209.14, 4205
209.1425, 4186
209.145, 4099
209.1475, 4172
209.15, 4180
209.1525, 4171
209.155, 4155
209.1575, 4172
209.16, 4172
209.1625, 4095
209.165, 4171
209.1675, 4181
209.17, 4173
209.1725, 4182
209.175, 4201
209.1775, 4176
209.18, 4111
209.1825, 4204
209.185, 4168
209.1875, 4167
209.19, 4096
209.1925, 4171
209.195, 4169
209.1975, 4107
209.2, 4171
209.2025, 4155
209.205, 4126
209.2075, 4150
209.21, 4197
209.2125, 4160
209.215, 4081
209.2175, 4161
209.22, 4163
209.2225, 4134
209.225, 4147
209.2275, 4152
209.23, 4162
209.2325, 4100
209.235, 4198
209.2375, 4158
209.24, 4163
209.2425, 4145
209.245, 4159
209.2475, 4164
209.25, 4109
209.2525, 4184
209.255, 4169
209.2575, 4153
209.26, 4142
209.2625, 4165
209.265, 4152
209.2675, 4080
209.27, 4164
209.2725, 4184
209.275, 4151
209.2775, 4126
209.28, 4153
209.2825, 4161
209.285, 4116
209.2875, 4176
209.29, 4151
209.2925, 4158
209.295, 4150
209.2975, 4172
209.3, 4167
209.3025, 4082
209.305, 4142
209.3075, 4139
209.31, 4135
209.3125, 4136
209.315, 4136
209.3175, 4140
209.32, 4068
209.3225, 4147
209.325, 4165
209.3275, 4158
209.33, 4131
209.3325, 4156
209.335, 4163
209.3375, 4085
209.34, 4158
209.3425, 4134
209.345, 4134
209.3475, 4147
209.35, 4174
209.3525, 4173
209.355, 4097
209.3575, 4169
209.36, 4150
209.3625, 4136
209.365, 4111
209.3675, 4146
209.37, 4132
209.3725, 4076
209.375, 4137
209.3775, 4136
209.38, 4116
209.3825, 4115
209.385, 4148
209.3875, 4149
209.39, 4101
209.3925, 4169
209.395, 4163
209.3975, 4166
209.4, 4184
209.4025, 4206
209.405, 4184
209.4075, 4121
209.41, 4204
209.4125, 4195
209.415, 4178
209.4175, 4165
209.42, 4167
209.4225, 4165
209.425, 4083
209.4275, 4169
209.43, 4175
209.4325, 4152
209.435, 4155
209.4375, 4192
209.44, 4192
209.4425, 4135
209.445, 4196
209.4475, 4191
209.45, 4196
209.4525, 4175
209.455, 4190
209.4575, 4170
209.46, 4107
209.4625, 4193
209.465, 4200
209.4675, 4185
209.47, 4159
209.4725, 4170
209.475, 4161
209.4775, 4103
209.48, 4169
209.4825, 4177
209.485, 4165
209.4875, 4138
209.49, 4173
209.4925, 4177
209.495, 4097
209.4975, 4188
209.5, 4197
209.5025, 4182
209.505, 4154
209.5075, 4186
209.51, 4197
209.5125, 4095
209.515, 4171
209.5175, 4189
209.52, 4167
209.5225, 4139
209.525, 4149
209.5275, 4151
209.53, 4081
209.5325, 4173
209.535, 4173
209.5375, 4151
209.54, 4149
209.5425, 4186
209.545, 4184
209.5475, 4123
209.55, 4186
209.5525, 4197
209.555, 4177
209.5575, 4163
209.56, 4195
209.5625, 4194
209.565, 4136
209.5675, 4187
209.57, 4177
209.5725, 4173
209.575, 4159
209.5775, 4187
209.58, 4163
209.5825, 4095
209.585, 4165
209.5875, 4158
209.59, 4162
209.5925, 4128
209.595, 4166
209.5975, 4156
209.6, 4093
209.6025, 4167
209.605, 4169
209.6075, 4176
209.61, 4165
209.6125, 4173
209.615, 4161
209.6175, 4078
209.62, 4164
209.6225, 4150
209.625, 4135
209.6275, 4097
209.63, 4123
209.6325, 4128
209.635, 4076
209.6375, 4163
209.64, 4166
209.6425, 4178
209.645, 4166
209.6475, 4185
209.65, 4198
209.6525, 4150
209.655, 4220
209.6575, 4202
209.66, 4186
209.6625, 4170
209.665, 4186
209.6675, 4178
209.67, 4110
209.6725, 4192
209.675, 4184
209.6775, 4176
209.68, 4165
209.6825, 4168
209.685, 4163
209.6875, 4110
209.69, 4189
209.6925, 4185
209.695, 4167
209.6975, 4158
209.7, 4151
209.7025, 4157
209.705, 4069
209.7075, 4168
209.71, 4183
209.7125, 4193
209.715, 4262
209.7175, 4347
209.72, 4411
209.7225, 4364
209.725, 4471
209.7275, 4504
209.73, 4458
209.7325, 4285
209.735, 4121
209.7375, 3876
209.74, 3481
209.7425, 3219
209.745, 2805
209.7475, 2318
209.75, 1911
209.7525, 1751
209.755, 1756
209.7575, 1937
209.76, 2686
209.7625, 3569
209.765, 4330
209.7675, 4754
209.77, 4905
209.7725, 4854
209.775, 4659
209.7775, 4610
209.78, 4542
209.7825, 4515
209.785, 4496
209.7875, 4520
209.79, 4510
209.7925, 4439
209.795, 4528
209.7975, 4535
209.8, 4541
209.8025, 4517
209.805, 4529
209.8075, 4506
209.81, 4424
209.8125, 4500
209.815, 4491
209.8175, 4459
209.82, 4450
209.8225, 4448
209.825, 4422
209.8275, 4366
209.83, 4446
209.8325, 4413
209.835, 4393
209.8375, 4374
209.84, 4381
209.8425, 4408
209.845, 4300
209.8475, 4383
209.85, 4373
209.8525, 4313
209.855, 4299
209.8575, 4328
209.86, 4327
209.8625, 4252
209.865, 4320
209.8675, 4338
209.87, 4333
209.8725, 4299
209.875, 4295
209.8775, 4285
209.88, 4208
209.8825, 4302
209.885, 4264
209.8875, 4249
209.89, 4234
209.8925, 4224
209.895, 4225
209.8975, 4148
209.9, 4230
209.9025, 4220
209.905, 4202
209.9075, 4191
209.91, 4223
209.9125, 4208
209.915, 4151
209.9175, 4215
209.92, 4238
209.9225, 4222
209.925, 4177
209.9275, 4211
209.93, 4203
209.9325, 4149
209.935, 4201
209.9375, 4184
209.94, 4207
209.9425, 4197
209.945, 4213
209.9475, 4193
209.95, 4155
209.9525, 4244
209.955, 4242
209.9575, 4220
209.96, 4213
209.9625, 4213
209.965, 4219
209.9675, 4108
209.97, 4195
209.9725, 4195
209.975, 4199
209.9775, 4157
209.98, 4241
209.9825, 4226
209.985, 4162
209.9875, 4237
209.99, 4235
209.9925, 4213
209.995, 4210
209.9975, 4200
210.0, 4210
210.0025, 4136
210.005, 4202
210.0075, 4194
210.01, 4182
210.0125, 4186
210.015, 4201
210.0175, 4195
210.02, 4124
210.0225, 4201
210.025, 4170
210.0275, 4183
210.03, 4143
210.0325, 4167
210.035, 4175
210.0375, 4093
210.04, 4154
210.0425, 4136
210.045, 4092
210.0475, 4060
210.05, 4100
210.0525, 4101
210.055, 4034
210.0575, 4093
210.06, 4097
210.0625, 4094
210.065, 4087
210.0675, 4128
210.07, 4128
210.0725, 4061
210.075, 4147
210.0775, 4153
210.08, 4163
210.0825, 4169
210.085, 4169
210.0875, 4163
210.09, 4098
210.0925, 4151
210.095, 4169
210.0975, 4161
210.1, 4151
210.1025, 4191
210.105, 4188
210.1075, 4116
210.11, 4209
210.1125, 4200
210.115, 4199
210.1175, 4191
210.12, 4180
210.1225, 4180
210.125, 4104
210.1275, 4163
210.13, 4166
210.1325, 4161
210.135, 4197
210.1375, 4194
210.14, 4167
210.1425, 4078
210.145, 4161
210.1475, 4166
210.15, 4173
210.1525, 4162
210.155, 4175
210.1575, 4162
210.16, 4089
210.1625, 4171
210.165, 4185
210.1675, 4168
210.17, 4153
210.1725, 4174
210.175, 4158
210.1775, 4103
210.18, 4163
210.1825, 4149
210.185, 4144
210.1875, 4132
210.19, 4178
210.1925, 4161
210.195, 4086
210.1975, 4152
210.2, 4168
210.2025, 4166
210.205, 4135
210.2075, 4162
210.21, 4174
210.2125, 4082
210.215, 4154
210.2175, 4165
210.22, 4168
210.2225, 4090
210.225, 4185
210.2275, 4188
210.23, 4125
210.2325, 4174
210.235, 4157
210.2375, 4143
210.24, 4136
210.2425, 4171
210.245, 4161
210.2475, 4117
210.25, 4200
210.2525, 4189
210.255, 4192
210.2575, 4155
210.26, 4214
210.2625, 4168
210.265, 4099
210.2675, 4183
210.27, 4193
210.2725, 4181
210.275, 4187
210.2775, 4191
210.28, 4192
210.2825, 4097
210.285, 4179
210.2875, 4182
210.29, 4175
210.2925, 4197
210.295, 4201
210.2975, 4206
210.3, 4146
210.3025, 4225
210.305, 4212
210.3075, 4203
210.31, 4194
210.3125, 4220
210.315, 4210
210.3175, 4144
210.32, 4218
210.3225, 4202
210.325, 4206
210.3275, 4177
210.33, 4187
210.3325, 4171
210.335, 4090
210.3375, 4166
210.34, 4135
210.3425, 4151
210.345, 4145
210.3475, 4149
210.35, 4145
210.3525, 4103
210.355, 4186
210.3575, 4191
210.36, 4191
210.3625, 4157
210.365, 4168
210.3675, 4181
210.37, 4089
210.3725, 4172
210.375, 4181
210.3775, 4171
210.38, 4162
210.3825, 4207
210.385, 4188
210.3875, 4124
210.39, 4203
210.3925, 4190
210.395, 4200
210.3975, 4163
210.4, 4181
210.4025, 4189
210.405, 4120
210.4075, 4174
210.41, 4199
210.4125, 4203
210.415, 4148
210.4175, 4181
210.42, 4202
210.4225, 4131
210.425, 4217
210.4275, 4199
210.43, 4198
210.4325, 4154
210.435, 4186
210.4375, 4170
210.44, 4104
210.4425, 4173
210.445, 4167
210.4475, 4148
210.45, 4170
210.4525, 4203
210.455, 4208
210.4575, 4153
210.46, 4197
210.4625, 4190
210.465, 4181
210.4675, 4157
210.47, 4185
210.4725, 4199
210.475, 4139
210.4775, 4217
210.48, 4219
210.4825, 4199
210.485, 4160
210.4875, 4181
210.49, 4167
210.4925, 4092
210.495, 4160
210.4975, 4180
210.5, 4172
210.5025, 4160
210.505, 4179
210.5075, 4166
210.51, 4096
210.5125, 4176
210.515, 4164
210.5175, 4161
210.52, 4170
210.5225, 4182
210.525, 4177
210.5275, 4093
210.53, 4163
210.5325, 4136
210.535, 4148
210.5375, 4123
210.54, 4145
210.5425, 4153
210.545, 4094
210.5475, 4172
210.55, 4155
210.5525, 4157
210.555, 4162
210.5575, 4166
210.56, 4147
210.5625, 4072
210.565, 4150
210.5675, 4144
210.57, 4155
210.5725, 4149
210.575, 4189
210.5775, 4187
210.58, 4119
210.5825, 4180
210.585, 4189
210.5875, 4199
210.59, 4154
210.5925, 4167
210.595, 4145
210.5975, 4088
210.6, 4154
210.6025, 4160
210.605, 4141
210.6075, 4139
210.61, 4172
210.6125, 4162
210.615, 4097
210.6175, 4162
210.62, 4158
210.6225, 4161
210.625, 4154
210.6275, 4187
210.63, 4190
210.6325, 4121
210.635, 4184
210.6375, 4181
210.64, 4183
210.6425, 4161
210.645, 4164
210.6475, 4130
210.65, 4062
210.6525, 4147
210.655, 4139
210.6575, 4170
210.66, 4137
210.6625, 4193
210.665, 4170
210.6675, 4090
210.67, 4184
210.6725, 4167
210.675, 4164
210.6775, 4148
210.68, 4207
210.6825, 4185
210.685, 4144
210.6875, 4193
210.69, 4170
210.6925, 4183
210.695, 4177
210.6975, 4198
210.7, 4176
210.7025, 4101
210.705, 4175
210.7075, 4185
210.71, 4181
210.7125, 4163
210.715, 4184
210.7175, 4190
210.72, 4137
210.7225, 4197
210.725, 4175
210.7275, 4143
210.73, 4133
210.7325, 4137
210.735, 4132
210.7375, 4047
210.74, 4115
210.7425, 4146
210.745, 4155
210.7475, 4115
210.75, 4161
210.7525, 4160
210.755, 4090
210.7575, 4212
210.76, 4184
210.7625, 4159
210.765, 4165
210.7675, 4179
210.77, 4190
210.7725, 4117
210.775, 4203
210.7775, 4187
210.78, 4158
210.7825, 4150
210.785, 4200
210.7875, 4193
210.79, 4114
210.7925, 4185
210.795, 4195
210.7975, 4193
210.8, 4179
210.8025, 4185
210.805, 4201
210.8075, 4130
210.81, 4224
210.8125, 4235
210.815, 4196
210.8175, 4183
210.82, 4196
210.8225, 4199
210.825, 4129
210.8275, 4230
210.83, 4249
210.8325, 4326
210.835, 4341
210.8375, 4422
210.84, 4445
210.8425, 4402
210.845, 4468
210.8475, 4329
210.85, 4143
210.8525, 3922
210.855, 3649
210.8575, 3366
210.86, 2956
210.8625, 2593
210.865, 2139
210.8675, 1933
210.87, 1824
210.8725, 1999
210.875, 2393
210.8775, 3102
210.88, 4154
210.8825, 4769
210.885, 5006
210.8875, 5024
210.89, 4984
210.8925, 4845
210.895, 4632
210.8975, 4608
210.9, 4573
210.9025, 4535
210.905, 4479
210.9075, 4483
210.91, 4470
210.9125, 4396
210.915, 4460
210.9175, 4480
210.92, 4482
210.9225, 4446
210.925, 4455
210.9275, 4405
210.93, 4300
210.9325, 4388
210.935, 4399
210.9375, 4378
210.94, 4370
210.9425, 4355
210.945, 4341
210.9475, 4247
210.95, 4305
210.9525, 4318
210.955, 4309
210.9575, 4287
210.96, 4314
210.9625, 4291
210.965, 4213
210.9675, 4290
210.97, 4280
210.9725, 4261
210.975, 4254
210.9775, 4282
210.98, 4288
210.9825, 4189
210.985, 4253
210.9875, 4263
210.99, 4272
210.9925, 4258
210.995, 4264
210.9975, 4254
211.0, 4191
211.0025, 4251
211.005, 4236
211.0075, 4231
211.01, 4213
211.0125, 4252
211.015, 4234
211.0175, 4178
211.02, 4244
211.0225, 4241
211.025, 4228
211.0275, 4148
211.03, 4233
211.0325, 4235
211.035, 4179
211.0375, 4230
211.04, 4215
211.0425, 4192
211.045, 4187
211.0475, 4176
211.05, 4194
211.0525, 4118
211.055, 4201
211.0575, 4201
211.06, 4193
211.0625, 4178
211.065, 4191
211.0675, 4179
211.07, 4096
211.0725, 4160
211.075, 4177
211.0775, 4171
211.08, 4156
211.0825, 4181
211.085, 4182
211.0875, 4113
211.09, 4201
211.0925, 4199
211.095, 4168
211.0975, 4148
211.1, 4188
211.1025, 4154
211.105, 4087
211.1075, 4181
211.11, 4183
211.1125, 4198
211.115, 4188
211.1175, 4199
211.12, 4172
211.1225, 4090
211.125, 4178
211.1275, 4181
211.13, 4167
211.1325, 4166
211.135, 4190
211.1375, 4169
211.14, 4103
211.1425, 4179
211.145, 4190
211.1475, 4173
211.15, 4172
211.1525, 4186
211.155, 4174
211.1575, 4112
211.16, 4190
211.1625, 4190
211.165, 4176
211.1675, 4150
211.17, 4175
211.1725, 4169
211.175, 4123
211.1775, 4185
211.18, 4197
211.1825, 4184
211.185, 4203
211.1875, 4230
211.19, 4246
211.1925, 4163
211.195, 4249
211.1975, 4251
211.2, 4233
211.2025, 4155
211.205, 4252
211.2075, 4255
211.21, 4192
211.2125, 4254
211.215, 4240
211.2175, 4225
211.22, 4233
211.2225, 4246
211.225, 4218
211.2275, 4165
211.23, 4254
211.2325, 4252
211.235, 4262
211.2375, 4243
211.24, 4253
211.2425, 4233
211.245, 4174
211.2475, 4248
211.25, 4234
211.2525, 4236
211.255, 4241
211.2575, 4253
211.26, 4244
211.2625, 4183
211.265, 4244
211.2675, 4239
211.27, 4225
211.2725, 4217
211.275, 4235
211.2775, 4208
211.28, 4143
211.2825, 4210
211.285, 4192
211.2875, 4196
211.29, 4185
211.2925, 4197
211.295, 4195
211.2975, 4133
211.3, 4221
211.3025, 4217
211.305, 4216
211.3075, 4155
211.31, 4247
211.3125, 4252
211.315, 4187
211.3175, 4243
211.32, 4219
211.3225, 4212
211.325, 4174
211.3275, 4179
211.33, 4180
211.3325, 4109
211.335, 4189
211.3375, 4173
211.34, 4163
211.3425, 4184
211.345, 4213
211.3475, 4193
211.35, 4120
211.3525, 4178
211.355, 4204
211.3575, 4191
211.36, 4162
211.3625, 4183
211.365, 4183
211.3675, 4106
211.37, 4183
211.3725, 4199
211.375, 4195
211.3775, 4162
211.38, 4187
211.3825, 4172
211.385, 4096
211.3875, 4203
211.39, 4188
211.3925, 4197
211.395, 4174
211.3975, 4175
211.4, 4190
211.4025, 4120
211.405, 4209
211.4075, 4177
211.41, 4190
211.4125, 4165
211.415, 4207
211.4175, 4210
211.42, 4138
211.4225, 4235
211.425, 4215
211.4275, 4209
211.43, 4177
211.4325, 4183
211.435, 4170
211.4375, 4094
211.44, 4152
211.4425, 4139
211.445, 4145
211.4475, 4148
211.45, 4199
211.4525, 4194
211.455, 4115
211.4575, 4196
211.46, 4173
211.4625, 4163
211.465, 4145
211.4675, 4157
211.47, 4174
211.4725, 4103
211.475, 4178
211.4775, 4150
211.48, 4132
211.4825, 4142
211.485, 4157
211.4875, 4140
211.49, 4083
211.4925, 4172
211.495, 4180
211.4975, 4204
211.5, 4176
211.5025, 4187
211.505, 4180
211.5075, 4108
211.51, 4195
211.5125, 4177
211.515, 4159
211.5175, 4156
211.52, 4175
211.5225, 4175
211.525, 4092
211.5275, 4154
211.53, 4165
211.5325, 4158
211.535, 4156
211.5375, 4168
211.54, 4171
211.5425, 4083
211.545, 4138
211.5475, 4168
211.55, 4152
211.5525, 4141
211.555, 4180
211.5575, 4176
211.56, 4090
211.5625, 4168
211.565, 4189
211.5675, 4158
211.57, 4145
211.5725, 4189
211.575, 4164
211.5775, 4093
211.58, 4174
211.5825, 4176
211.585, 4170
211.5875, 4161
211.59, 4141
211.5925, 4155
211.595, 4082
211.5975, 4164
211.6, 4162
211.6025, 4158
211.605, 4144
211.6075, 4174
211.61, 4158
211.6125, 4076
211.615, 4163
211.6175, 4142
211.62, 4151
211.6225, 4138
211.625, 4183
211.6275, 4161
211.63, 4100
211.6325, 4167
211.635, 4171
211.6375, 4168
211.64, 4157
211.6425, 4150
211.645, 4155
211.6475, 4091
211.65, 4169
211.6525, 4158
211.655, 4164
211.6575, 4176
211.66, 4167
211.6625, 4174
211.665, 4069
211.6675, 4160
211.67, 4166
211.6725, 4179
211.675, 4148
211.6775, 4162
211.68, 4151
211.6825, 4092
211.685, 4178
211.6875, 4174
211.69, 4173
211.6925, 4171
211.695, 4192
211.6975, 4177
211.7, 4106
211.7025, 4179
211.705, 4184
211.7075, 4155
211.71, 4158
211.7125, 4186
211.715, 4146
211.7175, 4085
211.72, 4164
211.7225, 4169
211.725, 4154
211.7275, 4125
211.73, 4144
211.7325, 4177
211.735, 4105
211.7375, 4175
211.74, 4177
211.7425, 4150
211.745, 4074
211.7475, 4159
211.75, 4149
211.7525, 4084
211.755, 4161
211.7575, 4165
211.76, 4155
211.7625, 4151
211.765, 4189
211.7675, 4160
211.77, 4067
211.7725, 4110
211.775, 4099
211.7775, 4058
211.78, 3994
211.7825, 4085
211.785, 4099
211.7875, 4074
211.79, 4151
211.7925, 4130
211.795, 4163
211.7975, 4148
211.8, 4157
211.8025, 4140
211.805, 4084
211.8075, 4179
211.81, 4197
211.8125, 4189
211.815, 4188
211.8175, 4195
211.82, 4202
211.8225, 4129
211.825, 4208
211.8275, 4204
211.83, 4216
211.8325, 4185
211.835, 4207
211.8375, 4197
211.84, 4105
211.8425, 4178
211.845, 4204
211.8475, 4195
211.85, 4188
211.8525, 4202
211.855, 4182
211.8575, 4110
211.86, 4188
211.8625, 4177
211.865, 4167
211.8675, 4173
211.87, 4173
211.8725, 4228
211.875, 4218
211.8775, 4348
211.88, 4376
211.8825, 4410
211.885, 4435
211.8875, 4467
211.89, 4369
211.8925, 4134
211.895, 3999
211.8975, 3712
211.9, 3397
211.9025, 3043
211.905, 2660
211.9075, 2130
211.91, 1778
211.9125, 1702
211.915, 1800
211.9175, 2184
211.92, 2904
211.9225, 3923
211.925, 4607
211.9275, 4865
211.93, 5006
211.9325, 4930
211.935, 4751
211.9375, 4616
211.94, 4560
211.9425, 4545
211.945, 4455
211.9475, 4508
211.95, 4499
211.9525, 4490
211.955, 4525
211.9575, 4530
211.96, 4541
211.9625, 4444
211.965, 4490
211.9675, 4509
211.97, 4494
211.9725, 4477
211.975, 4464
211.9775, 4451
211.98, 4358
211.9825, 4451
211.985, 4414
211.9875, 4395
211.99, 4395
211.9925, 4394
211.995, 4388
211.9975, 4299
212.0, 4362
212.0025, 4373
212.005, 4334
212.0075, 4303
212.01, 4292
212.0125, 4316
212.015, 4270
212.0175, 4325
212.02, 4314
212.0225, 4294
212.025, 4264
212.0275, 4278
212.03, 4275
212.0325, 4195
212.035, 4266
212.0375, 4261
212.04, 4284
212.0425, 4250
212.045, 4279
212.0475, 4267
212.05, 4201
212.0525, 4267
212.055, 4237
212.0575, 4227
212.06, 4209
212.0625, 4202
212.065, 4207
212.0675, 4156
212.07, 4232
212.0725, 4221
212.075, 4198
212.0775, 4185
212.08, 4198
212.0825, 4190
212.085, 4114
212.0875, 4195
212.09, 4194
212.0925, 4220
212.095, 4201
212.0975, 4233
212.1, 4218
212.1025, 4142
212.105, 4216
212.1075, 4195
212.11, 4199
212.1125, 4184
212.115, 4219
212.1175, 4213
212.12, 4144
212.1225, 4208
212.125, 4215
212.1275, 4214
212.13, 4180
212.1325, 4211
212.135, 4215
212.1375, 4142
212.14, 4201
212.1425, 4224
212.145, 4232
212.1475, 4185
212.15, 4227
212.1525, 4209
212.155, 4146
212.1575, 4206
212.16, 4199
212.1625, 4186
212.165, 4132
212.1675, 4207
212.17, 4181
212.1725, 4109
212.175, 4179
212.1775, 4177
212.18, 4194
212.1825, 4175
212.185, 4195
212.1875, 4195
212.19, 4116
212.1925, 4175
212.195, 4161
212.1975, 4131
212.2, 4104
212.2025, 4118
212.205, 4119
212.2075, 4036
212.21, 4118
212.2125, 4113
212.215, 4112
212.2175, 4110
212.22, 4136
212.2225, 4158
212.225, 4093
212.2275, 4152
212.23, 4146
212.2325, 4141
212.235, 4135
212.2375, 4173
212.24, 4164
212.2425, 4093
212.245, 4209
212.2475, 4209
212.25, 4211
212.2525, 4199
212.255, 4217
212.2575, 4212
212.26, 4146
212.2625, 4204
212.265, 4207
212.2675, 4210
212.27, 4192
212.2725, 4206
212.275, 4206
212.2775, 4140
212.28, 4216
212.2825, 4230
212.285, 4219
212.2875, 4211
212.29, 4242
212.2925, 4226
212.295, 4172
212.2975, 4238
212.3, 4243
212.3025, 4223
212.305, 4222
212.3075, 4224
212.31, 4246
212.3125, 4173
212.315, 4225
212.3175, 4211
212.32, 4179
212.3225, 4189
212.325, 4201
212.3275, 4202
212.33, 4118
212.3325, 4197
212.335, 4183
212.3375, 4186
212.34, 4168
212.3425, 4182
212.345, 4180
212.3475, 4120
212.35, 4190
212.3525, 4187
212.355, 4181
212.3575, 4169
212.36, 4174
212.3625, 4163
212.365, 4102
212.3675, 4161
212.37, 4136
212.3725, 4143
212.375, 4158
212.3775, 4151
212.38, 4165
212.3825, 4091
212.385, 4150
212.3875, 4148
212.39, 4149
212.3925, 4148
212.395, 4162
212.3975, 4151
212.4, 4079
212.4025, 4175
212.405, 4152
212.4075, 4145
212.41, 4140
212.4125, 4154
212.415, 4167
212.4175, 4098
212.42, 4137
212.4225, 4143
212.425, 4132
212.4275, 4126
212.43, 4159
212.4325, 4178
212.435, 4114
212.4375, 4191
212.44, 4175
212.4425, 4178
212.445, 4154
212.4475, 4152
212.45, 4151
212.4525, 4113
212.455, 4174
212.4575, 4172
212.46, 4172
212.4625, 4142
212.465, 4203
212.4675, 4191
212.47, 4107
212.4725, 4153
212.475, 4172
212.4775, 4157
212.48, 4092
212.4825, 4195
212.485, 4171
212.4875, 4121
212.49, 4183
212.4925, 4182
212.495, 4162
212.4975, 4141
212.5, 4159
212.5025, 4158
212.505, 4108
212.5075, 4170
212.51, 4168
212.5125, 4158
212.515, 4150
212.5175, 4169
212.52, 4163
212.5225, 4101
212.525, 4170
212.5275, 4171
212.53, 4170
212.5325, 4170
212.535, 4198
212.5375, 4186
212.54, 4113
212.5425, 4175
212.545, 4173
212.5475, 4170
212.55, 4138
212.5525, 4163
212.555, 4162
212.5575, 4111
212.56, 4177
212.5625, 4165
212.565, 4176
212.5675, 4154
212.57, 4136
212.5725, 4133
212.575, 4066
212.5775, 4144
212.58, 4162
212.5825, 4161
212.585, 4155
212.5875, 4178
212.59, 4181
212.5925, 4109
212.595, 4184
212.5975, 4160
212.6, 4152
212.6025, 4149
212.605, 4167
212.6075, 4181
212.61, 4110
212.6125, 4174
212.615, 4194
212.6175, 4193
212.62, 4175
212.6225, 4182
212.625, 4181
212.6275, 4117
212.63, 4179
212.6325, 4179
212.635, 4167
212.6375, 4153
212.64, 4166
212.6425, 4169
212.645, 4118
212.6475, 4183
212.65, 4171
212.6525, 4155
212.655, 4159
212.6575, 4191
212.66, 4173
212.6625, 4121
212.665, 4173
212.6675, 4159
212.67, 4145
212.6725, 4132
212.675, 4150
212.6775, 4128
212.68, 4079
212.6825, 4152
212.685, 4168
212.6875, 4161
212.69, 4142
212.6925, 4175
212.695, 4172
212.6975, 4101
212.7, 4188
212.7025, 4181
212.705, 4183
212.7075, 4184
212.71, 4181
212.7125, 4171
212.715, 4112
212.7175, 4179
212.72, 4170
212.7225, 4182
212.725, 4149
212.7275, 4166
212.73, 4168
212.7325, 4119
212.735, 4164
212.7375, 4159
212.74, 4143
212.7425, 4133
212.745, 4175
212.7475, 4174
212.75, 4091
212.7525, 4167
212.755, 4192
212.7575, 4165
212.76, 4141
212.7625, 4159
212.765, 4137
212.7675, 4085
212.77, 4163
212.7725, 4162
212.775, 4150
212.7775, 4153
212.78, 4185
212.7825, 4148
212.785, 4073
212.7875, 4157
212.79, 4160
212.7925, 4155
212.795, 4124
212.7975, 4180
212.8, 4188
212.8025, 4092
212.805, 4149
212.8075, 4162
212.81, 4154
212.8125, 4132
212.815, 4171
212.8175, 4159
212.82, 4075
212.8225, 4170
212.825, 4180
212.8275, 4167
212.83, 4132
212.8325, 4175
212.835, 4159
212.8375, 4075
212.84, 4143
212.8425, 4176
212.845, 4163
212.8475, 4130
212.85, 4157
212.8525, 4155
212.855, 4085
212.8575, 4168
212.86, 4183
212.8625, 4164
212.865, 4164
212.8675, 4164
212.87, 4158
212.8725, 4076
212.875, 4172
212.8775, 4176
212.88, 4154
212.8825, 4148
212.885, 4185
212.8875, 4181
212.89, 4120
212.8925, 4183
212.895, 4176
212.8975, 4177
212.9, 4167
212.9025, 4199
212.905, 4200
212.9075, 4114
212.91, 4162
212.9125, 4156
212.915, 4128
212.9175, 4077
212.92, 4083
212.9225, 4066
212.925, 4021
212.9275, 4098
212.93, 4102
212.9325, 4123
212.935, 4114
212.9375, 4140
212.94, 4132
212.9425, 4081
212.945, 4157
212.9475, 4171
212.95, 4179
212.9525, 4160
212.955, 4182
212.9575, 4180
212.96, 4113
212.9625, 4186
212.965, 4187
212.9675, 4180
212.97, 4162
212.9725, 4184
212.975, 4186
212.9775, 4128
212.98, 4165
212.9825, 4169
212.985, 4179
212.9875, 4160
212.99, 4178
212.9925, 4187
212.995, 4119
212.9975, 4198
213.0, 4187
213.0025, 4197
213.005, 4183
213.0075, 4204
213.01, 4212
213.0125, 4119
213.015, 4209
213.0175, 4218
213.02, 4248
213.0225, 4300
213.025, 4383
213.0275, 4431
213.03, 4389
213.0325, 4498
213.035, 4497
213.0375, 4359
213.04, 4171
213.0425, 3950
213.045, 3657
213.0475, 3277
213.05, 2960
213.0525, 2560
213.055, 2076
213.0575, 1807
213.06, 1790
213.0625, 1925
213.065, 2388
213.0675, 3280
213.07, 4115
213.0725, 4634
213.075, 4890
213.0775, 4931
213.08, 4849
213.0825, 4639
213.085, 4600
213.0875, 4564
213.09, 4561
213.0925, 4524
213.095, 4537
213.0975, 4519
213.1, 4458
213.1025, 4527
213.105, 4550
213.1075, 4526
213.11, 4499
213.1125, 4516
213.115, 4514
213.1175, 4422
213.12, 4487
213.1225, 4476
213.125, 4477
213.1275, 4455
213.13, 4463
213.1325, 4448
213.135, 4367
213.1375, 4432
213.14, 4424
213.1425, 4398
213.145, 4308
213.1475, 4407
213.15, 4393
213.1525, 4326
213.155, 4385
213.1575, 4372
213.16, 4348
213.1625, 4349
213.165, 4335
213.1675, 4325
213.17, 4267
213.1725, 4349
213.175, 4304
213.1775, 4284
213.18, 4222
213.1825, 4310
213.185, 4288
213.1875, 4214
213.19, 4272
213.1925, 4272
213.195, 4277
213.1975, 4268
213.2, 4271
213.2025, 4254
213.205, 4174
213.2075, 4239
213.21, 4224
213.2125, 4230
213.215, 4173
213.2175, 4249
213.22, 4256
213.2225, 4184
213.225, 4246
213.2275, 4236
213.23, 4227
213.2325, 4227
213.235, 4252
213.2375, 4226
213.24, 4153
213.2425, 4198
213.245, 4203
213.2475, 4181
213.25, 4184
213.2525, 4204
213.255, 4210
213.2575, 4120
213.26, 4195
213.2625, 4166
213.265, 4177
213.2675, 4108
213.27, 4192
213.2725, 4176
213.275, 4097
213.2775, 4180
213.28, 4180
213.2825, 4178
213.285, 4175
213.2875, 4193
213.29, 4197
213.2925, 4141
213.295, 4219
213.2975, 4198
213.3, 4173
213.3025, 4165
213.305, 4169
213.3075, 4171
213.31, 4118
213.3125, 4202
213.315, 4173
213.3175, 4166
213.32, 4159
213.3225, 4143
213.325, 4152
213.3275, 4064
213.33, 4166
213.3325, 4143
213.335, 4136
213.3375, 4102
213.34, 4120
213.3425, 4145
213.345, 4055
213.3475, 4109
213.35, 4113
213.3525, 4116
213.355, 4113
213.3575, 4151
213.36, 4145
213.3625, 4063
213.365, 4133
213.3675, 4128
213.37, 4150
213.3725, 4128
213.375, 4138
213.3775, 4139
213.38, 4070
213.3825, 4154
213.385, 4193
213.3875, 4188
213.39, 4169
213.3925, 4219
213.395, 4223
213.3975, 4135
213.4, 4209
213.4025, 4212
213.405, 4221
213.4075, 4202
213.41, 4213
213.4125, 4222
213.415, 4143
213.4175, 4212
213.42, 4228
213.4225, 4233
213.425, 4216
213.4275, 4247
213.43, 4217
213.4325, 4160
213.435, 4225
213.4375, 4233
213.44, 4214
213.4425, 4204
213.445, 4214
213.4475, 4220
213.45, 4161
213.4525, 4213
213.455, 4199
213.4575, 4220
213.46, 4190
213.4625, 4205
213.465, 4201
213.4675, 4137
213.47, 4224
213.4725, 4198
213.475, 4212
213.4775, 4170
213.48, 4191
213.4825, 4204
213.485, 4127
213.4875, 4184
213.49, 4183
213.4925, 4171
213.495, 4166
213.4975, 4193
213.5, 4203
213.5025, 4147
213.505, 4193
213.5075, 4208
213.51, 4201
213.5125, 4200
213.515, 4209
213.5175, 4191
213.52, 4135
213.5225, 4194
213.525, 4172
213.5275, 4186
213.53, 4176
213.5325, 4202
213.535, 4193
213.5375, 4134
213.54, 4195
213.5425, 4201
213.545, 4182
213.5475, 4148
213.55, 4150
213.5525, 4183
213.555, 4099
213.5575, 4174
213.56, 4161
213.5625, 4157
213.565, 4145
213.5675, 4182
213.57, 4179
213.5725, 4143
213.575, 4192
213.5775, 4199
213.58, 4194
213.5825, 4154
213.585, 4160
213.5875, 4173
213.59, 4106
213.5925, 4185
213.595, 4194
213.5975, 4189
213.6, 4169
213.6025, 4179
213.605, 4178
213.6075, 4114
213.61, 4198
213.6125, 4194
213.615, 4191
213.6175, 4169
213.62, 4183
213.6225, 4189
213.625, 4140
213.6275, 4210
213.63, 4178
213.6325, 4176
213.635, 4167
213.6375, 4178
213.64, 4174
213.6425, 4142
213.645, 4198
213.6475, 4195
213.65, 4169
213.6525, 4159
213.655, 4176
213.6575, 4155
213.66, 4092
213.6625, 4175
213.665, 4182
213.6675, 4172
213.67, 4170
213.6725, 4181
213.675, 4170
213.6775, 4100
213.68, 4183
213.6825, 4182
213.685, 4193
213.6875, 4164
213.69, 4171
213.6925, 4145
213.695, 4111
213.6975, 4167
213.7, 4180
213.7025, 4188
213.705, 4149
213.7075, 4179
213.71, 4173
213.7125, 4086
213.715, 4181
213.7175, 4173
213.72, 4161
213.7225, 4142
213.725, 4173
213.7275, 4161
213.73, 4081
213.7325, 4163
213.735, 4163
213.7375, 4159
213.74, 4123
213.7425, 4128
213.745, 4136
213.7475, 4068
213.75, 4155
213.7525, 4152
213.755, 4155
213.7575, 4148
213.76, 4151
213.7625, 4160
213.765, 4090
213.7675, 4179
213.77, 4173
213.7725, 4172
213.775, 4166
213.7775, 4168
213.78, 4169
213.7825, 4087
213.785, 4160
213.7875, 4167
213.79, 4140
213.7925, 4130
213.795, 4178
213.7975, 4171
213.8, 4113
213.8025, 4182
213.805, 4158
213.8075, 4143
213.81, 4136
213.8125, 4144
213.815, 4149
213.8175, 4088
213.82, 4141
213.8225, 4160
213.825, 4165
213.8275, 4140
213.83, 4170
213.8325, 4168
213.835, 4105
213.8375, 4183
213.84, 4182
213.8425, 4186
213.845, 4144
213.8475, 4172
213.85, 4179
213.8525, 4095
213.855, 4130
213.8575, 4147
213.86, 4134
213.8625, 4157
213.865, 4153
213.8675, 4155
213.87, 4107
213.8725, 4185
213.875, 4167
213.8775, 4186
213.88, 4163
213.8825, 4186
213.885, 4151
213.8875, 4089
213.89, 4151
213.8925, 4153
213.895, 4156
213.8975, 4107
213.9, 4153
213.9025, 4131
213.905, 4076
213.9075, 4154
213.91, 4167
213.9125, 4138
213.915, 4147
213.9175, 4169
213.92, 4136
213.9225, 4098
213.925, 4165
213.9275, 4177
213.93, 4163
213.9325, 4130
213.935, 4178
213.9375, 4201
213.94, 4118
213.9425, 4191
213.945, 4171
213.9475, 4152
213.95, 4171
213.9525, 4169
213.955, 4160
213.9575, 4119
213.96, 4170
213.9625, 4227
213.965, 4206
213.9675, 4150
213.97, 4149
213.9725, 4102
213.975, 4030
213.9775, 4058
213.98, 4040
213.9825, 4065
213.985, 4079
213.9875, 4136
213.99, 4138
213.9925, 4082
213.995, 4143
213.9975, 4143
214.0, 4135
214.0025, 4116
214.005, 4154
214.0075, 4170
214.01, 4086
214.0125, 4206
214.015, 4183
214.0175, 4169
214.02, 4146
214.0225, 4186
214.025, 4166
214.0275, 4108
214.03, 4189
214.0325, 4191
214.035, 4184
214.0375, 4179
214.04, 4169
214.0425, 4177
214.045, 4117
214.0475, 4186
214.05, 4161
214.0525, 4175
214.055, 4157
214.0575, 4170
214.06, 4172
214.0625, 4112
214.065, 4177
214.0675, 4200
214.07, 4208
214.0725, 4154
214.075, 4308
214.0775, 4375
214.08, 4334
214.0825, 4430
214.085, 4447
214.0875, 4449
214.09, 4350
214.0925, 4203
214.095, 3986
214.0975, 3676
214.1, 3427
214.1025, 3191
214.105, 2802
214.1075, 2280
214.11, 1962
214.1125, 1782
214.115, 1797
214.1175, 2156
214.12, 2769
214.1225, 3702
214.125, 4608
214.1275, 4987
214.13, 5075
214.1325, 4955
214.135, 4867
214.1375, 4729
214.14, 4636
214.1425, 4552
214.145, 4553
214.1475, 4517
214.15, 4425
214.1525, 4487
214.155, 4476
214.1575, 4477
214.16, 4483
214.1625, 4485
214.165, 4491
214.1675, 4419
214.17, 4502
214.1725, 4503
214.175, 4465
214.1775, 4423
214.18, 4444
214.1825, 4441
214.185, 4361
214.1875, 4408
214.19, 4393
214.1925, 4381
214.195, 4351
214.1975, 4365
214.2, 4359
214.2025, 4294
214.205, 4342
214.2075, 4329
214.21, 4334
214.2125, 4311
214.215, 4299
214.2175, 4312
214.22, 4232
214.2225, 4291
214.225, 4259
214.2275, 4269
214.23, 4234
214.2325, 4266
214.235, 4252
214.2375, 4180
214.24, 4240
214.2425, 4223
214.245, 4231
214.2475, 4233
214.25, 4228
214.2525, 4208
214.255, 4149
214.2575, 4223
214.26, 4207
214.2625, 4213
214.265, 4183
214.2675, 4188
214.27, 4206
214.2725, 4146
214.275, 4221
214.2775, 4204
214.28, 4203
214.2825, 4177
214.285, 4185
214.2875, 4181
214.29, 4119
214.2925, 4178
214.295, 4192
214.2975, 4184
214.3, 4160
214.3025, 4186
214.305, 4188
214.3075, 4101
214.31, 4143
214.3125, 4146
214.315, 4150
214.3175, 4149
214.32, 4179
214.3225, 4180
214.325, 4101
214.3275, 4159
214.33, 4152
214.3325, 4134
214.335, 4121
214.3375, 4156
214.34, 4171
214.3425, 4096
214.345, 4152
214.3475, 4147
214.35, 4145
214.3525, 4122
214.355, 4147
214.3575, 4128
214.36, 4056
214.3625, 4151
214.365, 4139
214.3675, 4155
214.37, 4152
214.3725, 4170
214.375, 4151
214.3775, 4101
214.38, 4157
214.3825, 4157
214.385, 4161
214.3875, 4170
214.39, 4158
214.3925, 4128
214.395, 4090
214.3975, 4150
214.4, 4132
214.4025, 4134
214.405, 4119
214.4075, 4158
214.41, 4138
214.4125, 4067
214.415, 4151
214.4175, 4151
214.42, 4173
214.4225, 4185
214.425, 4219
214.4275, 4203
214.43, 4152
214.4325, 4237
214.435, 4234
214.4375, 4220
214.44, 4210
214.4425, 4246
214.445, 4257
214.4475, 4191
214.45, 4278
214.4525, 4281
214.455, 4274
214.4575, 4262
214.46, 4287
214.4625, 4289
214.465, 4229
214.4675, 4298
214.47, 4282
214.4725, 4277
214.475, 4257
214.4775, 4275
214.48, 4278
214.4825, 4199
214.485, 4270
214.4875, 4260
214.49, 4282
214.4925, 4266
214.495, 4260
214.4975, 4253
214.5, 4182
214.5025, 4232
214.505, 4234
214.5075, 4244
214.51, 4224
214.5125, 4221
214.515, 4226
214.5175, 4172
214.52, 4230
214.5225, 4233
214.525, 4235
214.5275, 4220
214.53, 4221
214.5325, 4202
214.535, 4118
214.5375, 4188
214.54, 4200
214.5425, 4175
214.545, 4173
214.5475, 4193
214.55, 4183
214.5525, 4114
214.555, 4202
214.5575, 4196
214.56, 4217
214.5625, 4181
214.565, 4208
214.5675, 4198
214.57, 4141
214.5725, 4186
214.575, 4173
214.5775, 4182
214.58, 4173
214.5825, 4197
214.585, 4186
214.5875, 4114
214.59, 4167
214.5925, 4158
214.595, 4178
214.5975, 4160
214.6, 4193
214.6025, 4186
214.605, 4124
214.6075, 4190
214.61, 4191
214.6125, 4201
214.615, 4142
214.6175, 4164
214.62, 4156
214.6225, 4083
214.625, 4150
214.6275, 4158
214.63, 4131
214.6325, 4137
214.635, 4152
214.6375, 4162
214.64, 4101
214.6425, 4155
214.645, 4142
214.6475, 4156
214.65, 4135
214.6525, 4149
214.655, 4142
214.6575, 4098
214.66, 4180
214.6625, 4200
214.665, 4149
214.6675, 4173
214.67, 4181
214.6725, 4147
214.675, 4079
214.6775, 4176
214.68, 4180
214.6825, 4166
214.685, 4142
214.6875, 4168
214.69, 4134
214.6925, 4056
214.695, 4134
214.6975, 4149
214.7, 4161
214.7025, 4146
214.705, 4174
214.7075, 4158
214.71, 4092
214.7125, 4183
214.715, 4166
214.7175, 4156
214.72, 4131
214.7225, 4176
214.725, 4172
214.7275, 4112
214.73, 4172
214.7325, 4157
214.735, 4139
214.7375, 4152
214.74, 4173
214.7425, 4176
214.745, 4117
214.7475, 4189
214.75, 4180
214.7525, 4151
214.755, 4143
214.7575, 4159
214.76, 4146
214.7625, 4107
214.765, 4164
214.7675, 4167
214.77, 4149
214.7725, 4141
214.775, 4167
214.7775, 4150
214.78, 4071
214.7825, 4165
214.785, 4162
214.7875, 4163
214.79, 4154
214.7925, 4193
214.795, 4165
214.7975, 4096
214.8, 4134
214.8025, 4133
214.805, 4147
214.8075, 4143
214.81, 4158
214.8125, 4168
214.815, 4097
214.8175, 4151
214.82, 4144
214.8225, 4146
214.825, 4136
214.8275, 4150
214.83, 4153
214.8325, 4091
214.835, 4151
214.8375, 4154
214.84, 4142
214.8425, 4136
214.845, 4171
214.8475, 4175
214.85, 4104
214.8525, 4210
214.855, 4194
214.8575, 4197
214.86, 4190
214.8625, 4154
214.865, 4160
214.8675, 4097
214.87, 4170
214.8725, 4168
214.875, 4161
214.8775, 4170
214.88, 4193
214.8825, 4185
214.885, 4130
214.8875, 4206
214.89, 4174
214.8925, 4181
214.895, 4173
214.8975, 4184
214.9, 4177
214.9025, 4119
214.905, 4188
214.9075, 4177
214.91, 4186
214.9125, 4157
214.915, 4194
214.9175, 4188
214.92, 4126
214.9225, 4189
214.925, 4182
214.9275, 4196
214.93, 4173
214.9325, 4175
214.935, 4150
214.9375, 4112
214.94, 4162
214.9425, 4158
214.945, 4163
214.9475, 4163
214.95, 4179
214.9525, 4179
214.955, 4131
214.9575, 4179
214.96, 4188
214.9625, 4186
214.965, 4165
214.9675, 4200
214.97, 4208
214.9725, 4136
214.975, 4181
214.9775, 4187
214.98, 4168
214.9825, 4136
214.985, 4161
214.9875, 4164
214.99, 4103
214.9925, 4165
214.995, 4171
214.9975, 4178
215.0, 4173
215.0025, 4214
215.005, 4207
215.0075, 4127
215.01, 4186
215.0125, 4193
215.015, 4170
215.0175, 4090
215.02, 4185
215.0225, 4189
215.025, 4120
215.0275, 4206
215.03, 4212
215.0325, 4200
215.035, 4135
215.0375, 4128
215.04, 4122
215.0425, 4047
215.045, 4087
215.0475, 4104
215.05, 4123
215.0525, 4106
215.055, 4133
215.0575, 4139
215.06, 4083
215.0625, 4148
215.065, 4156
215.0675, 4162
215.07, 4159
215.0725, 4172
215.075, 4163
215.0775, 4086
215.08, 4158
215.0825, 4165
215.085, 4189
215.0875, 4118
215.09, 4205
215.0925, 4182
215.095, 4117
215.0975, 4184
215.1, 4192
215.1025, 4207
215.105, 4192
215.1075, 4192
215.11, 4187
215.1125, 4115
215.115, 4188
215.1175, 4207
215.12, 4204
215.1225, 4172
215.125, 4188
215.1275, 4174
215.13, 4124
215.1325, 4187
215.135, 4181
215.1375, 4226
215.14, 4283
215.1425, 4406
215.145, 4435
215.1475, 4392
215.15, 4456
215.1525, 4488
215.155, 4403
215.1575, 4231
215.16, 4034
215.1625, 3749
215.165, 3344
215.1675, 3056
215.17, 2631
215.1725, 2082
215.175, 1729
215.1775, 1639
215.18, 1723
215.1825, 2112
215.185, 2972
215.1875, 3880
215.19, 4557
215.1925, 4891
215.195, 4966
215.1975, 4846
215.2, 4662
215.2025, 4599
215.205, 4571
215.2075, 4529
215.21, 4489
215.2125, 4506
215.215, 4517
215.2175, 4455
215.22, 4531
215.2225, 4516
215.225, 4513
215.2275, 4509
215.23, 4513
215.2325, 4512
215.235, 4437
215.2375, 4486
215.24, 4483
215.2425, 4461
215.245, 4443
215.2475, 4409
215.25, 4406
215.2525, 4330
215.255, 4407
215.2575, 4392
215.26, 4377
215.2625, 4273
215.265, 4396
215.2675, 4362
215.27, 4292
215.2725, 4332
215.275, 4329
215.2775, 4322
215.28, 4327
215.2825, 4328
215.285, 4340
215.2875, 4246
215.29, 4304
215.2925, 4317
215.295, 4306
215.2975, 4272
215.3, 4319
215.3025, 4305
215.305, 4222
215.3075, 4280
215.31, 4296
215.3125, 4275
215.315, 4254
215.3175, 4268
215.32, 4262
215.3225, 4180
215.325, 4273
215.3275, 4258
215.33, 4228
215.3325, 4225
215.335, 4253
215.3375, 4247
215.34, 4186
215.3425, 4248
215.345, 4252
215.3475, 4220
215.35, 4192
215.3525, 4212
215.355, 4215
215.3575, 4164
215.36, 4223
215.3625, 4217
215.365, 4237
215.3675, 4216
215.37, 4238
215.3725, 4218
215.375, 4146
215.3775, 4204
215.38, 4221
215.3825, 4195
215.385, 4196
215.3875, 4214
215.39, 4230
215.3925, 4156
215.395, 4212
215.3975, 4199
215.4, 4205
215.4025, 4204
215.405, 4214
215.4075, 4188
215.41, 4129
215.4125, 4192
215.415, 4166
215.4175, 4176
215.42, 4149
215.4225, 4165
215.425, 4166
215.4275, 4109
215.43, 4176
215.4325, 4185
215.435, 4194
215.4375, 4174
215.44, 4196
215.4425, 4195
215.445, 4146
215.4475, 4206
215.45, 4161
215.4525, 4134
215.455, 4114
215.4575, 4112
215.46, 4130
215.4625, 4047
215.465, 4096
215.4675, 4091
215.47, 4115
215.4725, 4114
215.475, 4087
215.4775, 4074
215.48, 4035
215.4825, 4118
215.485, 4122
215.4875, 4103
215.49, 4120
215.4925, 4155
215.495, 4133
215.4975, 4091
215.5, 4153
215.5025, 4154
215.505, 4162
215.5075, 4137
215.51, 4181
215.5125, 4199
215.515, 4144
215.5175, 4199
215.52, 4215
215.5225, 4205
215.525, 4192
215.5275, 4214
215.53, 4217
215.5325, 4141
215.535, 4213
215.5375, 4196
215.54, 4190
215.5425, 4162
215.545, 4194
215.5475, 4196
215.55, 4129
215.5525, 4223
215.555, 4231
215.5575, 4217
215.56, 4193
215.5625, 4243
215.565, 4225
215.5675, 4148
215.57, 4200
215.5725, 4193
215.575, 4208
215.5775, 4208
215.58, 4209
215.5825, 4211
215.585, 4150
215.5875, 4213
215.59, 4194
215.5925, 4181
215.595, 4169
215.5975, 4175
215.6, 4179
215.6025, 4096
215.605, 4172
215.6075, 4193
215.61, 4172
215.6125, 4165
215.615, 4161
215.6175, 4157
215.62, 4113
215.6225, 4177
215.625, 4161
215.6275, 4157
215.63, 4155
215.6325, 4148
215.635, 4169
215.6375, 4113
215.64, 4157
215.6425, 4158
215.645, 4164
215.6475, 4124
215.65, 4152
215.6525, 4153
215.655, 4090
215.6575, 4161
215.66, 4175
215.6625, 4156
215.665, 4150
215.6675, 4165
215.67, 4128
215.6725, 4071
215.675, 4164
215.6775, 4178
215.68, 4126
215.6825, 4155
215.685, 4183
215.6875, 4181
215.69, 4109
215.6925, 4187
215.695, 4171
215.6975, 4159
215.7, 4152
215.7025, 4171
215.705, 4174
215.7075, 4109
215.71, 4151
215.7125, 4178
215.715, 4165
215.7175, 4152
215.72, 4171
215.7225, 4168
215.725, 4127
215.7275, 4174
215.73, 4174
215.7325, 4170
215.735, 4151
215.7375, 4158
215.74, 4170
215.7425, 4127
215.745, 4188
215.7475, 4194
215.75, 4169
215.7525, 4162
215.755, 4171
215.7575, 4175
215.76, 4126
215.7625, 4191
215.765, 4194
215.7675, 4179
215.77, 4160
215.7725, 4162
215.775, 4157
215.7775, 4104
215.78, 4181
215.7825, 4165
215.785, 4179
215.7875, 4142
215.79, 4166
215.7925, 4184
215.795, 4099
215.7975, 4164
215.8, 4149
215.8025, 4172
215.805, 4164
215.8075, 4174
215.81, 4143
215.8125, 4100
215.815, 4154
215.8175, 4152
215.82, 4148
215.8225, 4158
215.825, 4178
215.8275, 4170
215.83, 4130
215.8325, 4199
215.835, 4187
215.8375, 4178
215.84, 4159
215.8425, 4204
215.845, 4196
215.8475, 4125
215.85, 4187
215.8525, 4159
215.855, 4132
215.8575, 4128
215.86, 4143
215.8625, 4149
215.865, 4093
215.8675, 4159
215.87, 4157
215.8725, 4160
215.875, 4080
215.8775, 4167
215.88, 4156
215.8825, 4089
215.885, 4161
215.8875, 4151
215.89, 4143
215.8925, 4136
215.895, 4151
215.8975, 4152
215.9, 4101
215.9025, 4161
215.905, 4172
215.9075, 4144
215.91, 4123
215.9125, 4159
215.915, 4160
215.9175, 4099
215.92, 4142
215.9225, 4146
215.925, 4140
215.9275, 4154
215.93, 4184
215.9325, 4150
215.935, 4088
215.9375, 4153
215.94, 4174
215.9425, 4177
215.945, 4164
215.9475, 4174
215.95, 4163
215.9525, 4110
215.955, 4182
215.9575, 4163
215.96, 4157
215.9625, 4139
215.965, 4169
215.9675, 4161
215.97, 4103
215.9725, 4162
215.975, 4175
215.9775, 4154
215.98, 4157
215.9825, 4166
215.985, 4149
215.9875, 4099
215.99, 4163
215.9925, 4159
215.995, 4141
215.9975, 4155
216.0, 4169
216.0025, 4172
216.005, 4115
216.0075, 4190
216.01, 4183
216.0125, 4162
216.015, 4135
216.0175, 4189
216.02, 4174
216.0225, 4096
216.025, 4175
216.0275, 4156
216.03, 4148
216.0325, 4145
216.035, 4164
216.0375, 4161
216.04, 4111
216.0425, 4175
216.045, 4160
216.0475, 4161
216.05, 4140
216.0525, 4167
216.055, 4172
216.0575, 4104
216.06, 4146
216.0625, 4168
216.065, 4152
216.0675, 4148
216.07, 4164
216.0725, 4140
216.075, 4084
216.0775, 4153
216.08, 4170
216.0825, 4154
216.085, 4144
216.0875, 4161
216.09, 4157
216.0925, 4078
216.095, 4164
216.0975, 4155
216.1, 4163
216.1025, 4135
216.105, 4179
216.1075, 4178
216.11, 4118
216.1125, 4185
216.115, 4154
216.1175, 4171
216.12, 4140
216.1225, 4160
216.125, 4138
216.1275, 4089
216.13, 4140
216.1325, 4169
216.135, 4156
216.1375, 4136
216.14, 4171
216.1425, 4153
216.145, 4115
216.1475, 4182
216.15, 4188
216.1525, 4166
216.155, 4143
216.1575, 4161
216.16, 4162
216.1625, 4081
216.165, 4169
216.1675, 4165
216.17, 4181
216.1725, 4177
216.175, 4177
216.1775, 4147
216.18, 4071
216.1825, 4151
216.185, 4164
216.1875, 4151
216.19, 4136
216.1925, 4134
216.195, 4119
216.1975, 4079
216.2, 4159
216.2025, 4155
216.205, 4155
216.2075, 4142
216.21, 4176
216.2125, 4178
216.215, 4087
216.2175, 4154
216.22, 4126
216.2225, 4148
216.225, 4136
216.2275, 4146
216.23, 4160
216.2325, 4118
216.235, 4179
216.2375, 4181
216.24, 4166
216.2425, 4169
216.245, 4193
216.2475, 4164
216.25, 4125
216.2525, 4174
216.255, 4155
216.2575, 4151
216.26, 4162
216.2625, 4165
216.265, 4190
216.2675, 4126
216.27, 4156
216.2725, 4126
216.275, 4117
216.2775, 4086
216.28, 4125
216.2825, 4129
216.285, 4072
216.2875, 4153
216.29, 4154
216.2925, 4152
216.295, 4144
216.2975, 4161
216.3, 4182
216.3025, 4140
216.305, 4203
216.3075, 4188
216.31, 4186
216.3125, 4169
216.315, 4205
216.3175, 4199
216.32, 4119
216.3225, 4202
216.325, 4203
216.3275, 4194
216.33, 4165
216.3325, 4189
216.335, 4170
216.3375, 4112
216.34, 4194
216.3425, 4202
216.345, 4223
216.3475, 4199
216.35, 4203
216.3525, 4206
216.355, 4124
216.3575, 4176
216.36, 4187
216.3625, 4186
216.365, 4162
216.3675, 4194
216.37, 4190
216.3725, 4169
216.375, 4288
216.3775, 4358
216.38, 4396
216.3825, 4445
216.385, 4484
216.3875, 4468
216.39, 4293
216.3925, 4160
216.395, 3929
216.3975, 3618
216.4, 3318
216.4025, 2984
216.405, 2544
216.4075, 2025
216.41, 1872
216.4125, 1762
216.415, 1913
216.4175, 2308
216.42, 3205
216.4225, 4132
216.425, 4722
216.4275, 5031
216.43, 5043
216.4325, 4960
216.435, 4816
216.4375, 4681
216.44, 4592
216.4425, 4503
216.445, 4519
216.4475, 4482
216.45, 4462
216.4525, 4453
216.455, 4478
216.4575, 4466
216.46, 4401
216.4625, 4473
216.465, 4470
216.4675, 4470
216.47, 4431
216.4725, 4446
216.475, 4427
216.4775, 4320
216.48, 4397
216.4825, 4407
216.485, 4387
216.4875, 4382
216.49, 4391
216.4925, 4385
216.495, 4321
216.4975, 4376
216.5, 4368
216.5025, 4334
216.505, 4298
216.5075, 4314
216.51, 4323
216.5125, 4254
216.515, 4316
216.5175, 4305
216.52, 4289
216.5225, 4242
216.525, 4283
216.5275, 4276
216.53, 4228
216.5325, 4293
216.535, 4296
216.5375, 4282
216.54, 4268
216.5425, 4292
216.545, 4297
216.5475, 4209
216.55, 4248
216.5525, 4246
216.555, 4228
216.5575, 4167
216.56, 4237
216.5625, 4230
216.565, 4184
216.5675, 4249
216.57, 4226
216.5725, 4222
216.575, 4187
216.5775, 4206
216.58, 4230
216.5825, 4161
216.585, 4209
216.5875, 4206
216.59, 4194
216.5925, 4172
216.595, 4206
216.5975, 4194
216.6, 4158
216.6025, 4215
216.605, 4204
216.6075, 4196
216.61, 4191
216.6125, 4186
216.615, 4166
216.6175, 4120
216.62, 4187
216.6225, 4187
216.625, 4205
216.6275, 4186
216.63, 4212
216.6325, 4202
216.635, 4134
216.6375, 4194
216.64, 4200
216.6425, 4192
216.645, 4181
216.6475, 4192
216.65, 4176
216.6525, 4121
216.655, 4191
216.6575, 4207
216.66, 4199
216.6625, 4204
216.665, 4211
216.6675, 4201
216.67, 4145
216.6725, 4209
216.675, 4168
216.6775, 4168
216.68, 4161
216.6825, 4172
216.685, 4161
216.6875, 4123
216.69, 4191
216.6925, 4188
216.695, 4184
216.6975, 4151
216.7, 4143
216.7025, 4106
216.705, 4064
216.7075, 4141
216.71, 4157
216.7125, 4163
216.715, 4158
216.7175, 4179
216.72, 4158
216.7225, 4114
216.725, 4185
216.7275, 4160
216.73, 4181
216.7325, 4163
216.735, 4193
216.7375, 4212
216.74, 4171
216.7425, 4246
216.745, 4239
216.7475, 4262
216.75, 4243
216.7525, 4222
216.755, 4241
216.7575, 4162
216.76, 4231
216.7625, 4246
216.765, 4234
216.7675, 4208
216.77, 4254
216.7725, 4259
216.775, 4168
216.7775, 4234
216.78, 4229
216.7825, 4243
216.785, 4228
216.7875, 4264
216.79, 4256
216.7925, 4200
216.795, 4243
216.7975, 4251
216.8, 4219
216.8025, 4173
216.805, 4212
216.8075, 4216
216.81, 4159
216.8125, 4225
216.815, 4209
216.8175, 4220
216.82, 4193
216.8225, 4206
216.825, 4195
216.8275, 4130
216.83, 4196
216.8325, 4180
216.835, 4183
216.8375, 4163
216.84, 4191
216.8425, 4198
216.845, 4120
216.8475, 4213
216.85, 4208
216.8525, 4215
216.855, 4188
216.8575, 4217
216.86, 4211
216.8625, 4145
216.865, 4217
216.8675, 4197
216.87, 4206
216.8725, 4178
216.875, 4212
216.8775, 4229
216.88, 4178
216.8825, 4226
216.885, 4247
216.8875, 4242
216.89, 4214
216.8925, 4215
216.895, 4211
216.8975, 4150
216.9, 4221
216.9025, 4222
216.905, 4217
216.9075, 4203
216.91, 4228
216.9125, 4204
216.915, 4136
216.9175, 4170
216.92, 4183
216.9225, 4198
216.925, 4189
216.9275, 4220
216.93, 4215
216.9325, 4161
216.935, 4229
216.9375, 4209
216.94, 4212
216.9425, 4202
216.945, 4202
216.9475, 4200
216.95, 4148
216.9525, 4196
216.955, 4178
216.9575, 4181
216.96, 4190
216.9625, 4205
216.965, 4191
216.9675, 4141
216.97, 4182
216.9725, 4195
216.975, 4186
216.9775, 4169
216.98, 4210
216.9825, 4186
216.985, 4111
216.9875, 4166
216.99, 4189
216.9925, 4182
216.995, 4165
216.9975, 4181
217.0, 4178
217.0025, 4128
217.005, 4177
217.0075, 4157
217.01, 4172
217.0125, 4147
217.015, 4171
217.0175, 4161
217.02, 4110
217.0225, 4188
217.025, 4192
217.0275, 4182
217.03, 4152
217.0325, 4158
217.035, 4151
217.0375, 4089
217.04, 4163
217.0425, 4152
217.045, 4166
217.0475, 4148
217.05, 4160
217.0525, 4159
217.055, 4065
217.0575, 4127
217.06, 4132
217.0625, 4163
217.065, 4132
217.0675, 4165
217.07, 4158
217.0725, 4079
217.075, 4159
217.0775, 4136
217.08, 4140
217.0825, 4123
217.085, 4137
217.0875, 4122
217.09, 4078
217.0925, 4148
217.095, 4143
217.0975, 4113
217.1, 4124
217.1025, 4144
217.105, 4119
217.1075, 4048
217.11, 4118
217.1125, 4138
217.115, 4128
217.1175, 4033
217.12, 4135
217.1225, 4123
217.125, 4053
217.1275, 4123
217.13, 4113
217.1325, 4124
217.135, 4100
217.1375, 4137
217.14, 4123
217.1425, 4092
217.145, 4156
217.1475, 4145
217.15, 4151
217.1525, 4140
217.155, 4153
217.1575, 4140
217.16, 4116
217.1625, 4146
217.165, 4162
217.1675, 4167
217.17, 4121
217.1725, 4141
217.175, 4152
217.1775, 4087
217.18, 4143
217.1825, 4153
217.185, 4167
217.1875, 4154
217.19, 4177
217.1925, 4164
217.195, 4110
217.1975, 4157
217.2, 4159
217.2025, 4160
217.205, 4156
217.2075, 4136
217.21, 4136
217.2125, 4080
217.215, 4138
217.2175, 4131
217.22, 4150
217.2225, 4141
217.225, 4179
217.2275, 4157
217.23, 4106
217.2325, 4151
217.235, 4139
217.2375, 4150
217.24, 4149
217.2425, 4173
217.245, 4156
217.2475, 4124
217.25, 4173
217.2525, 4159
217.255, 4159
217.2575, 4145
217.26, 4174
217.2625, 4178
217.265, 4106
217.2675, 4169
217.27, 4178
217.2725, 4150
217.275, 4116
217.2775, 4157
217.28, 4178
217.2825, 4129
217.285, 4174
217.2875, 4171
217.29, 4163
217.2925, 4119
217.295, 4151
217.2975, 4151
217.3, 4093
217.3025, 4147
217.305, 4160
217.3075, 4169
217.31, 4154
217.3125, 4169
217.315, 4150
217.3175, 4077
217.32, 4142
217.3225, 4126
217.325, 4113
217.3275, 4106
217.33, 4102
217.3325, 4096
217.335, 4060
217.3375, 4128
217.34, 4141
217.3425, 4164
217.345, 4149
217.3475, 4184
217.35, 4162
217.3525, 4114
217.355, 4189
217.3575, 4197
217.36, 4191
217.3625, 4200
217.365, 4215
217.3675, 4209
217.37, 4152
217.3725, 4204
217.375, 4195
217.3775, 4182
217.38, 4189
217.3825, 4211
217.385, 4222
217.3875, 4164
217.39, 4180
217.3925, 4196
217.395, 4178
217.3975, 4147
217.4, 4185
217.4025, 4202
217.405, 4139
217.4075, 4185
217.41, 4172
217.4125, 4149
217.415, 4145
217.4175, 4150
217.42, 4177
217.4225, 4147
217.425, 4278
217.4275, 4363
217.43, 4418
217.4325, 4430
217.435, 4491
217.4375, 4507
217.44, 4360
217.4425, 4266
217.445, 4043
217.4475, 3770
217.45, 3437
217.4525, 3119
217.455, 2710
217.4575, 2139
217.46, 1820
217.4625, 1647
217.465, 1703
217.4675, 2043
217.47, 2827
217.4725, 3783
217.475, 4496
217.4775, 4926
217.48, 5008
217.4825, 4926
217.485, 4782
217.4875, 4691
217.49, 4607
217.4925, 4526
217.495, 4556
217.4975, 4515
217.5, 4512
217.5025, 4501
217.505, 4533
217.5075, 4531
217.51, 4469
217.5125, 4499
217.515, 4510
217.5175, 4513
217.52, 4473
217.5225, 4497
217.525, 4484
217.5275, 4388
217.53, 4438
217.5325, 4414
217.535, 4412
217.5375, 4395
217.54, 4418
217.5425, 4421
217.545, 4352
217.5475, 4414
217.55, 4387
217.5525, 4377
217.555, 4364
217.5575, 4389
217.56, 4347
217.5625, 4256
217.565, 4322
217.5675, 4316
217.57, 4306
217.5725, 4238
217.575, 4326
217.5775, 4318
217.58, 4236
217.5825, 4291
217.585, 4274
217.5875, 4265
217.59, 4248
217.5925, 4264
217.595, 4248
217.5975, 4203
217.6, 4247
217.6025, 4255
217.605, 4252
217.6075, 4235
217.61, 4243
217.6125, 4233
217.615, 4173
217.6175, 4223
217.62, 4221
217.6225, 4228
217.625, 4196
217.6275, 4231
217.63, 4219
217.6325, 4175
217.635, 4206
217.6375, 4198
217.64, 4203
217.6425, 4180
217.645, 4215
217.6475, 4187
217.65, 4134
217.6525, 4202
217.655, 4190
217.6575, 4206
217.66, 4192
217.6625, 4217
217.665, 4206
217.6675, 4139
217.67, 4209
217.6725, 4198
217.675, 4229
217.6775, 4183
217.68, 4194
217.6825, 4187
217.685, 4161
217.6875, 4201
217.69, 4200
217.6925, 4196
217.695, 4166
217.6975, 4189
217.7, 4202
217.7025, 4107
217.705, 4159
217.7075, 4160
217.71, 4157
217.7125, 4149
217.715, 4161
217.7175, 4166
217.72, 4102
217.7225, 4185
217.725, 4170
217.7275, 4159
217.73, 4133
217.7325, 4140
217.735, 4134
217.7375, 4077
217.74, 4141
217.7425, 4114
217.745, 4114
217.7475, 4098
217.75, 4096
217.7525, 4088
217.755, 4013
217.7575, 4085
217.76, 4086
217.7625, 4091
217.765, 4083
217.7675, 4093
217.77, 4100
217.7725, 4050
217.775, 4117
217.7775, 4091
217.78, 4115
217.7825, 4117
217.785, 4174
217.7875, 4181
217.79, 4126
217.7925, 4188
217.795, 4170
217.7975, 4198
217.8, 4192
217.8025, 4194
217.805, 4201
217.8075, 4148
217.81, 4194
217.8125, 4206
217.815, 4207
217.8175, 4219
217.82, 4244
217.8225, 4247
217.825, 4170
217.8275, 4240
217.83, 4215
217.8325, 4191
217.835, 4149
217.8375, 4211
217.84, 4215
217.8425, 4161
217.845, 4227
217.8475, 4229
217.85, 4247
217.8525, 4165
217.855, 4251
217.8575, 4224
217.86, 4181
217.8625, 4237
217.865, 4220
217.8675, 4223
217.87, 4192
217.8725, 4214
217.875, 4220
217.8775, 4125
217.88, 4201
217.8825, 4222
217.885, 4212
217.8875, 4196
217.89, 4214
217.8925, 4190
217.895, 4115
217.8975, 4205
217.9, 4201
217.9025, 4198
217.905, 4164
217.9075, 4197
217.91, 4199
217.9125, 4103
217.915, 4172
217.9175, 4187
217.92, 4178
217.9225, 4177
217.925, 4183
217.9275, 4182
217.93, 4134
217.9325, 4183
217.935, 4189
217.9375, 4161
217.94, 4157
217.9425, 4197
217.945, 4188
217.9475, 4129
217.95, 4174
217.9525, 4189
217.955, 4175
217.9575, 4144
217.96, 4181
217.9625, 4180
217.965, 4128
217.9675, 4179
217.97, 4186
217.9725, 4189
217.975, 4168
217.9775, 4177
217.98, 4165
217.9825, 4071
217.985, 4154
217.9875, 4141
217.99, 4144
217.9925, 4121
217.995, 4157
217.9975, 4166
218.0, 4123
218.0025, 4163
218.005, 4163
218.0075, 4173
218.01, 4172
218.0125, 4163
218.015, 4162
218.0175, 4088
218.02, 4161
218.0225, 4169
218.025, 4148
218.0275, 4137
218.03, 4181
218.0325, 4188
218.035, 4127
218.0375, 4219
218.04, 4192
218.0425, 4152
218.045, 4129
218.0475, 4140
218.05, 4132
218.0525, 4098
218.055, 4173
218.0575, 4169
218.06, 4175
218.0625, 4161
218.065, 4177
218.0675, 4167
218.07, 4108
218.0725, 4177
218.075, 4159
218.0775, 4166
218.08, 4183
218.0825, 4200
218.085, 4183
218.0875, 4118
218.09, 4171
218.0925, 4190
218.095, 4177
218.0975, 4179
218.1, 4207
218.1025, 4189
218.105, 4129
218.1075, 4169
218.11, 4161
218.1125, 4148
218.115, 4149
218.1175, 4178
218.12, 4170
218.1225, 4145
218.125, 4205
218.1275, 4190
218.13, 4180
218.1325, 4139
218.135, 4169
218.1375, 4159
218.14, 4109
218.1425, 4165
218.145, 4156
218.1475, 4137
218.15, 4114
218.1525, 4142
218.155, 4119
218.1575, 4077
218.16, 4141
218.1625, 4158
218.165, 4147
218.1675, 4131
218.17, 4162
218.1725, 4145
218.175, 4088
218.1775, 4147
218.18, 4143
218.1825, 4154
218.185, 4160
218.1875, 4163
218.19, 4172
218.1925, 4115
218.195, 4161
218.1975, 4162
218.2, 4154
218.2025, 4125
218.205, 4180
218.2075, 4170
218.21, 4120
218.2125, 4171
218.215, 4157
218.2175, 4152
218.22, 4112
218.2225, 4144
218.225, 4143
218.2275, 4074
218.23, 4130
218.2325, 4131
218.235, 4136
218.2375, 4144
218.24, 4174
218.2425, 4157
218.245, 4118
218.2475, 4178
218.25, 4171
218.2525, 4165
218.255, 4082
218.2575, 4179
218.26, 4179
218.2625, 4138
218.265, 4165
218.2675, 4171
218.27, 4172
218.2725, 4140
218.275, 4187
218.2775, 4182
218.28, 4126
218.2825, 4203
218.285, 4184
218.2875, 4174
218.29, 4160
218.2925, 4180
218.295, 4176
218.2975, 4111
218.3, 4167
218.3025, 4167
218.305, 4165
218.3075, 4153
218.31, 4174
218.3125, 4165
218.315, 4114
218.3175, 4158
218.32, 4148
218.3225, 4177
218.325, 4143
218.3275, 4168
218.33, 4160
218.3325, 4096
218.335, 4158
218.3375, 4155
218.34, 4158
218.3425, 4141
218.345, 4177
218.3475, 4163
218.35, 4129
218.3525, 4194
218.355, 4178
218.3575, 4185
218.36, 4167
218.3625, 4192
218.365, 4166
218.3675, 4106
218.37, 4190
218.3725, 4169
218.375, 4184
218.3775, 4166
218.38, 4190
218.3825, 4195
218.385, 4115
218.3875, 4164
218.39, 4164
218.3925, 4165
218.395, 4095
218.3975, 4193
218.4, 4160
218.4025, 4113
218.405, 4152
218.4075, 4176
218.41, 4175
218.4125, 4167
218.415, 4179
218.4175, 4181
218.42, 4118
218.4225, 4174
218.425, 4159
218.4275, 4141
218.43, 4120
218.4325, 4165
218.435, 4158
218.4375, 4082
218.44, 4149
218.4425, 4152
218.445, 4173
218.4475, 4126
218.45, 4140
218.4525, 4113
218.455, 4077
218.4575, 4146
218.46, 4145
218.4625, 4155
218.465, 4083
218.4675, 4183
218.47, 4158
218.4725, 4098
218.475, 4163
218.4775, 4165
218.48, 4160
218.4825, 4128
218.485, 4145
218.4875, 4154
218.49, 4088
218.4925, 4164
218.495, 4136
218.4975, 4141
218.5, 4146
218.5025, 4180
218.505, 4184
218.5075, 4113
218.51, 4178
218.5125, 4166
218.515, 4154
218.5175, 4163
218.52, 4179
218.5225, 4183
218.525, 4118
218.5275, 4177
218.53, 4143
218.5325, 4129
218.535, 4101
218.5375, 4077
218.54, 4052
218.5425, 4009
218.545, 4094
218.5475, 4118
218.55, 4127
218.5525, 4125
218.555, 4132
218.5575, 4126
218.56, 4049
218.5625, 4129
218.565, 4133
218.5675, 4141
218.57, 4145
218.5725, 4167
218.575, 4152
218.5775, 4081
218.58, 4136
218.5825, 4141
218.585, 4150
218.5875, 4109
218.59, 4142
218.5925, 4154
218.595, 4102
218.5975, 4158
218.6, 4157
218.6025, 4135
218.605, 4150
218.6075, 4182
218.61, 4170
218.6125, 4103
218.615, 4151
218.6175, 4167
218.62, 4158
218.6225, 4164
218.625, 4193
218.6275, 4183
218.63, 4137
218.6325, 4243
218.635, 4349
218.6375, 4380
218.64, 4393
218.6425, 4471
218.645, 4492
218.6475, 4373
218.65, 4291
218.6525, 4106
218.655, 3883
218.6575, 3556
218.66, 3285
218.6625, 2888
218.665, 2386
218.6675, 2035
218.67, 1809
218.6725, 1824
218.675, 2006
218.6775, 2580
218.68, 3427
218.6825, 4192
218.685, 4748
218.6875, 4953
218.69, 4935
218.6925, 4811
218.695, 4690
218.6975, 4584
218.7, 4496
218.7025, 4549
218.705, 4514
218.7075, 4502
218.71, 4486
218.7125, 4492
218.715, 4507
218.7175, 4444
218.72, 4531
218.7225, 4507
218.725, 4494
218.7275, 4477
218.73, 4471
218.7325, 4474
218.735, 4415
218.7375, 4435
218.74, 4429
218.7425, 4420
218.745, 4384
218.7475, 4416
218.75, 4373
218.7525, 4328
218.755, 4375
218.7575, 4374
218.76, 4386
218.7625, 4354
218.765, 4380
218.7675, 4344
218.77, 4285
218.7725, 4342
218.775, 4332
218.7775, 4324
218.78, 4296
218.7825, 4318
218.785, 4322
218.7875, 4245
218.79, 4296
218.7925, 4283
218.795, 4269
218.7975, 4246
218.8, 4264
218.8025, 4244
218.805, 4206
218.8075, 4262
218.81, 4266
218.8125, 4247
218.815, 4221
218.8175, 4264
218.82, 4236
218.8225, 4183
218.825, 4251
218.8275, 4220
218.83, 4217
218.8325, 4206
218.835, 4226
218.8375, 4214
218.84, 4150
218.8425, 4210
218.845, 4206
218.8475, 4206
218.85, 4167
218.8525, 4188
218.855, 4174
218.8575, 4126
218.86, 4184
218.8625, 4193
218.865, 4186
218.8675, 4167
218.87, 4200
218.8725, 4197
218.875, 4143
218.8775, 4194
218.88, 4211
218.8825, 4178
218.885, 4173
218.8875, 4183
218.89, 4188
218.8925, 4128
218.895, 4184
218.8975, 4192
218.9, 4188
218.9025, 4190
218.905, 4189
218.9075, 4156
218.91, 4100
218.9125, 4175
218.915, 4159
218.9175, 4136
218.92, 4134
218.9225, 4168
218.925, 4153
218.9275, 4082
218.93, 4166
218.9325, 4161
218.935, 4158
218.9375, 4140
218.94, 4154
218.9425, 4139
218.945, 4084
218.9475, 4138
218.95, 4137
218.9525, 4129
218.955, 4101
218.9575, 4115
218.96, 4105
218.9625, 4073
218.965, 4138
218.9675, 4132
218.97, 4119
218.9725, 4058
218.975, 4137
218.9775, 4124
218.98, 4065
218.9825, 4139
218.985, 4134
218.9875, 4157
218.99, 4143
218.9925, 4164
218.995, 4178
218.9975, 4124
219.0, 4202
219.0025, 4180
219.005, 4178
219.0075, 4181
219.01, 4188
219.0125, 4191
219.015, 4154
219.0175, 4207
219.02, 4178
219.0225, 4183
219.025, 4185
219.0275, 4234
219.03, 4198
219.0325, 4150
219.035, 4208
219.0375, 4216
219.04, 4220
219.0425, 4159
219.045, 4230
219.0475, 4221
219.05, 4165
219.0525, 4218
219.055, 4225
219.0575, 4224
219.06, 4203
219.0625, 4243
219.065, 4229
219.0675, 4137
219.07, 4206
219.0725, 4231
219.075, 4243
219.0775, 4170
219.08, 4238
219.0825, 4225
219.085, 4154
219.0875, 4182
219.09, 4193
219.0925, 4202
219.095, 4172
219.0975, 4197
219.1, 4216
219.1025, 4143
219.105, 4209
219.1075, 4220
219.11, 4206
219.1125, 4189
219.115, 4183
219.1175, 4160
219.12, 4097
219.1225, 4169
219.125, 4166
219.1275, 4164
219.13, 4159
219.1325, 4183
219.135, 4170
219.1375, 4126
219.14, 4187
219.1425, 4172
219.145, 4144
219.1475, 4151
219.15, 4193
219.1525, 4181
219.155, 4117
219.1575, 4177
219.16, 4191
219.1625, 4180
219.165, 4173
219.1675, 4201
219.17, 4196
219.1725, 4136
219.175, 4168
219.1775, 4189
219.18, 4193
219.1825, 4184
219.185, 4210
219.1875, 4195
219.19, 4122
219.1925, 4201
219.195, 4185
219.1975, 4185
219.2, 4151
219.2025, 4180
219.205, 4176
219.2075, 4130
219.21, 4167
219.2125, 4161
219.215, 4141
219.2175, 4146
219.22, 4160
219.2225, 4157
219.225, 4116
219.2275, 4162
219.23, 4148
219.2325, 4123
219.235, 4123
219.2375, 4136
219.24, 4141
219.2425, 4080
219.245, 4149
219.2475, 4148
219.25, 4154
219.2525, 4136
219.255, 4159
219.2575, 4159
219.26, 4104
219.2625, 4190
219.265, 4176
219.2675, 4160
219.27, 4167
219.2725, 4198
219.275, 4181
219.2775, 4127
219.28, 4179
219.2825, 4193
219.285, 4186
219.2875, 4172
219.29, 4187
219.2925, 4178
219.295, 4116
219.2975, 4170
219.3, 4166
219.3025, 4149
219.305, 4130
219.3075, 4184
219.31, 4190
219.3125, 4121
219.315, 4179
219.3175, 4201
219.32, 4189
219.3225, 4177
219.325, 4189
219.3275, 4194
219.33, 4124
219.3325, 4178
219.335, 4184
219.3375, 4195
219.34, 4173
219.3425, 4179
219.345, 4208
219.3475, 4144
219.35, 4198
219.3525, 4174
219.355, 4186
219.3575, 4166
219.36, 4185
219.3625, 4183
219.365, 4102
219.3675, 4179
219.37, 4181
219.3725, 4181
219.375, 4197
219.3775, 4208
219.38, 4217
219.3825, 4140
219.385, 4197
219.3875, 4177
219.39, 4171
219.3925, 4168
219.395, 4197
219.3975, 4183
219.4, 4139
219.4025, 4167
219.405, 4165
219.4075, 4181
219.41, 4163
219.4125, 4167
219.415, 4137
219.4175, 4080
219.42, 4164
219.4225, 4179
219.425, 4184
219.4275, 4184
219.43, 4195
219.4325, 4183
219.435, 4125
219.4375, 4182
219.44, 4181
219.4425, 4183
219.445, 4184
219.4475, 4190
219.45, 4172
219.4525, 4116
219.455, 4192
219.4575, 4205
219.46, 4183
219.4625, 4182
219.465, 4177
219.4675, 4192
219.47, 4116
219.4725, 4178
219.475, 4189
219.4775, 4163
219.48, 4133
219.4825, 4173
219.485, 4179
219.4875, 4094
219.49, 4168
219.4925, 4152
219.495, 4171
219.4975, 4162
219.5, 4188
219.5025, 4194
219.505, 4142
219.5075, 4184
219.51, 4186
219.5125, 4182
219.515, 4164
219.5175, 4161
219.52, 4175
219.5225, 4116
219.525, 4151
219.5275, 4147
219.53, 4168
219.5325, 4154
219.535, 4176
219.5375, 4179
219.54, 4117
219.5425, 4162
219.545, 4145
219.5475, 4160
219.55, 4140
219.5525, 4185
219.555, 4174
219.5575, 4116
219.56, 4186
219.5625, 4185
219.565, 4179
219.5675, 4152
219.57, 4166
219.5725, 4172
219.575, 4111
219.5775, 4166
219.58, 4163
219.5825, 4180
219.585, 4153
219.5875, 4184
219.59, 4184
219.5925, 4132
219.595, 4196
219.5975, 4156
219.6, 4134
219.6025, 4116
219.605, 4091
219.6075, 4098
219.61, 4044
219.6125, 4106
219.615, 4123
219.6175, 4126
219.62, 4127
219.6225, 4170
219.625, 4147
219.6275, 4084
219.63, 4166
219.6325, 4167
219.635, 4167
219.6375, 4157
219.64, 4181
219.6425, 4183
219.645, 4147
219.6475, 4190
219.65, 4198
219.6525, 4182
219.655, 4174
219.6575, 4207
219.66, 4195
219.6625, 4129
219.665, 4175
219.6675, 4188
219.67, 4192
219.6725, 4155
219.675, 4186
219.6775, 4177
219.68, 4135
219.6825, 4196
219.685, 4182
219.6875, 4193
219.69, 4174
219.6925, 4163
219.695, 4149
219.6975, 4123
219.7, 4206
219.7025, 4260
219.705, 4323
219.7075, 4381
219.71, 4410
219.7125, 4431
219.715, 4412
219.7175, 4465
219.72, 4336
219.7225, 4116
219.725, 3892
219.7275, 3624
219.73, 3325
219.7325, 2888
219.735, 2504
219.7375, 2026
219.74, 1786
219.7425, 1733
219.745, 1904
219.7475, 2354
219.75, 3170
219.7525, 4208
219.755, 4790
219.7575, 5022
219.76, 5002
219.7625, 4901
219.765, 4726
219.7675, 4580
219.77, 4563
219.7725, 4548
219.775, 4510
219.7775, 4479
219.78, 4474
219.7825, 4497
219.785, 4456
219.7875, 4526
219.79, 4527
219.7925, 4512
219.795, 4381
219.7975, 4515
219.8, 4481
219.8025, 4400
219.805, 4435
219.8075, 4440
219.81, 4401
219.8125, 4389
219.815, 4419
219.8175, 4408
219.82, 4335
219.8225, 4381
219.825, 4380
219.8275, 4373
219.83, 4337
219.8325, 4367
219.835, 4362
219.8375, 4305
219.84, 4369
219.8425, 4344
219.845, 4338
219.8475, 4313
219.85, 4299
219.8525, 4303
219.855, 4241
219.8575, 4289
219.86, 4273
219.8625, 4272
219.865, 4268
219.8675, 4273
219.87, 4275
219.8725, 4212
219.875, 4271
219.8775, 4271
219.88, 4268
219.8825, 4253
219.885, 4274
219.8875, 4268
219.89, 4218
219.8925, 4261
219.895, 4263
219.8975, 4246
219.9, 4215
219.9025, 4210
219.905, 4201
219.9075, 4151
219.91, 4193
219.9125, 4197
219.915, 4212
219.9175, 4178
219.92, 4191
219.9225, 4200
219.925, 4137
219.9275, 4213
219.93, 4213
219.9325, 4221
219.935, 4166
219.9375, 4197
219.94, 4187
219.9425, 4153
219.945, 4211
219.9475, 4233
219.95, 4218
219.9525, 4191
219.955, 4235
219.9575, 4221
219.96, 4173
219.9625, 4212
219.965, 4207
219.9675, 4198
219.97, 4170
219.9725, 4183
219.975, 4185
219.9775, 4140
219.98, 4206
219.9825, 4209
219.985, 4186
219.9875, 4187
219.99, 4246
219.9925, 4205
219.995, 4153
219.9975, 4204
220.0, 4201
220.0025, 4177
220.005, 4134
220.0075, 4202
220.01, 4178
220.0125, 4126
220.015, 4181
220.0175, 4172
220.02, 4146
220.0225, 4151
220.025, 4154
220.0275, 4141
220.03, 4091
220.0325, 4132
220.035, 4167
220.0375, 4170
220.04, 4136
220.0425, 4128
220.045, 4158
220.0475, 4084
220.05, 4164
220.0525, 4151
220.055, 4165
220.0575, 4167
220.06, 4185
220.0625, 4181
220.065, 4123
220.0675, 4185
220.07, 4201
220.0725, 4207
220.075, 4184
220.0775, 4206
220.08, 4222
220.0825, 4171
220.085, 4250
220.0875, 4249
220.09, 4231
220.0925, 4220
220.095, 4252
220.0975, 4235
220.1, 4169
220.1025, 4220
220.105, 4235
220.1075, 4222
220.11, 4214
220.1125, 4239
220.115, 4255
220.1175, 4198
220.12, 4255
220.1225, 4266
220.125, 4249
220.1275, 4236
220.13, 4250
220.1325, 4223
220.135, 4161
220.1375, 4213
220.14, 4222
220.1425, 4219
220.145, 4209
220.1475, 4216
220.15, 4209
220.1525, 4139
220.155, 4199
220.1575, 4182
220.16, 4186
220.1625, 4184
220.165, 4191
220.1675, 4169
220.17, 4119
220.1725, 4181
220.175, 4186
220.1775, 4183
220.18, 4176
220.1825, 4193
220.185, 4197
220.1875, 4121
220.19, 4197
220.1925, 4216
220.195, 4195
220.1975, 4125
220.2, 4214
220.2025, 4182
220.205, 4161
220.2075, 4206
220.21, 4176
220.2125, 4164
220.215, 4156
220.2175, 4166
220.22, 4166
220.2225, 4119
220.225, 4173
220.2275, 4167
220.23, 4166
220.2325, 4158
220.235, 4176
220.2375, 4163
220.24, 4120
220.2425, 4156
220.245, 4150
220.2475, 4125
220.25, 4114
220.2525, 4162
220.255, 4163
220.2575, 4111
220.26, 4159
220.2625, 4158
220.265, 4157
220.2675, 4145
220.27, 4184
220.2725, 4181
220.275, 4126
220.2775, 4168
220.28, 4199
220.2825, 4174
220.285, 4161
220.2875, 4153
220.29, 4148
220.2925, 4107
220.295, 4176
220.2975, 4159
220.3, 4162
220.3025, 4132
220.305, 4161
220.3075, 4152
220.31, 4080
220.3125, 4147
220.315, 4155
220.3175, 4151
220.32, 4139
220.3225, 4159
220.325, 4178
220.3275, 4117
220.33, 4170
220.3325, 4175
220.335, 4186
220.3375, 4150
220.34, 4146
220.3425, 4148
220.345, 4097
220.3475, 4144
220.35, 4154
220.3525, 4152
220.355, 4142
220.3575, 4172
220.36, 4169
220.3625, 4118
220.365, 4151
220.3675, 4184
220.37, 4173
220.3725, 4163
220.375, 4186
220.3775, 4165
220.38, 4095
220.3825, 4190
220.385, 4176
220.3875, 4181
220.39, 4169
220.3925, 4173
220.395, 4160
220.3975, 4113
220.4, 4150
220.4025, 4154
220.405, 4161
220.4075, 4161
220.41, 4178
220.4125, 4179
220.415, 4114
220.4175, 4173
220.42, 4173
220.4225, 4182
220.425, 4101
220.4275, 4180
220.43, 4161
220.4325, 4107
220.435, 4169
220.4375, 4184
220.44, 4175
220.4425, 4160
220.445, 4171
220.4475, 4169
220.45, 4104
220.4525, 4174
220.455, 4160
220.4575, 4146
220.46, 4158
220.4625, 4166
220.465, 4174
220.4675, 4094
220.47, 4157
220.4725, 4152
220.475, 4135
220.4775, 4112
220.48, 4155
220.4825, 4167
220.485, 4117
220.4875, 4178
220.49, 4174
220.4925, 4172
220.495, 4115
220.4975, 4177
220.5, 4168
220.5025, 4131
220.505, 4202
220.5075, 4173
220.51, 4160
220.5125, 4142
220.515, 4159
220.5175, 4144
220.52, 4101
220.5225, 4173
220.525, 4184
220.5275, 4164
220.53, 4154
220.5325, 4194
220.535, 4183
220.5375, 4126
220.54, 4155
220.5425, 4163
220.545, 4148
220.5475, 4113
220.55, 4159
220.5525, 4165
220.555, 4103
220.5575, 4168
220.56, 4165
220.5625, 4140
220.565, 4130
220.5675, 4158
220.57, 4143
220.5725, 4081
220.575, 4157
220.5775, 4166
220.58, 4171
220.5825, 4174
220.585, 4165
220.5875, 4137
220.59, 4086
220.5925, 4164
220.595, 4168
220.5975, 4150
220.6, 4151
220.6025, 4182
220.605, 4171
220.6075, 4124
220.61, 4159
220.6125, 4157
220.615, 4147
220.6175, 4144
220.62, 4171
220.6225, 4159
220.625, 4087
220.6275, 4159
220.63, 4175
220.6325, 4128
220.635, 4124
220.6375, 4166
220.64, 4148
220.6425, 4091
220.645, 4158
220.6475, 4157
220.65, 4139
220.6525, 4124
220.655, 4146
220.6575, 4125
220.66, 4065
220.6625, 4134
220.665, 4139
220.6675, 4136
220.67, 4123
220.6725, 4152
220.675, 4131
220.6775, 4082
220.68, 4174
220.6825, 4151
220.685, 4161
220.6875, 4161
220.69, 4182
220.6925, 4188
220.695, 4115
220.6975, 4192
220.7, 4201
220.7025, 4191
220.705, 4170
220.7075, 4193
220.71, 4171
220.7125, 4111
220.715, 4186
220.7175, 4184
220.72, 4185
220.7225, 4174
220.725, 4203
220.7275, 4197
220.73, 4118
220.7325, 4185
220.735, 4188
220.7375, 4180
220.74, 4177
220.7425, 4194
220.745, 4195
220.7475, 4122
220.75, 4166
220.7525, 4170
220.755, 4163
220.7575, 4157
220.76, 4163
220.7625, 4180
220.765, 4122
220.7675, 4192
220.77, 4186
220.7725, 4175
220.775, 4158
220.7775, 4176
220.78, 4187
220.7825, 4091
220.785, 4127
220.7875, 4109
220.79, 4093
220.7925, 4052
220.795, 4074
220.7975, 4065
220.8, 4038
220.8025, 4105
220.805, 4077
220.8075, 4119
220.81, 4100
220.8125, 4128
220.815, 4117
220.8175, 4074
220.82, 4156
220.8225, 4158
220.825, 4168
220.8275, 4160
220.83, 4169
220.8325, 4152
220.835, 4103
220.8375, 4181
220.84, 4175
220.8425, 4154
220.845, 4131
220.8475, 4163
220.85, 4154
220.8525, 4093
220.855, 4195
220.8575, 4191
220.86, 4174
220.8625, 4155
220.865, 4182
220.8675, 4159
220.87, 4089
220.8725, 4159
220.875, 4167
220.8775, 4163
220.88, 4123
220.8825, 4172
220.885, 4180
220.8875, 4189
220.89, 4328
220.8925, 4377
220.895, 4397
220.8975, 4438
220.9, 4477
220.9025, 4446
220.905, 4263
220.9075, 4159
220.91, 3957
220.9125, 3627
220.915, 3298
220.9175, 2959
220.92, 2514
220.9225, 1994
220.925, 1776
220.9275, 1826
220.93, 1963
220.9325, 2513
220.935, 3363
220.9375, 4184
220.94, 4655
220.9425, 4928
220.945, 4923
220.9475, 4776
220.95, 4609
220.9525, 4555
220.955, 4524
220.9575, 4456
220.96, 4484
220.9625, 4502
220.965, 4493
220.9675, 4489
220.97, 4523
220.9725, 4533
220.975, 4464
220.9775, 4506
220.98, 4501
220.9825, 4490
220.985, 4463
220.9875, 4472
220.99, 4461
220.9925, 4419
220.995, 4477
220.9975, 4446
221.0, 4427
221.0025, 4396
221.005, 4413
221.0075, 4415
221.01, 4329
221.0125, 4373
221.015, 4367
221.0175, 4372
221.02, 4355
221.0225, 4361
221.025, 4343
221.0275, 4265
221.03, 4330
221.0325, 4339
221.035, 4338
221.0375, 4298
221.04, 4325
221.0425, 4330
221.045, 4269
221.0475, 4319
221.05, 4304
221.0525, 4298
221.055, 4259
221.0575, 4270
221.06, 4264
221.0625, 4212
221.065, 4245
221.0675, 4244
221.07, 4232
221.0725, 4233
221.075, 4245
221.0775, 4237
221.08, 4193
221.0825, 4250
221.085, 4239
221.0875, 4228
221.09, 4218
221.0925, 4217
221.095, 4225
221.0975, 4190
221.1, 4237
221.1025, 4234
221.105, 4207
221.1075, 4178
221.11, 4197
221.1125, 4185
221.115, 4148
221.1175, 4223
221.12, 4211
221.1225, 4184
221.125, 4102
221.1275, 4221
221.13, 4209
221.1325, 4149
221.135, 4185
221.1375, 4193
221.14, 4176
221.1425, 4175
221.145, 4205
221.1475, 4210
221.15, 4133
221.1525, 4202
221.155, 4211
221.1575, 4209
221.16, 4169
221.1625, 4185
221.165, 4191
221.1675, 4135
221.17, 4189
221.1725, 4199
221.175, 4193
221.1775, 4156
221.18, 4189
221.1825, 4173
221.185, 4124
221.1875, 4172
221.19, 4183
221.1925, 4180
221.195, 4141
221.1975, 4172
221.2, 4166
221.2025, 4093
221.205, 4159
221.2075, 4144
221.21, 4140
221.2125, 4060
221.215, 4128
221.2175, 4122
221.22, 4065
221.2225, 4136
221.225, 4143
221.2275, 4130
221.23, 4109
221.2325, 4142
221.235, 4141
221.2375, 4047
221.24, 4108
221.2425, 4134
221.245, 4144
221.2475, 4144
221.25, 4174
221.2525, 4183
221.255, 4138
221.2575, 4197
221.26, 4189
