750.499999999,1000,4064,14176,732,248,-30
750.509999999,1000,4080,13964,546,341,-9
750.519999999,1052,4072,13988,500,394,-43
750.529999999,1028,3984,13788,504,449,-48
750.539999999,1132,3860,13924,451,447,-66
750.549999999,1024,4024,13780,650,384,-57
750.559999999,1132,4152,13844,680,359,-38
750.569999999,1076,4072,14132,687,339,-74
750.579999999,1208,4104,14104,509,315,-40
750.589999999,1116,4072,13992,473,341,-45
750.599999999,1024,4044,14232,400,371,-8
750.609999999,1096,4120,13996,320,395,-25
750.619999999,1016,4172,13956,215,330,-15
750.629999999,988,4060,14012,188,273,-3
750.639999999,1036,4036,13904,135,299,-20
750.649999999,968,4120,13932,146,274,-2
750.659999999,1036,4208,13844,160,304,-18
750.669999999,1004,4128,13856,212,317,-17
750.679999999,1032,4072,13824,256,359,-35
750.689999999,944,4220,13868,289,398,-21
750.699999999,1044,4216,13984,389,457,-39
750.709999999,900,4268,14000,384,441,-45
750.719999999,1080,4312,14176,316,391,-81
750.729999999,908,4260,14092,542,709,-88
750.739999999,896,4284,13492,-114,223,33
750.749999999,1004,4060,13884,-186,333,8
750.759999999,1004,4252,13952,358,471,-85
750.769999999,944,4280,13924,327,290,-51
750.779999999,1000,4208,13732,238,277,-16
750.789999999,1088,4300,13928,36,306,0
750.799999999,964,4272,13916,50,278,12
750.809999999,952,4336,13944,133,195,-14
750.819999999,992,4280,13936,111,212,5
750.829999999,924,4332,13864,127,260,-5
750.839999999,988,4296,13928,191,235,-2
750.849999999,876,4356,14072,184,217,9
750.859999999,920,4336,13880,105,227,23
750.869999999,956,4276,13756,53,243,-7
750.879999999,1092,4200,13956,104,284,4
750.889999999,940,4308,13980,186,319,-12
750.899999999,916,4360,13800,67,259,-12
750.909999999,1088,4348,13820,-3,232,-6
750.919999999,1028,4360,13900,14,278,8
750.929999999,960,4260,13880,10,272,-18
750.939999999,900,4424,13796,17,284,-5
750.949999999,984,4308,13832,-14,254,0
750.959999999,908,4296,13780,-70,305,-16
750.969999999,1064,4324,13784,-124,262,1
750.979999999,980,4444,13800,-33,301,-11
750.989999999,980,4408,13796,-61,294,-9
750.999999999,888,4340,13736,-101,266,20
751.009999999,948,4324,13896,-72,223,8
751.019999999,864,4344,13976,-94,261,13
751.029999999,976,4340,13848,-79,250,5
751.039999999,1032,4364,13840,-119,249,15
751.049999999,1116,4404,13784,-153,252,22
751.059999999,1000,4424,13868,-196,219,27
751.069999999,996,4452,13892,-191,241,20
751.079999999,936,4276,13752,-150,254,16
751.089999999,1048,4356,13944,-166,255,2
751.099999999,980,4404,13788,-142,242,7
751.109999999,940,4392,13836,-155,275,-23
751.119999999,1032,4296,13836,-141,236,2
751.129999999,912,4348,13852,-139,237,-18
751.139999999,964,4400,13816,-162,232,-9
751.149999999,808,4260,13864,-178,236,14
751.159999999,892,4388,13896,-167,206,13
751.169999999,940,4312,13932,-182,249,5
751.179999999,876,4356,13828,-183,247,4
751.189999999,920,4456,13852,-202,232,9
751.199999999,900,4312,13804,-214,243,5
751.209999999,944,4292,13884,-203,250,8
751.219999999,1032,4272,13812,-183,257,13
751.229999999,920,4388,13868,-268,240,9
751.239999999,900,4388,13824,-435,251,47
751.249999999,868,4284,13916,-352,277,48
751.259999999,972,4340,13824,-429,238,48
751.269999999,928,4324,13996,-475,290,53
751.279999999,1000,4228,14068,-480,222,29
751.289999999,912,4252,13912,-548,194,63
751.299999999,952,4224,13900,-741,143,101
751.309999999,876,4176,13932,-797,59,88
751.319999999,996,4192,13716,-761,106,141
751.329999999,928,4196,13968,-550,192,59
751.339999999,992,4156,14092,-325,399,25
751.349999999,964,4232,13988,-433,209,24
751.359999999,836,4284,13932,-599,127,42
751.369999999,804,4124,13824,-312,-423,111
751.379999999,1040,4276,14060,-148,-892,183
751.389999999,948,4272,14104,-565,-845,241
751.399999999,788,4204,13836,-1083,-1209,400
751.409999999,1156,4116,13496,-1703,-1822,482
751.419999999,1364,4196,14348,-469,-1005,255
751.429999999,1160,4340,14184,-659,-1264,327
751.439999999,1196,4088,13780,-1453,-1758,451
751.449999999,1296,3976,13868,-1493,-1311,451
751.459999999,1040,3896,13704,-1747,-1813,558
751.469999999,1376,3804,13468,-1469,-1875,570
751.479999999,1340,3828,13844,-1254,-1543,483
751.489999999,1344,3860,13944,360,-2076,420
751.499999999,1500,4004,13968,257,-2009,423
751.509999999,1612,3996,14156,137,-1676,366
751.519999999,1508,3976,14076,143,-1393,362
751.529999999,1528,4096,13972,-147,-1354,377
751.539999999,1460,3964,13808,-222,-1698,367
751.549999999,1616,4084,13808,62,-1290,347
751.559999999,1636,3984,13748,-469,-1002,307
751.569999999,1664,3880,13672,-462,-1068,309
751.579999999,1812,3932,13756,-444,-826,297
751.589999999,1728,3864,13828,82,-917,277
751.599999999,1800,3912,13936,985,-1297,215
751.609999999,1924,4128,13892,668,-1147,282
751.619999999,1812,4024,13940,125,-1246,251
751.629999999,1832,4064,13828,91,-1201,288
751.639999999,1876,4028,13948,54,-1015,269
751.649999999,1864,3944,13764,-6,-1176,277
751.659999999,2132,4016,13828,-459,-1210,346
751.669999999,2124,4028,13896,-74,-987,343
751.679999999,2132,4024,13728,-485,-827,313
751.689999999,1980,3968,13932,-372,-994,316
751.699999999,2048,3932,13772,20,-826,242
751.709999999,2216,3980,13688,-85,-817,274
751.719999999,2164,3796,13712,358,-906,228
751.729999999,2184,4032,13592,278,-560,190
751.739999999,2068,4104,13592,187,-461,146
751.749999999,2236,4092,14144,455,-364,63
751.759999999,2088,4132,13908,255,263,57
751.769999999,2068,4028,13860,-91,-343,122
751.779999999,2308,3984,14132,70,-988,208
751.789999999,2276,3984,13876,375,-941,196
751.799999999,2316,4080,13824,105,-977,249
751.809999999,2360,4068,13656,103,-955,277
751.819999999,2232,4108,13672,-133,-914,283
751.829999999,2364,4084,13668,-217,-823,277
751.839999999,2444,3820,13732,-111,-1033,286
751.849999999,2668,3864,13596,-107,-812,292
751.859999999,2536,3928,13552,-108,-502,247
751.869999999,2456,4240,14036,192,14,47
751.879999999,2356,4412,13884,304,-432,62
751.889999999,2440,4044,13660,183,-589,114
751.899999999,2616,4108,13564,-279,-471,194
751.909999999,2452,4052,13564,-91,620,-66
751.919999999,2488,4152,13628,-392,1023,-34
751.929999999,2568,4192,13568,-335,1294,-139
751.939999999,2360,3952,13712,-306,1469,-135
751.949999999,2452,3932,13588,-537,1745,-178
751.959999999,2340,3920,13636,-515,2151,-245
751.969999999,2300,3920,13680,-364,2217,-234
751.979999999,2248,3924,13656,-398,2371,-250
751.989999999,2184,3952,13744,-274,2640,-358
751.999999999,2288,3944,13856,-107,2756,-424
752.009999999,2052,4072,13876,-205,3018,-434
752.019999999,1944,4236,13900,-132,2913,-434
752.029999999,1964,4240,13936,-411,2897,-423
752.039999999,1876,4080,13980,-488,2811,-444
752.049999999,1752,4104,14060,-470,2784,-386
752.059999999,1632,4112,14128,-396,2674,-426
752.069999999,1632,4092,13936,-355,2511,-374
752.079999999,1572,4088,13936,-364,2487,-398
752.089999999,1576,4028,13916,-277,2321,-350
752.099999999,1528,4100,13864,-170,2072,-344
752.109999999,1512,4104,13920,-154,1862,-311
752.119999999,1356,4172,13980,-83,1745,-288
752.129999999,1412,3956,14080,-68,1453,-234
752.139999999,1400,4060,13988,-125,1332,-207
752.149999999,1392,4064,13880,-159,1165,-167
752.159999999,1416,3912,13884,-23,1016,-168
752.169999999,1332,4040,13888,46,949,-155
752.179999999,1212,3928,13940,61,906,-116
752.189999999,1332,4096,13932,177,924,-163
752.199999999,1344,4040,13852,131,820,-141
752.209999999,1324,4032,13908,162,775,-131
752.219999999,1240,4036,13784,231,753,-151
752.229999999,1220,4052,13996,311,733,-149
752.239999999,1320,4108,14036,219,742,-136
752.249999999,1332,4048,13936,188,708,-102
752.259999999,1272,4064,14016,187,690,-130
752.269999999,1176,4008,14020,-24,610,-127
752.279999999,1144,4060,13736,-126,495,-60
752.289999999,1284,4116,13984,-114,481,-38
752.299999999,1224,3992,14032,87,566,-58
752.309999999,1176,4112,14032,257,656,-103
752.319999999,1284,4144,13896,105,578,-87
752.329999999,1012,4080,13948,-15,480,-75
752.339999999,1100,4068,13796,-45,405,-68
752.349999999,1132,4164,13948,4,366,-59
752.359999999,1076,4152,14036,-189,247,16
752.369999999,1028,4140,13568,-771,248,103
752.379999999,1376,3928,13864,-608,390,-18
752.389999999,1296,4120,14424,411,680,-130
752.399999999,1016,4092,13900,-78,90,-15
752.409999999,1180,4108,13920,-427,113,41
752.419999999,1180,4116,13924,-257,331,0
752.429999999,1072,4040,13488,-853,-57,142
752.439999999,1148,3768,13672,-664,96,101
752.449999999,1300,3964,14044,-143,225,19
752.459999999,1104,4156,14080,80,166,23
752.469999999,1048,4080,14188,14,74,31
752.479999999,1140,4108,13968,-23,124,31
752.489999999,1120,4188,14096,-109,182,33
752.499999999,1208,4136,14156,-73,161,13
752.509999999,1108,4112,13872,-103,213,41
752.519999999,1132,4060,13840,-148,260,34
752.529999999,1172,4088,13788,-99,250,11
752.539999999,1160,4036,13712,-27,209,30
752.549999999,1228,3996,13812,106,286,41
752.559999999,1264,4008,13880,124,319,-11
752.569999999,1284,3996,13944,145,354,-36
752.579999999,1212,4024,13932,47,329,-2
752.589999999,1096,4024,14024,-22,340,-37
752.599999999,1276,4112,13932,-100,313,-16
752.609999999,1152,4116,13896,-152,295,-1
752.619999999,1112,4124,14024,-195,285,17
752.629999999,1136,4072,13900,-188,254,19
752.639999999,1072,4100,13940,-227,265,20
752.649999999,1068,4148,13856,-136,247,3
752.659999999,1104,4004,13796,-34,379,-19
752.669999999,1068,4136,13916,183,435,-73
752.679999999,1048,4104,13940,-68,229,5
752.689999999,1080,4240,14028,49,243,-4
752.699999999,1152,4084,13892,-201,262,6
752.709999999,1044,4168,13944,-182,254,22
752.719999999,940,4232,14060,-268,280,2
752.729999999,1040,4224,14016,-290,296,-14
752.739999999,1116,4296,13816,-424,259,-11
752.749999999,1120,4148,13960,-497,250,10
752.759999999,1104,4128,14084,-597,200,21
752.769999999,1176,4108,13764,-762,122,33
752.779999999,1076,4216,13952,-849,90,46
752.789999999,968,4084,14092,-828,124,55
752.799999999,988,4024,13996,-883,113,54
752.809999999,1064,4120,13896,-910,91,37
752.819999999,1088,4016,13912,-952,62,46
752.829999999,1080,4016,14024,-930,154,55
752.839999999,1020,3976,14044,-995,175,56
752.849999999,1204,4008,13944,-1131,126,70
752.859999999,1164,3980,14164,-1214,98,61
752.869999999,1180,3988,13896,-1339,86,71
752.879999999,1128,3896,13872,-1494,74,87
752.889999999,972,3784,13932,-1477,74,104
752.899999999,1088,3828,14056,-1365,-10,118
752.909999999,1152,3876,13988,-1341,-7,141
752.919999999,1036,3780,13944,-1260,48,123
752.929999999,1080,3788,13972,-1244,17,93
752.939999999,1180,3792,14016,-1225,60,66
752.949999999,1128,3768,13960,-1302,58,109
752.959999999,1056,3776,14116,-1245,52,97
752.969999999,1176,3640,14132,-1225,65,115
752.979999999,1088,3724,14152,-1245,82,118
752.989999999,1092,3668,14140,-1217,160,81
752.999999999,1156,3620,14160,-1321,72,88
753.009999999,1120,3616,13956,-1560,30,102
753.019999999,1160,3624,14096,-1736,-100,135
753.029999999,1160,3440,14068,-1821,-129,140
753.039999999,1216,3352,14012,-1518,-28,123
753.049999999,1204,3508,14292,-1254,128,93
753.059999999,1224,3440,14176,-1183,37,84
753.069999999,1232,3360,14168,-1325,-3,102
753.079999999,1284,3328,13888,-1505,-106,131
753.089999999,1236,3396,14040,-1452,-174,118
753.099999999,1172,3268,14188,-1346,-46,140
753.109999999,1168,3340,14060,-1621,-35,176
753.119999999,1248,3208,13456,-2526,-420,231
753.129999999,1536,3084,14068,-1999,-198,129
753.139999999,1484,3156,14696,-609,234,-53
753.149999999,1052,3288,13888,-1236,-469,159
753.159999999,1396,2920,14128,-1212,-207,84
753.169999999,1092,3140,13912,-1020,-211,138
753.179999999,1224,3112,13664,-1926,-623,297
753.189999999,1484,2948,13896,-1533,28,130
753.199999999,1464,3036,14336,-625,136,31
753.209999999,1280,3140,14476,-536,-10,3
753.219999999,1276,3136,14576,-812,-62,90
753.229999999,1268,3116,14356,-1080,-1,101
753.239999999,1264,3068,14168,-1245,-21,145
753.249999999,1236,3000,14244,-1436,-67,191
753.259999999,1368,2932,14256,-1519,-41,134
753.269999999,1276,2972,14100,-1552,-99,138
753.279999999,1300,2808,14008,-1637,-135,154
753.289999999,1412,2640,13888,-1501,-124,129
753.299999999,1484,2640,13912,-1136,-66,89
753.309999999,1436,2684,14152,-802,38,48
753.319999999,1420,2748,14184,-769,76,24
753.329999999,1288,2696,14252,-688,93,48
753.339999999,1340,2672,14440,-962,30,29
753.349999999,1392,2672,14268,-1023,103,52
753.359999999,1428,2660,14116,-1247,25,50
753.369999999,1444,2640,14068,-1261,-90,62
753.379999999,1352,2632,14088,-1354,-86,45
753.389999999,1508,2552,14076,-1285,30,43
753.399999999,1372,2516,14124,-1198,-46,46
753.409999999,1452,2572,14132,-1063,-5,44
753.419999999,1436,2484,14160,-1026,77,37
753.429999999,1428,2456,14324,-816,102,34
753.439999999,1400,2516,14236,-633,138,33
753.449999999,1416,2644,14164,-627,142,35
753.459999999,1396,2380,14420,-503,294,10
753.469999999,1320,2444,14296,-543,302,29
753.479999999,1384,2516,14128,-1060,16,98
753.489999999,1508,2320,14016,-830,138,32
753.499999999,1504,2396,14136,-657,107,7
753.509999999,1432,2336,14172,-670,5,15
753.519999999,1452,2428,14228,-536,76,11
753.529999999,1404,2424,14296,-597,88,23
753.539999999,1364,2356,14396,-695,13,52
753.549999999,1436,2416,14304,-763,-32,26
753.559999999,1532,2404,14388,-761,13,17
753.569999999,1496,2268,14224,-678,109,19
753.579999999,1600,2496,14152,-588,84,15
753.589999999,1488,2304,14196,-607,148,-20
753.599999999,1500,2244,14216,-512,160,-3
753.609999999,1452,2124,14396,-618,130,-10
753.619999999,1396,2216,14200,-665,154,57
753.629999999,1476,2164,14312,-578,136,22
753.639999999,1496,2164,14192,-463,132,28
753.649999999,1432,2200,14144,-507,109,52
753.659999999,1468,2164,14160,-437,70,32
753.669999999,1584,2108,14252,-289,164,-11
753.679999999,1524,2196,14216,-164,221,16
753.689999999,1588,2368,14280,-193,164,17
753.699999999,1464,2248,14260,-259,220,18
753.709999999,1428,2228,14152,-273,196,34
753.719999999,1460,2164,14160,-163,202,51
753.729999999,1464,2168,14224,15,255,34
753.739999999,1488,2236,14188,168,272,10
753.749999999,1496,2180,14148,364,295,-3
753.759999999,1520,2228,14084,468,369,-25
753.769999999,1520,2260,14076,623,424,-20
753.779999999,1464,2284,14116,785,426,-19
753.789999999,1452,2232,14188,907,525,-34
753.799999999,1368,2256,14140,1008,552,-40
753.809999999,1440,2472,14148,1175,555,-74
753.819999999,1480,2348,14044,1301,659,-64
753.829999999,1456,2408,14020,1406,641,-74
753.839999999,1400,2352,14128,1434,600,-92
753.849999999,1520,2536,14200,1516,566,-88
753.859999999,1336,2484,14124,1624,548,-56
753.869999999,1424,2592,14092,1707,566,-90
753.879999999,1384,2680,14056,1831,569,-91
753.889999999,1432,2652,14080,2053,593,-107
753.899999999,1468,2680,14112,2058,627,-141
753.909999999,1388,2624,14108,2098,661,-117
753.919999999,1348,2808,14184,2269,698,-146
753.929999999,1340,2868,14224,2217,717,-119
753.939999999,1368,2804,14208,2251,781,-126
753.949999999,1288,2948,14380,2347,872,-193
753.959999999,1300,2972,14212,2312,915,-176
753.969999999,1300,3152,14192,2169,868,-188
753.979999999,1260,3156,14184,1932,870,-161
753.989999999,1204,3216,14192,1669,787,-135
753.999999999,1296,3256,13924,1395,727,-105
754.009999999,1268,3244,14268,1385,768,-153
754.019999999,1328,3260,14124,1480,772,-161
754.029999999,1236,3368,14276,1486,800,-156
754.039999999,1148,3400,14096,1294,662,-146
754.049999999,1092,3456,14124,985,575,-104
754.059999999,1276,3328,13896,941,453,-105
754.069999999,1164,3396,14232,931,426,-58
754.079999999,1128,3440,14060,637,488,3
754.089999999,1116,3424,13608,-159,162,97
754.099999999,1372,3332,14328,528,522,-95
754.109999999,1364,3492,14432,1898,695,-178
754.119999999,1008,3768,14080,990,241,-29
754.129999999,1220,3612,14240,698,340,-64
754.139999999,1052,3556,13724,648,442,21
754.149999999,960,3488,13412,-187,-41,160
754.159999999,1296,3344,13692,185,338,49
754.169999999,1172,3408,13968,1065,366,-45
754.179999999,1284,3784,14280,1395,308,-96
754.189999999,1048,3724,14200,1386,312,-79
754.199999999,1096,3848,14116,1248,372,-52
754.209999999,944,3892,14168,1121,505,-37
754.219999999,1052,3944,14148,924,407,-5
754.229999999,1036,3816,14116,790,394,-52
754.239999999,1052,3832,13952,711,432,-53
754.249999999,1052,3852,13788,491,446,-19
754.259999999,1112,3736,13908,680,361,-36
754.269999999,1092,3828,13916,810,383,-37
754.279999999,1112,3796,14024,950,375,-46
754.289999999,1212,3936,14024,961,388,-54
754.299999999,1100,3892,14052,909,348,-58
754.309999999,1032,3920,13996,796,344,-62
754.319999999,1128,3956,14072,734,355,-66
754.329999999,940,4016,13980,687,410,-42
754.339999999,1096,3840,13992,580,395,-61
754.349999999,1028,3984,13920,540,361,-49
754.359999999,1188,4020,13952,484,327,-31
754.369999999,1132,4004,13932,448,361,-65
754.379999999,996,4052,13928,465,395,-62
754.389999999,1148,4032,13852,486,382,-60
754.399999999,1052,4048,14048,557,398,-33
754.409999999,1084,4052,13856,572,401,-43
754.419999999,1004,4144,14032,641,421,-44
754.429999999,1084,4216,13944,588,316,-60
754.439999999,1108,4184,14104,832,591,-106
754.449999999,888,4268,13752,374,450,8
754.459999999,1012,4072,13824,-41,350,0
754.469999999,1024,4128,13732,176,365,-8
754.479999999,1136,4180,14056,550,423,-77
754.489999999,1044,4244,13824,566,337,-60
754.499999999,1020,4296,13772,333,307,-31
754.509999999,988,4212,13972,210,268,-31
754.519999999,976,4268,14064,244,247,-11
754.529999999,1052,4284,13896,216,239,-13
754.539999999,932,4260,13888,196,241,-12
754.549999999,1048,4312,14008,250,253,-24
754.559999999,912,4292,13896,258,273,-40
754.569999999,1020,4392,13868,251,293,-17
754.579999999,1044,4248,13848,185,266,-18
754.589999999,1076,4180,13876,99,263,17
754.599999999,964,4268,13812,163,281,-11
754.609999999,1016,4264,13884,214,344,-18
754.619999999,1068,4220,13816,110,259,-37
754.629999999,1064,4236,13876,80,276,-3
754.639999999,1012,4248,13848,102,325,-27
754.649999999,872,4292,13852,154,346,-2
754.659999999,1008,4284,13936,102,318,-39
754.669999999,964,4272,13964,59,291,-30
754.679999999,1000,4356,13712,24,294,-15
754.689999999,916,4296,13800,8,309,18
754.699999999,1060,4416,13960,8,306,-25
754.709999999,832,4340,13808,66,315,-6
754.719999999,872,4368,13792,32,294,2
754.729999999,920,4260,13824,-35,276,-15
754.739999999,952,4368,13900,-37,294,-17
754.749999999,868,4408,13948,-78,297,-21
754.759999999,908,4352,13748,-112,246,-1
754.769999999,980,4388,13860,-208,252,12
754.779999999,916,4448,13916,-248,252,0
754.789999999,932,4444,13912,-299,221,39
754.799999999,916,4416,13772,-362,200,30
754.809999999,860,4336,13852,-394,211,35
754.819999999,1000,4336,13728,-401,186,35
754.829999999,920,4376,13976,-411,219,19
754.839999999,1036,4388,13872,-420,242,26
754.849999999,912,4388,13888,-469,199,16
754.859999999,1028,4248,13980,-809,100,42
754.869999999,860,4172,13976,-1396,-16,229
754.879999999,960,4200,13436,-2090,-302,253
754.889999999,1248,4052,14124,-1401,27,107
754.899999999,1032,4200,14500,-356,297,3
754.909999999,836,4108,13872,-1339,-331,155
754.919999999,972,3996,13664,-1520,-74,213
754.929999999,1028,3960,14108,-998,-319,138
754.939999999,960,3980,14128,-1177,-253,175
754.949999999,1028,3964,14044,-1212,-239,202
754.959999999,1020,3928,14204,-1335,-202,208
754.969999999,1168,3864,14120,-1475,-89,205
754.979999999,1104,3880,13956,-1548,-48,194
754.989999999,1092,3676,13920,-1672,-38,171
754.999999999,1120,3696,13840,-1701,-135,193
755.009999999,1204,3592,13860,-1570,-195,176
755.019999999,1176,3536,13856,-1373,-186,193
755.029999999,1192,3380,13912,-1236,-114,165
755.039999999,1224,3480,14140,-993,-11,114
755.049999999,1256,3580,14196,-1154,3,93
755.059999999,1188,3536,14208,-1315,79,102
755.069999999,1100,3452,14232,-1424,62,122
755.079999999,1100,3400,14140,-1598,20,135
755.089999999,1160,3420,14064,-1707,-88,134
755.099999999,1172,3456,13988,-1688,-171,113
755.109999999,1268,3388,14032,-1660,-147,182
755.119999999,1316,3408,14024,-1790,-209,185
755.129999999,1180,3220,14080,-1687,-176,185
755.139999999,1200,3320,14008,-1411,-136,138
755.149999999,1164,3336,14088,-1344,-66,118
755.159999999,1172,3204,14120,-1170,12,76
755.169999999,1248,3204,14128,-995,53,81
755.179999999,1352,3356,14104,-1082,38,97
755.189999999,1228,3140,14232,-1066,139,68
755.199999999,1368,2880,14264,-1231,-37,31
755.209999999,1352,2848,14244,-1188,-30,30
755.219999999,1252,2876,14216,-1210,11,67
755.229999999,1364,2812,14016,-1258,-8,49
755.239999999,1264,2832,14224,-1310,23,59
755.249999999,1344,2792,14180,-1242,9,81
755.259999999,1332,2788,14184,-1157,4,45
755.269999999,1296,2788,14320,-1174,-37,55
755.279999999,1316,2720,14224,-1216,-25,64
755.289999999,1352,2656,14164,-1203,-76,43
755.299999999,1368,2696,14176,-1096,-55,48
755.309999999,1444,2696,14208,-1118,18,25
755.319999999,1388,2604,14184,-1157,6,62
755.329999999,1380,2576,14072,-1190,6,50
755.339999999,1344,2616,14180,-1278,0,77
755.349999999,1376,2548,14036,-1235,16,54
755.359999999,1536,2544,14272,-1126,65,41
755.369999999,1488,2556,14112,-1073,80,26
755.379999999,1340,2472,14220,-1042,-3,49
755.389999999,1448,2404,14160,-1012,40,44
755.399999999,1396,2532,14116,-903,48,59
755.409999999,1376,2472,14328,-932,59,39
755.419999999,1292,2488,14196,-938,47,33
755.429999999,1380,2532,14180,-900,67,38
755.439999999,1484,2372,14148,-876,30,47
755.449999999,1488,2364,14304,-835,107,18
755.459999999,1472,2380,14236,-825,114,41
755.469999999,1400,2332,14264,-802,105,23
755.479999999,1516,2292,14292,-737,94,29
755.489999999,1504,2268,14148,-711,83,22
755.499999999,1468,2284,14176,-724,94,27
755.509999999,1516,2284,14200,-576,93,48
755.519999999,1452,2288,14352,-590,99,27
755.529999999,1408,2228,14432,-546,125,16
755.539999999,1460,2204,14360,-527,108,25
755.549999999,1460,2316,14244,-529,145,30
755.559999999,1524,2176,14144,-524,125,48
755.569999999,1460,2120,14360,-521,183,13
755.579999999,1460,2208,14340,-438,172,26
755.589999999,1448,2116,14320,-390,209,20
755.599999999,1488,2132,14140,-394,204,4
755.609999999,1388,2168,14148,-540,74,43
755.619999999,1548,2152,13996,-503,32,60
755.629999999,1464,2116,14232,-299,178,31
755.639999999,1484,2152,14276,-11,382,-23
755.649999999,1408,2188,14408,55,316,-6
755.659999999,1456,2180,14300,32,270,-15
755.669999999,1428,2272,14008,-107,136,28
755.679999999,1416,2160,14196,-75,91,31
755.689999999,1532,2148,14332,297,308,-1
755.699999999,1452,2248,14348,49,394,21
755.709999999,1368,2224,13676,-968,53,125
755.719999999,1664,1916,14484,-203,340,27
755.729999999,1456,2304,14584,1011,515,-113
755.739999999,1360,2224,13844,-230,-201,50
755.749999999,1544,1928,13996,77,-54,36
755.759999999,1540,2180,14392,947,610,-85
755.769999999,1256,2144,13684,-176,-190,100
755.779999999,1596,2120,14004,437,267,36
755.789999999,1580,2276,14520,1220,687,-69
755.799999999,1456,2316,14608,1433,692,-79
755.809999999,1436,2528,14404,1361,515,-78
755.819999999,1352,2448,14208,1113,526,-26
755.829999999,1364,2440,14148,1163,534,-14
755.839999999,1308,2560,14288,1121,412,2
755.849999999,1412,2492,14140,901,296,-12
755.859999999,1428,2420,14040,915,399,-17
755.869999999,1340,2476,13996,1049,482,-29
755.879999999,1396,2384,13872,1167,466,-23
755.889999999,1544,2480,14024,1455,519,-33
755.899999999,1488,2444,14236,1867,638,-89
755.909999999,1420,2580,14312,2015,748,-140
755.919999999,1428,2632,14416,1981,810,-185
755.929999999,1408,2676,14296,1850,759,-163
755.939999999,1280,2728,14372,1643,787,-161
755.949999999,1332,2852,14200,1461,670,-139
755.959999999,1468,2860,14252,1110,573,-124
755.969999999,1256,2924,14024,1070,570,-123
755.979999999,1216,3032,14080,1247,584,-89
755.989999999,1232,3016,14120,1535,699,-124
755.999999999,1292,3136,14088,1582,617,-155
756.009999999,1340,3144,14292,1649,779,-129
756.019999999,1096,3188,14072,1423,727,-82
756.029999999,1148,3152,13960,1232,433,-34
756.039999999,1152,3224,14008,1160,354,-63
756.049999999,1272,3376,14240,1455,503,-109
756.059999999,1176,3436,14220,1350,465,-52
756.069999999,1124,3488,14104,1040,405,-56
756.079999999,1152,3448,14068,1179,391,-93
756.089999999,1124,3512,14068,1085,403,-78
756.099999999,1120,3468,14052,926,411,-60
756.109999999,1112,3436,14052,1022,465,-63
756.119999999,1124,3572,14060,993,471,-62
756.129999999,1144,3556,14028,968,434,-64
756.139999999,1060,3708,14008,1058,489,-67
756.149999999,1116,3852,13928,799,380,-42
756.159999999,1140,3872,14060,716,425,-49
756.169999999,1016,3992,13896,671,466,-40
756.179999999,1060,3980,13924,597,418,-34
756.189999999,1132,3928,13976,561,396,-34
756.199999999,1160,3956,13888,560,426,-32
756.209999999,1016,4120,13904,437,334,-36
756.219999999,968,4164,13976,407,395,-28
756.229999999,984,4140,13844,358,354,-20
756.239999999,980,4116,14068,337,398,-42
756.249999999,944,4200,13920,311,394,-28
756.259999999,932,4284,13868,313,380,-28
756.269999999,956,4240,13920,320,390,-38
756.279999999,1048,4240,14040,313,411,-30
756.289999999,1040,4244,14100,333,408,-40
756.299999999,1004,4152,13956,238,394,-59
756.309999999,912,4320,13836,113,345,-5
756.319999999,1008,4272,13788,-20,246,18
756.329999999,980,4284,13732,18,308,-34
756.339999999,1072,4192,13996,193,379,-29
756.349999999,988,4204,13968,425,513,-44
756.359999999,1020,4288,13964,380,486,-77
756.369999999,816,4336,13996,205,379,-59
756.379999999,908,4284,13776,92,312,-42
756.389999999,1140,4392,14524,728,654,-129
756.399999999,924,4508,14000,162,112,-11
756.409999999,1024,4216,13668,-133,105,82
756.419999999,1096,4248,13752,47,166,51
756.429999999,952,4256,14124,227,49,13
756.439999999,940,4368,13944,232,-21,38
756.449999999,992,4352,14076,74,105,33
756.459999999,992,4384,13872,31,260,1
756.469999999,964,4312,13952,273,233,-5
756.479999999,1008,4436,13888,16,291,-6
756.489999999,956,4296,13824,-41,271,-9
756.499999999,996,4276,13824,-145,235,37
756.509999999,948,4476,13772,-203,246,39
756.519999999,852,4412,13824,15,360,1
756.529999999,972,4396,13936,-687,99,52
756.539999999,984,4084,14048,-1442,-43,133
756.549999999,1036,4044,13836,-1762,-103,191
756.559999999,1040,3828,14040,-1659,-123,215
756.569999999,1052,4028,14020,-1604,-40,149
756.579999999,916,3868,13916,-1611,-72,145
756.589999999,988,3728,13924,-1623,-52,147
756.599999999,1072,3780,14084,-1686,-3,125
756.609999999,1192,3468,14088,-1691,-75,166
756.619999999,1136,3396,14148,-1617,-120,136
756.629999999,1156,3264,14332,-1559,-119,116
756.639999999,1048,3240,14152,-1550,-181,130
756.649999999,1080,3092,14212,-1519,-124,119
756.659999999,1252,3120,14268,-1581,-63,130
756.669999999,1156,3152,14168,-1643,-133,131
756.679999999,1172,2904,14080,-1436,-45,98
756.689999999,1236,2936,14288,-1358,-128,111
756.699999999,1284,2952,14124,-1361,-32,82
756.709999999,1232,2952,14092,-1483,-45,85
756.719999999,1200,2880,14200,-1396,-100,68
756.729999999,1368,2896,14284,-1392,-66,73
756.739999999,1312,2756,14284,-1364,-36,46
756.749999999,1316,2768,14236,-1348,-72,75
756.759999999,1308,2760,14256,-1413,-66,53
756.769999999,1252,2660,14116,-1510,-73,80
756.779999999,1300,2592,14020,-1543,-175,86
756.789999999,1344,2556,14076,-1578,-174,88
756.799999999,1408,2564,14304,-1233,-37,45
756.809999999,1356,2580,14316,-991,108,-7
756.819999999,1236,2652,14388,-944,72,11
756.829999999,1224,2516,14268,-1168,-99,38
756.839999999,1336,2500,13972,-1170,-134,72
756.849999999,1396,2200,14600,-786,207,-15
756.859999999,1204,2336,13660,-1287,-215,109
756.869999999,1472,2248,13828,-1422,-343,157
756.879999999,1652,2280,14236,-512,259,21
756.889999999,1516,2208,14132,-803,-39,105
756.899999999,1480,2228,14376,-786,46,97
756.909999999,1356,2180,14076,-739,157,79
756.919999999,1360,2092,14000,-612,153,46
756.929999999,1496,2024,13952,-280,113,53
756.939999999,1380,2124,14260,173,226,-9
756.949999999,1452,2116,14340,268,230,-22
756.959999999,1400,2092,14368,293,255,-10
756.969999999,1456,2176,14164,283,296,-17
756.979999999,1508,2160,14228,199,314,-4
756.989999999,1544,2128,14240,211,352,9
756.999999999,1512,2116,14188,146,290,13
757.009999999,1496,2128,14136,107,271,13
757.019999999,1408,2236,14204,129,313,20
757.029999999,1408,2228,13964,121,272,30
757.039999999,1476,2232,14148,222,335,29
757.049999999,1324,2236,14232,342,352,24
757.059999999,1296,2312,14320,450,387,-4
757.069999999,1340,2300,14320,591,359,-13
757.079999999,1476,2388,14396,725,396,-22
757.089999999,1388,2344,14348,712,427,-42
757.099999999,1316,2392,14364,763,613,-48
757.109999999,1368,2364,14044,241,336,11
757.119999999,1332,2252,14088,428,366,-26
757.129999999,1464,2380,14228,824,497,-59
757.139999999,1392,2400,14096,623,285,-18
757.149999999,1380,2364,14116,858,403,-46
757.159999999,1312,2468,14304,1061,444,-68
757.169999999,1472,2664,14220,1055,434,-74
757.179999999,1312,2660,14276,1148,553,-53
757.189999999,1368,2560,14248,1122,587,-80
757.199999999,1376,2652,14284,1045,533,-95
757.209999999,1272,2640,14064,899,471,-76
757.219999999,1400,2596,14228,1025,475,-32
757.229999999,1256,2728,14220,1145,479,-77
757.239999999,1388,2724,14136,1026,465,-70
757.249999999,1328,2752,14008,936,465,-21
757.259999999,1332,2744,14188,1034,569,-81
757.269999999,1240,2760,14112,1192,547,-77
757.279999999,1312,2828,14220,1236,567,-100
757.289999999,1212,3016,14104,1203,563,-67
757.299999999,1200,2884,14144,1051,542,-40
757.309999999,1292,3036,14188,1024,493,-44
757.319999999,1308,2912,14240,1031,492,-25
757.329999999,1236,3048,14116,1044,506,-62
757.339999999,1204,3104,14204,1128,569,-49
757.349999999,1312,3136,14204,1112,544,-69
757.359999999,1256,3068,14076,1091,572,-108
757.369999999,1256,3048,14124,1113,572,-60
757.379999999,1256,3132,14192,1051,567,-58
757.389999999,1252,3156,14088,1020,526,-59
757.399999999,1060,3232,14080,1034,553,-48
757.409999999,1204,3172,13964,1100,515,-42
757.419999999,1232,3240,14004,1126,507,-89
757.429999999,1116,3176,13992,1154,570,-123
757.439999999,1212,3196,14212,1185,548,-97
757.449999999,1220,3292,14132,1083,594,-75
757.459999999,1072,3424,14092,1201,536,-27
757.469999999,1140,3548,14032,1218,539,-33
757.479999999,1080,3452,14024,964,509,-31
757.489999999,1128,3476,14092,933,486,-82
757.499999999,1136,3684,14096,841,477,-99
757.509999999,1072,3672,14052,768,494,-68
757.519999999,1024,3716,14028,839,504,-38
757.529999999,1024,3668,14200,869,525,-44
757.539999999,1028,3824,13940,811,464,-64
757.549999999,836,3844,14000,682,447,-1
757.559999999,1160,4124,14644,1311,652,-192
757.569999999,984,3996,13724,-80,222,61
757.579999999,924,4084,13980,566,275,-6
757.589999999,972,4140,14032,598,295,-32
757.599999999,956,4256,13908,144,340,-21
757.609999999,876,4268,13960,229,260,-45
757.619999999,924,4400,13812,67,269,-2
757.629999999,964,4340,13828,-141,255,8
757.639999999,852,4380,13884,-250,218,11
757.649999999,880,4396,13884,-298,168,37
757.659999999,844,4396,13968,-568,215,16
757.669999999,852,4248,13988,-675,167,66
757.679999999,808,4336,13808,-816,162,21
757.689999999,928,4368,14060,-892,141,58
757.699999999,1044,4136,13856,-1430,8,107
757.709999999,952,4044,13852,-1548,-26,139
757.719999999,940,3956,14004,-1694,-95,163
757.729999999,960,3684,14052,-1983,-146,170
757.739999999,952,3644,13992,-2050,-178,189
757.749999999,968,3564,14000,-2024,-184,171
757.759999999,1092,3384,13944,-2129,-288,198
757.769999999,1172,3364,13952,-2194,-300,180
757.779999999,992,3388,14156,-1614,-133,134
757.789999999,1136,3200,14104,-1674,-191,142
757.799999999,1108,3244,14080,-1810,-294,181
757.809999999,1128,3140,13952,-1775,-346,150
757.819999999,1144,3092,14412,-1527,-262,188
757.829999999,1016,3212,14256,-1758,-150,203
757.839999999,1180,2836,14224,-1343,-3,102
757.849999999,1176,2832,14224,-1619,-146,155
757.859999999,1312,2708,14324,-1710,-204,139
757.869999999,1308,2708,14100,-1871,-210,133
757.879999999,1288,2528,13992,-2051,-148,144
757.889999999,1268,2480,13972,-1935,-160,120
757.899999999,1376,2348,14104,-1632,-197,79
757.909999999,1304,2344,14180,-1311,-19,45
757.919999999,1368,2356,14168,-1562,-110,45
757.929999999,1380,2152,14368,-1522,-121,84
757.939999999,1456,2180,14164,-1461,-67,30
757.949999999,1280,2200,14300,-1037,50,33
757.959999999,1388,2236,14176,-1128,-53,33
757.969999999,1492,2132,14472,-988,170,20
757.979999999,1392,2200,14196,-1270,-26,77
757.989999999,1412,2140,14172,-1436,-107,85
757.999999999,1508,2012,14108,-1223,-54,48
758.009999999,1368,1980,14148,-981,-69,17
758.019999999,1560,2056,14516,-865,-68,-20
758.029999999,1548,1988,14300,-851,-35,24
758.039999999,1556,1876,14436,-999,-25,-17
758.049999999,1520,1960,14404,-979,56,-42
758.059999999,1492,1844,14424,-1062,56,0
758.069999999,1412,1728,14272,-1187,-8,8
758.079999999,1576,1724,14276,-1089,-67,29
758.089999999,1420,1768,14368,-1247,-6,14
758.099999999,1540,1700,14320,-1074,29,17
758.109999999,1572,1708,14364,-907,-2,45
758.119999999,1588,1740,14144,-959,-55,62
758.129999999,1560,1724,14256,-814,25,42
758.139999999,1612,1688,14260,-672,60,57
758.149999999,1524,1676,14356,-584,-3,38
758.159999999,1636,1576,14308,-651,20,25
758.169999999,1568,1628,14336,-612,76,22
758.179999999,1600,1688,14268,-651,102,38
758.189999999,1516,1668,14268,-652,90,57
758.199999999,1536,1624,14260,-527,148,36
758.209999999,1560,1692,14344,-411,146,30
758.219999999,1500,1608,14232,-349,144,53
758.229999999,1504,1724,14168,-216,194,42
758.239999999,1572,1620,14292,-181,190,28
758.249999999,1680,1536,14456,-112,213,9
758.259999999,1560,1632,14332,-52,265,19
758.269999999,1668,1600,14192,-72,202,28
758.279999999,1616,1584,14264,60,230,11
758.289999999,1644,1636,14180,165,264,-17
758.299999999,1504,1616,14276,317,316,-35
758.309999999,1552,1544,14264,435,376,-28
758.319999999,1624,1636,14260,511,378,-29
758.329999999,1548,1644,14256,573,385,-4
758.339999999,1508,1748,14216,557,419,-17
758.349999999,1456,1624,14296,654,454,-49
758.359999999,1536,1696,14292,737,424,-56
758.369999999,1532,1712,14224,812,459,-49
758.379999999,1460,1728,14256,860,498,-52
758.389999999,1568,1744,14276,846,458,-55
758.399999999,1480,1832,14244,834,462,-50
758.409999999,1500,1812,14296,772,362,-5
758.419999999,1644,1820,14160,805,298,-22
758.429999999,1600,1824,13968,844,266,7
758.439999999,1576,1876,14168,952,327,5
758.449999999,1584,1876,14404,1350,543,-39
758.459999999,1580,1944,14424,1751,699,-71
758.469999999,1512,2016,14240,1812,718,-74
758.479999999,1460,2084,14248,1700,763,-95
758.489999999,1416,2092,14252,1600,615,-76
758.499999999,1516,2108,14316,1650,558,-46
758.509999999,1472,2188,14392,1651,686,-68
758.519999999,1292,2384,14068,1006,700,-1
758.529999999,1652,2188,13696,259,268,87
758.539999999,1664,2012,14512,1336,755,-78
758.549999999,1464,2132,14688,2793,842,-185
758.559999999,1292,2512,13840,1894,276,-71
758.569999999,1520,2356,14248,1558,519,-73
758.579999999,1296,2300,14280,2011,944,-94
758.589999999,1300,2456,13580,791,80,72
758.599999999,1404,2404,14336,2171,825,-120
758.609999999,1400,2696,14668,2489,761,-171
758.619999999,1180,2780,14556,2240,726,-114
758.629999999,1228,2764,14304,2151,743,-81
758.639999999,1180,2868,14392,2097,755,-119
758.649999999,1264,2888,14276,1673,590,-55
758.659999999,1248,2908,14232,1516,546,-55
758.669999999,1368,2956,14160,1394,621,-67
758.679999999,1264,2824,13892,1261,662,-69
758.689999999,1232,2980,13868,1318,648,-20
758.699999999,1340,2892,13956,1381,567,-55
758.709999999,1372,2956,14160,1585,605,-54
758.719999999,1248,2988,14304,1668,569,-65
758.729999999,1248,3132,14468,1586,634,-112
758.739999999,1136,3136,14228,1490,632,-116
758.749999999,1272,3168,14184,1210,614,-77
758.759999999,1316,3232,14172,1084,624,-107
758.769999999,1236,3232,13888,882,487,-46
758.779999999,1116,3248,14120,925,425,-54
758.789999999,1140,3348,14200,906,437,-53
758.799999999,1300,3244,14052,970,405,-40
758.809999999,1180,3368,13940,1055,484,-54
758.819999999,1128,3372,14072,1154,571,-49
758.829999999,1176,3464,13928,1295,585,-55
758.839999999,1060,3524,14124,1370,525,-94
758.849999999,1052,3480,14268,1360,530,-92
758.859999999,1072,3504,14276,1399,836,-139
758.869999999,912,3652,13960,900,574,-58
758.879999999,1040,3548,13992,642,557,-28
758.889999999,1172,3476,13728,631,445,-52
758.899999999,1064,3684,14080,760,407,-89
758.909999999,1080,3524,14048,1020,434,-93
758.919999999,1100,3676,14016,767,383,-36
758.929999999,1096,3588,14040,661,374,-30
758.939999999,1068,3644,14204,678,410,-59
758.949999999,1076,3676,14016,614,287,-27
758.959999999,1232,3676,14112,582,331,-59
758.969999999,1056,3752,14044,677,399,-79
758.979999999,1172,3776,14116,709,444,-69
758.989999999,944,3768,14176,696,457,-86
758.999999999,1052,3788,14152,672,462,-35
759.009999999,1128,3748,14104,601,441,-64
759.019999999,1084,3688,14156,740,403,-34
759.029999999,1028,3704,13904,744,436,-52
759.039999999,1000,3792,14048,649,394,-12
759.049999999,1080,3808,13896,691,431,-58
759.059999999,1024,3852,14116,757,484,-73
759.069999999,1128,3848,13920,830,538,-61
759.079999999,1000,3892,13972,769,484,-97
759.089999999,904,3872,13808,689,494,-84
759.099999999,936,3896,13940,618,412,-49
759.109999999,988,3948,13932,614,464,-40
759.119999999,856,3936,13972,608,413,-36
759.129999999,1112,4116,13908,616,375,-4
759.139999999,920,3876,13892,509,397,5
759.149999999,1080,4088,13932,525,326,-3
759.159999999,852,4048,13900,570,362,-38
759.169999999,1000,4052,13948,553,405,-37
759.179999999,932,4096,13964,569,457,-32
759.189999999,1040,4164,13952,493,436,-49
759.199999999,1064,4060,13900,476,392,-34
759.209999999,1068,4116,13876,424,402,-40
759.219999999,968,4112,13936,455,459,-53
759.229999999,948,4088,13956,414,375,-58
759.239999999,928,4112,13896,468,405,-35
759.249999999,1008,4000,13948,454,400,-38
759.259999999,896,4176,13828,434,396,-50
759.269999999,1064,4120,13860,412,394,-40
759.279999999,952,4132,13932,412,360,-21
759.289999999,900,4216,13848,312,367,-54
759.299999999,880,4168,13916,416,363,-38
759.309999999,884,4184,14004,387,360,-41
759.319999999,892,4264,13756,347,355,-30
759.329999999,952,4320,13992,372,384,-33
759.339999999,904,4268,13896,307,345,-27
759.349999999,952,4288,13852,301,351,-42
759.359999999,944,4224,13732,252,358,-61
759.369999999,832,4324,13916,268,353,-35
759.379999999,988,4328,13836,242,380,-25
759.389999999,764,4348,13984,244,352,-24
759.399999999,1016,4400,13804,247,349,-28
759.409999999,800,4296,13916,-368,113,93
759.419999999,780,4268,13400,-1115,-73,180
759.429999999,988,4232,14060,-361,280,25
759.439999999,800,4288,13708,-774,92,144
759.449999999,740,4248,13652,-837,-163,165
759.459999999,956,4140,13612,-424,-52,112
759.469999999,956,4288,13820,-69,50,38
759.479999999,856,4256,13992,5,-58,63
759.489999999,868,4308,14004,-113,-16,109
759.499999999,888,4340,13764,-139,6,78
759.509999999,932,4404,13976,-117,21,50
759.519999999,956,4436,13964,-160,124,37
759.529999999,896,4336,13844,-224,227,18
759.539999999,824,4420,13904,-249,266,4
759.549999999,988,4276,13832,-261,265,27
759.559999999,864,4248,13768,-129,283,31
759.569999999,1052,4272,13844,-77,236,21
759.579999999,972,4292,14068,-128,219,22
759.589999999,896,4268,14056,-187,156,7
759.599999999,840,4268,14152,-311,132,32
759.609999999,980,4220,14008,-417,159,35
759.619999999,988,4188,14072,-561,164,48
759.629999999,928,4284,13936,-676,164,48
759.639999999,736,4284,13968,-796,113,66
759.649999999,984,4332,13876,-931,87,93
759.659999999,1012,4260,13956,-1005,120,92
759.669999999,940,4216,13992,-1148,61,100
759.679999999,976,4160,13756,-1272,0,143
759.689999999,868,4136,13844,-1207,-15,126
759.699999999,852,4020,13924,-994,23,107
759.709999999,956,4200,14004,-874,45,111
759.719999999,992,4160,14048,-901,130,96
759.729999999,964,4116,13940,-1104,-2,59
759.739999999,1056,4088,14180,-966,370,55
759.749999999,868,4012,13648,-1486,-28,192
759.759999999,1020,3932,13632,-1939,-212,211
759.769999999,1036,3896,14140,-1369,-17,133
759.779999999,920,3932,14100,-1146,-117,135
759.789999999,972,3932,13940,-1484,-253,201
759.799999999,920,3904,14024,-1627,-229,213
759.809999999,992,3884,13932,-1649,-208,217
759.819999999,948,3888,14024,-1539,-220,223
759.829999999,1124,3776,14004,-1521,-225,181
759.839999999,1068,3828,14104,-1584,-198,206
759.849999999,1044,3692,14196,-1535,-104,148
759.859999999,1132,3724,13980,-1490,-80,133
759.869999999,1088,3664,14072,-1660,-27,152
759.879999999,1020,3568,14116,-1729,34,139
759.889999999,1088,3632,14004,-1881,-21,141
759.899999999,1088,3480,14204,-2002,-105,163
759.909999999,1180,3480,14032,-1925,-149,146
759.919999999,1148,3436,13872,-1962,-230,146
759.929999999,1112,3352,14088,-1956,-251,155
759.939999999,1128,3276,14168,-1826,-163,149
759.949999999,1140,3372,14188,-1728,-214,147
759.959999999,1032,3352,14112,-1735,-220,165
759.969999999,1160,3268,13952,-1747,-227,153
759.979999999,1072,3292,14028,-1841,-260,180
759.989999999,1136,3132,13980,-1890,-260,193
759.999999999,1296,3188,14180,-1827,-206,168
760.009999999,1176,3168,14060,-1741,-221,175
760.019999999,1188,3052,14140,-1700,-179,149
760.029999999,1156,3076,14288,-1588,-142,112
760.039999999,1156,3188,14028,-1675,-130,119
760.049999999,1108,2972,14132,-1665,-88,105
760.059999999,1268,2980,14208,-1466,-138,119
760.069999999,1196,2932,14208,-1459,-151,93
760.079999999,1268,2896,14192,-1431,-88,104
760.089999999,1296,2936,14256,-1416,-82,106
760.099999999,1368,2816,14116,-1457,-115,116
760.109999999,1340,2808,14188,-1453,-179,115
760.119999999,1236,2784,14112,-1325,-103,58
760.129999999,1168,2732,14260,-1369,-61,60
760.139999999,1252,2776,14212,-1324,-103,82
760.149999999,1312,2636,14212,-1336,-78,46
760.159999999,1304,2628,14204,-1361,-91,54
760.169999999,1256,2608,14044,-1282,-125,75
760.179999999,1196,2612,14188,-1256,-89,70
760.189999999,1244,2660,14188,-1271,-57,47
760.199999999,1332,2584,14292,-1182,-99,82
760.209999999,1180,2532,14216,-1218,-53,46
760.219999999,1420,2452,14160,-1184,-89,64
760.229999999,1260,2400,14192,-1249,-69,77
760.239999999,1420,2512,14276,-1236,-56,57
760.249999999,1408,2428,14188,-1236,-44,54
760.259999999,1344,2448,14204,-1196,-42,44
760.269999999,1264,2452,14120,-1253,-43,54
760.279999999,1388,2472,14296,-1159,-19,43
760.289999999,1476,2444,14204,-1083,-29,60
760.299999999,1396,2360,14372,-1068,-41,49
760.309999999,1436,2320,14184,-1054,11,33
760.319999999,1240,2224,14428,-1014,99,6
760.329999999,1484,2236,14244,-1091,-27,61
760.339999999,1336,2212,14240,-1063,-1,24
760.349999999,1396,2328,14220,-1148,-51,60
760.359999999,1328,2176,13968,-1216,-128,72
760.369999999,1444,2244,14196,-1143,-80,61
760.379999999,1412,2196,14500,-828,66,13
760.389999999,1468,2072,14436,-724,150,1
760.399999999,1380,2192,14348,-711,79,15
760.409999999,1416,2176,14248,-922,-19,68
760.419999999,1404,2136,14104,-982,-91,22
760.429999999,1524,2032,14348,-798,-41,40
760.439999999,1464,2072,14404,-697,133,11
760.449999999,1368,2232,14392,-1238,152,107
760.459999999,1364,2084,13668,-2201,-369,139
760.469999999,1740,1792,14680,-1319,42,64
760.479999999,1536,1960,14476,-45,114,-81
760.489999999,1348,2004,13924,-1113,-732,101
760.499999999,1716,1908,14432,-755,25,32
760.509999999,1444,1908,14212,-531,230,27
760.519999999,1544,1908,13724,-1449,-449,176
760.529999999,1624,1720,14156,-768,118,80
760.539999999,1584,2008,14572,-208,439,-48
760.549999999,1504,2112,14792,-178,310,-40
760.559999999,1512,1972,14376,-414,142,24
760.569999999,1432,2084,14452,-586,157,55
760.579999999,1560,1900,14260,-763,109,67
760.589999999,1544,1948,14348,-935,-73,86
760.599999999,1520,1856,14232,-1017,-56,65
760.609999999,1516,1836,14248,-1071,-1,86
760.619999999,1660,1836,13968,-1001,80,61
760.629999999,1596,1560,13852,-540,101,47
760.639999999,1544,1792,14308,-107,134,49
760.649999999,1664,1788,14348,99,174,3
760.659999999,1616,1784,14428,185,181,-8
760.669999999,1572,1704,14304,138,226,-8
760.679999999,1616,1848,14344,83,225,21
760.689999999,1624,1812,14400,149,302,-15
760.699999999,1624,1748,14164,116,224,19
760.709999999,1596,1688,14412,153,269,26
760.719999999,1620,1800,14268,164,324,-5
760.729999999,1476,1808,14232,209,334,-5
760.739999999,1552,1892,14160,279,357,-14
760.749999999,1412,1836,13960,731,391,5
760.759999999,1452,1968,14340,1318,561,-49
760.769999999,1636,2092,14188,1388,508,-69
760.779999999,1432,2104,14368,1610,559,-93
760.789999999,1372,2056,14208,1629,536,-81
760.799999999,1424,2184,14320,1579,504,-76
760.809999999,1584,2400,14464,1571,639,-121
760.819999999,1384,2456,14260,1467,642,-103
760.829999999,1320,2396,14232,1422,632,-86
760.839999999,1352,2416,14184,1295,586,-95
760.849999999,1380,2416,14228,1315,560,-107
760.859999999,1388,2460,14196,1437,616,-110
760.869999999,1280,2516,14276,1421,598,-98
760.879999999,1492,2664,13992,1234,507,-61
760.889999999,1300,2636,14048,1183,592,-94
760.899999999,1324,2648,14332,1428,619,-107
760.909999999,1260,2652,14304,1411,560,-75
760.919999999,1248,2688,14256,1431,583,-81
760.929999999,1304,2796,14144,1233,538,-67
760.939999999,1260,2840,14188,1239,559,-54
760.949999999,1380,2904,14252,1274,545,-62
760.959999999,1252,2896,14120,1257,530,-82
760.969999999,1308,2884,14104,1214,567,-72
760.979999999,1260,2956,14136,1269,539,-69
760.989999999,1256,2992,14200,1330,548,-68
760.999999999,1312,2916,14068,1409,584,-102
761.009999999,1348,3016,14320,1440,616,-94
761.019999999,1264,3068,14228,1331,587,-80
761.029999999,1216,3132,14224,1201,590,-52
761.039999999,1180,3128,14212,1163,592,-65
761.049999999,1184,3180,14156,1171,536,-75
761.059999999,1256,3152,14248,1216,583,-117
761.069999999,1212,3252,14200,1269,566,-121
761.079999999,1192,3132,14140,1213,588,-90
761.089999999,1200,3256,14096,1224,587,-112
761.099999999,1220,3324,14128,1204,538,-72
761.109999999,1188,3312,14092,1161,532,-110
761.119999999,1156,3348,14172,1170,494,-114
761.129999999,1072,3348,14052,1154,502,-90
761.139999999,1068,3376,14152,1030,546,-68
761.149999999,1108,3428,14080,1058,513,-97
761.159999999,1156,3500,14064,978,494,-66
761.169999999,1056,3464,14140,992,555,-130
761.179999999,1148,3536,14056,982,514,-64
761.189999999,1116,3564,14076,938,544,-106
761.199999999,1128,3564,14104,900,569,-108
761.209999999,1120,3588,14080,709,493,-88
761.219999999,1096,3612,13880,524,418,-55
761.229999999,1136,3556,13904,395,344,-24
761.239999999,1116,3560,14068,586,425,-45
761.249999999,1076,3576,14068,910,532,-60
761.259999999,1072,3780,14136,1070,583,-114
761.269999999,976,3732,14112,848,502,-99
761.279999999,1072,3740,13884,702,447,-58
761.289999999,1008,3768,14056,661,419,-68
761.299999999,1000,3776,14196,753,366,-25
761.309999999,1000,3796,14072,251,414,84
761.319999999,1096,3660,13608,-339,130,79
761.329999999,1260,3760,14256,900,590,-78
761.339999999,992,3948,14508,1480,559,-129
761.349999999,1084,3844,14028,119,4,39
761.359999999,996,3872,14024,307,423,-13
761.369999999,972,3812,13516,-312,-22,102
761.379999999,1064,3588,13796,2,151,64
761.389999999,1100,3716,13848,613,274,6
761.399999999,1072,3836,14152,879,201,-39
761.409999999,900,3928,14112,1074,115,-40
761.419999999,988,3932,14172,978,185,-36
761.429999999,1064,4080,14064,851,303,-16
761.439999999,952,4028,14116,754,279,7
761.449999999,960,4132,14016,562,420,-27
761.459999999,988,4072,14072,429,504,-37
761.469999999,1028,3940,13792,677,359,-23
761.479999999,1128,3988,13872,714,348,-29
761.489999999,1040,4020,14024,728,359,-69
761.499999999,1028,4052,14032,598,349,-32
761.509999999,976,4084,13804,549,334,-26
761.519999999,892,4192,13900,357,367,-23
761.529999999,1064,4208,13816,261,348,-10
761.539999999,1020,4148,13908,192,307,8
761.549999999,924,4032,13812,181,334,8
761.559999999,1008,4224,13936,260,346,-34
761.569999999,1040,4172,13960,284,358,-9
761.579999999,1072,4252,13888,378,372,-32
761.589999999,968,4304,14016,438,409,-44
761.599999999,916,4256,13988,455,395,-53
761.609999999,972,4360,14048,452,320,-53
761.619999999,972,4280,14112,570,670,-106
761.629999999,756,4228,13640,-159,256,15
761.639999999,996,4192,13824,-69,352,20
761.649999999,944,4276,13824,396,434,-84
761.659999999,820,4276,14132,313,273,-41
761.669999999,828,4248,13848,152,264,-35
761.679999999,916,4284,13760,39,266,-6
761.689999999,900,4304,13812,43,245,3
761.699999999,940,4404,14000,121,177,-9
761.709999999,976,4328,13968,72,213,-3
761.719999999,984,4476,13964,51,257,-9
761.729999999,924,4332,13872,88,272,-10
761.739999999,1008,4288,13996,39,239,-2
761.749999999,868,4268,13812,7,243,-11
761.759999999,972,4352,13804,-73,217,5
761.769999999,848,4268,13840,-33,229,-7
761.779999999,1044,4316,13952,76,258,-26
761.789999999,964,4284,13864,-22,187,12
761.799999999,964,4392,13864,-107,204,10
761.809999999,940,4284,13940,-87,260,-11
761.819999999,948,4300,13896,-64,271,0
761.829999999,932,4332,13880,-40,301,-8
761.839999999,964,4300,13876,-120,287,9
761.849999999,904,4344,13916,-186,233,18
761.859999999,952,4336,13872,-201,252,6
761.869999999,960,4352,13820,-190,213,15
761.879999999,912,4400,13880,-167,241,17
761.889999999,848,4340,13888,-187,199,46
761.899999999,860,4392,13912,-188,225,33
761.909999999,964,4404,13796,-202,187,30
761.919999999,956,4424,13932,-221,221,34
761.929999999,840,4416,13960,-276,241,6
761.939999999,888,4332,13844,-345,225,23
761.949999999,844,4376,13920,-454,196,11
761.959999999,864,4292,13912,-584,192,59
761.969999999,912,4368,14004,-667,151,56
761.979999999,904,4356,13948,-750,205,35
761.989999999,900,4240,13920,-919,127,60
761.999999999,864,4292,13908,-1119,87,73
762.009999999,888,4220,13948,-1225,9,114
762.019999999,980,4236,13876,-1393,-10,137
762.029999999,896,4212,14024,-1563,-57,177
762.039999999,1072,4184,14116,-1650,-70,155
762.049999999,944,4120,14008,-1764,-216,190
762.059999999,1064,4108,14096,-1931,-219,210
762.069999999,1036,3940,13964,-1874,-187,215
762.079999999,1032,3968,14104,-1886,-80,168
762.089999999,944,3936,14148,-1915,-61,180
762.099999999,952,3884,14044,-2039,-88,183
762.109999999,972,3904,14072,-2148,-132,236
762.119999999,944,3816,14096,-2232,-113,203
762.129999999,1020,3780,13968,-2287,-217,222
762.139999999,1048,3712,13956,-2270,-310,256
762.149999999,1012,3688,14080,-2224,-284,248
762.159999999,1108,3616,14036,-2167,-265,234
762.169999999,1108,3732,14004,-2182,-249,243
762.179999999,1076,3564,14112,-2089,-244,240
762.189999999,1084,3532,14080,-2013,-233,222
762.199999999,1076,3404,14072,-1989,-194,206
762.209999999,1096,3432,14068,-1968,-243,218
762.219999999,1128,3364,14200,-1992,-191,191
762.229999999,1084,3296,14144,-2030,-254,211
762.239999999,1180,3304,14128,-2093,-290,194
762.249999999,1044,3236,14016,-2128,-336,198
762.259999999,1244,3044,14032,-1976,-305,182
762.269999999,1212,3104,14204,-1620,-188,152
762.279999999,1128,3280,14336,-1525,-138,142
762.289999999,1216,3312,14280,-1617,-195,103
762.299999999,1148,3208,14192,-1768,-306,167
762.309999999,1184,2936,13952,-1837,-400,145
762.319999999,1252,3000,14300,-1606,-231,143
762.329999999,1152,2976,14352,-1687,-74,136
762.339999999,1252,3020,13604,-2789,-347,252
762.349999999,1464,2696,13944,-2558,-416,138
762.359999999,1308,2720,14576,-893,-13,9
762.369999999,1172,2812,13872,-1471,-778,216
762.379999999,1448,2640,14048,-1952,-582,189
762.389999999,1444,2612,14360,-1283,33,99
762.399999999,1152,2648,13556,-2018,-610,213
762.409999999,1552,2572,13992,-1756,-314,175
762.419999999,1500,2544,14464,-853,104,26
762.429999999,1424,2780,14680,-692,93,6
762.439999999,1392,2748,14640,-1128,-60,68
762.449999999,1288,2684,14368,-1315,-23,127
762.459999999,1340,2744,14332,-1572,-15,141
762.469999999,1356,2632,14332,-1728,-192,139
762.479999999,1388,2584,14308,-1853,-210,127
762.489999999,1228,2452,14096,-1961,-208,125
762.499999999,1340,2416,14012,-2022,-231,119
762.509999999,1340,2232,13936,-1807,-261,142
762.519999999,1508,2172,14196,-1332,-188,128
762.529999999,1464,2212,14112,-849,-71,47
762.539999999,1544,2244,14232,-834,-69,35
762.549999999,1520,2256,14368,-848,-13,54
762.559999999,1496,2172,14236,-833,-13,46
762.569999999,1468,2324,14244,-984,-24,50
762.579999999,1500,2252,14232,-1102,51,40
762.589999999,1412,2184,14320,-1100,-5,75
762.599999999,1592,2240,14272,-1207,-9,27
762.609999999,1528,2116,14276,-1294,-15,57
762.619999999,1468,2208,14068,-1317,-29,51
762.629999999,1480,2136,14260,-1357,-32,56
762.639999999,1508,2024,14268,-1309,-66,72
762.649999999,1540,2096,14292,-1170,-44,61
762.659999999,1440,2176,14156,-1016,30,1
762.669999999,1516,2168,14400,-824,43,44
762.679999999,1448,1944,14448,-934,38,10
762.689999999,1440,1932,14368,-663,233,41
762.699999999,1496,2028,14140,-1160,-4,47
762.709999999,1464,1912,14064,-1204,-42,62
762.719999999,1640,1896,14108,-930,-15,-4
762.729999999,1548,1876,14284,-903,-127,49
762.739999999,1592,1896,14316,-695,8,-3
762.749999999,1664,1888,14340,-686,14,27
762.759999999,1448,1880,14280,-709,46,43
762.769999999,1712,1852,14324,-813,-59,41
762.779999999,1528,1912,14248,-868,2,28
762.789999999,1612,1820,14548,-861,114,5
762.799999999,1588,1896,14336,-835,67,-4
762.809999999,1748,1728,14380,-846,81,-9
762.819999999,1544,1788,14248,-830,70,27
762.829999999,1480,1800,14244,-872,53,16
762.839999999,1568,1604,14204,-778,109,24
762.849999999,1592,1640,14216,-618,78,36
762.859999999,1612,1652,14196,-497,93,11
762.869999999,1584,1612,14292,-454,88,43
762.879999999,1552,1592,14092,-420,70,40
762.889999999,1628,1608,14212,-165,201,2
762.899999999,1604,1640,14308,-65,180,7
762.909999999,1684,1724,14308,-10,226,20
762.919999999,1588,1840,14316,-27,246,52
762.929999999,1536,1708,14144,-66,296,17
762.939999999,1524,1708,14200,7,300,61
762.949999999,1696,1668,14312,96,329,31
762.959999999,1560,1780,14244,195,321,12
762.969999999,1656,1740,14204,267,297,14
762.979999999,1556,1712,14236,406,358,-11
762.989999999,1536,1752,14384,463,342,-18
762.999999999,1580,1696,14344,461,343,-19
763.009999999,1592,1868,14284,517,332,-19
763.019999999,1636,1772,14180,556,386,7
763.029999999,1580,1836,14332,639,430,-4
763.039999999,1616,1836,14180,643,446,-26
763.049999999,1552,1828,14212,652,400,-62
763.059999999,1588,1808,14412,786,455,-24
763.069999999,1492,1844,14232,790,491,-44
763.079999999,1516,1972,14160,837,512,-41
763.089999999,1640,1904,14168,762,412,-42
763.099999999,1484,1992,14316,782,401,-50
763.109999999,1524,1920,14124,809,354,-46
763.119999999,1564,1868,14344,946,438,-45
763.129999999,1584,2016,14184,995,388,-38
763.139999999,1452,2108,14108,1077,449,-71
763.149999999,1592,2020,14248,1197,431,-29
763.159999999,1464,2004,14284,1399,472,-61
763.169999999,1512,2068,14412,1519,517,-61
763.179999999,1472,2244,14296,1481,585,-68
763.189999999,1448,2164,14212,1391,505,-68
763.199999999,1564,2236,14152,1323,417,-30
763.209999999,1524,2112,14144,1550,589,-47
763.219999999,1576,2288,14460,1965,763,-129
763.229999999,1436,2392,14384,1924,712,-97
763.239999999,1384,2452,14368,1735,683,-102
763.249999999,1284,2472,14080,1500,530,-105
763.259999999,1316,2492,13976,1520,436,-52
763.269999999,1360,2552,14364,1821,566,-117
763.279999999,1320,2604,14332,1608,707,-17
763.289999999,1256,2692,13740,740,544,35
763.299999999,1600,2484,14104,937,597,-19
763.309999999,1520,2628,14780,2411,908,-198
763.319999999,1156,2908,14168,2069,423,-100
763.329999999,1456,2760,14192,1276,362,-100
763.339999999,1288,2776,14132,1485,776,-121
763.349999999,1192,2832,13596,340,-53,111
763.359999999,1356,2620,13936,890,457,-6
763.369999999,1472,2772,14328,1816,620,-141
763.379999999,1324,2996,14484,1915,498,-135
763.389999999,1284,2968,14284,1776,491,-78
763.399999999,1256,3064,14356,1686,601,-81
763.409999999,1088,3112,14324,1540,612,-58
763.419999999,1148,3184,14148,1249,573,-71
763.429999999,1300,3180,14152,1176,530,-33
763.439999999,1180,3256,14080,957,545,-42
763.449999999,1244,3204,13836,1030,575,-44
763.459999999,1288,3144,13988,1275,527,-16
763.469999999,1348,3200,13980,1391,409,-71
763.479999999,1356,3232,14048,1487,478,-102
763.489999999,1360,3256,14208,1515,443,-114
763.499999999,1240,3272,14216,1353,530,-141
763.509999999,1296,3396,14016,1157,535,-99
763.519999999,1152,3480,14132,942,465,-71
763.529999999,1236,3400,14204,795,473,-62
763.539999999,1188,3444,14212,789,379,-46
763.549999999,1328,3500,14032,707,384,-46
763.559999999,1212,3400,13968,680,360,-32
763.569999999,1208,3480,14044,798,410,-44
763.579999999,1312,3520,14100,805,436,-91
763.589999999,1144,3576,14040,966,411,-51
763.599999999,1180,3560,14076,1154,480,-94
763.609999999,1176,3736,14056,1159,398,-86
763.619999999,1260,3720,14324,1266,587,-123
763.629999999,1104,3632,13968,823,487,-102
763.639999999,1224,3928,14024,629,245,-48
763.649999999,1084,3896,13992,628,321,-61
763.659999999,1080,3820,14052,659,340,-69
763.669999999,1168,3916,13936,656,392,-52
763.679999999,1132,3968,13988,563,372,-41
763.689999999,1060,3848,13852,482,339,-33
763.699999999,1060,3920,13884,517,393,-58
763.709999999,1140,3976,13936,559,401,-67
763.719999999,996,4044,13852,581,387,-43
763.729999999,1068,3988,14032,448,345,-39
763.739999999,1168,4072,13908,442,345,-28
763.749999999,1012,4168,14064,430,372,-48
763.759999999,1060,4236,13916,387,359,-33
763.769999999,1012,4184,13828,360,303,-20
763.779999999,1040,4140,13984,331,315,-23
763.789999999,1092,4148,13980,371,336,-46
763.799999999,1064,4148,13880,361,346,-13
763.809999999,972,4208,13924,315,294,-9
763.819999999,964,4224,13924,276,329,1
763.829999999,992,4196,13692,253,303,-16
763.839999999,1036,4204,13868,244,345,-30
763.849999999,1040,4252,13844,246,328,-44
763.859999999,972,4284,13808,206,357,-50
763.869999999,1068,4232,13944,252,350,-53
763.879999999,1052,4204,13868,247,322,-30
763.889999999,1024,4340,13812,237,321,-24
763.899999999,992,4296,13996,200,325,-30
763.909999999,952,4284,13952,174,308,-49
763.919999999,1008,4296,13928,168,308,-23
763.929999999,1096,4208,13888,172,314,-36
763.939999999,964,4308,13900,117,310,-19
763.949999999,1040,4236,13864,121,320,-24
763.959999999,1064,4320,13920,107,324,-16
763.969999999,1020,4260,13888,131,291,-13
763.979999999,940,4348,13860,70,294,10
763.989999999,988,4308,13876,58,299,-18
763.999999999,980,4272,13896,44,311,-18
764.009999999,948,4168,13872,-7,346,-30
764.019999999,992,4360,13884,34,319,-19
764.029999999,1060,4464,13968,53,348,-35
764.039999999,1076,4316,14068,14,332,-10
764.049999999,920,4336,13856,-108,291,2
764.059999999,1008,4236,13708,-180,246,-6
764.069999999,1060,4288,13720,-294,138,19
764.079999999,888,4288,13740,-265,167,8
764.089999999,1048,4240,14004,-42,394,-4
764.099999999,1008,4396,13908,68,450,-77
764.109999999,940,4332,13976,-101,338,-50
764.119999999,896,4444,13880,-277,267,5
764.129999999,888,4252,13696,-350,227,-18
764.139999999,1060,4356,14184,-229,174,19
764.149999999,920,4284,14080,-402,59,86
764.159999999,900,4276,13388,-1206,-84,197
764.169999999,1308,4164,14140,-576,397,15
764.179999999,964,4528,14460,266,546,-88
764.189999999,932,4396,13996,-510,-188,79
764.199999999,996,4256,13644,-881,16,130
764.209999999,908,4220,13736,-1194,-49,176
764.219999999,892,4004,13592,-1171,-169,221
764.229999999,1120,4108,13880,-661,50,107
764.239999999,1088,4292,14216,-559,36,49
764.249999999,948,4188,13936,-658,-212,103
764.259999999,1064,4256,14044,-852,-153,135
764.269999999,932,4236,14036,-906,-102,163
764.279999999,1072,4080,13836,-1193,61,115
764.289999999,1124,3916,13744,-1171,-39,153
764.299999999,1076,3788,14036,-1361,5,118
764.309999999,1128,3796,13996,-1397,24,154
764.319999999,1144,3868,14012,-1493,-44,187
764.329999999,1208,3788,13964,-1579,-82,195
764.339999999,1168,3768,13980,-1538,-94,207
764.349999999,1120,3720,14008,-1472,-81,176
764.359999999,1204,3748,14152,-1246,17,141
764.369999999,1140,3648,14124,-1131,100,112
764.379999999,1204,3784,14264,-1144,110,127
764.389999999,1220,3716,14080,-1274,51,94
764.399999999,1136,3524,13940,-1215,220,137
764.409999999,1160,3508,13796,-1850,-162,196
764.419999999,1176,3412,13928,-1812,-119,174
764.429999999,1220,3460,14180,-1230,30,102
764.439999999,1280,3504,14148,-1264,-133,110
764.449999999,1232,3392,13888,-1452,-202,136
764.459999999,1268,3348,13992,-1591,-205,176
764.469999999,1232,3468,14104,-1463,-170,143
764.479999999,1204,3348,14164,-1429,-169,152
764.489999999,1364,3344,14208,-1440,-82,93
764.499999999,1236,3268,14220,-1394,-42,127
764.509999999,1240,3304,14256,-1515,-100,156
764.519999999,1264,3212,14164,-1571,-94,149
764.529999999,1312,3104,14096,-1645,-135,171
764.539999999,1280,3120,14124,-1650,-168,149
764.549999999,1216,3008,14212,-1662,-217,175
764.559999999,1332,3024,14196,-1597,-146,130
764.569999999,1356,2972,14132,-1559,-210,104
764.579999999,1332,3032,14160,-1657,-152,148
764.589999999,1208,2896,14108,-1569,-160,106
764.599999999,1356,2860,14172,-1382,-138,77
764.609999999,1252,2900,14080,-1260,-72,68
764.619999999,1276,2808,14164,-1219,-52,89
764.629999999,1360,2844,14152,-1226,-26,98
764.639999999,1368,2852,14200,-1327,5,87
764.649999999,1468,2760,14124,-1320,-4,102
764.659999999,1540,2772,14268,-1304,-36,86
764.669999999,1384,2760,14080,-1332,7,86
764.679999999,1464,2696,14248,-1254,8,59
764.689999999,1368,2800,14196,-1172,36,72
764.699999999,1456,2640,14064,-1244,14,66
764.709999999,1472,2676,14160,-1209,7,76
764.719999999,1400,2640,14212,-1139,14,40
764.729999999,1404,2504,14300,-1175,6,95
764.739999999,1380,2624,14216,-1121,60,83
764.749999999,1452,2612,14204,-1125,49,13
764.759999999,1416,2508,14240,-1097,55,39
764.769999999,1476,2440,14232,-1136,64,37
764.779999999,1376,2428,14196,-1056,35,20
764.789999999,1512,2472,14284,-1021,97,38
764.799999999,1516,2316,14052,-1041,6,53
764.809999999,1500,2372,14148,-1027,35,61
764.819999999,1572,2448,14360,-1026,20,39
764.829999999,1420,2360,14440,-994,65,32
764.839999999,1408,2296,14112,-1051,41,42
764.849999999,1500,2280,14220,-982,56,34
764.859999999,1424,2364,14256,-949,68,40
764.869999999,1540,2360,14104,-988,100,41
764.879999999,1528,2220,14448,-911,101,-10
764.889999999,1516,2284,14264,-872,117,70
764.899999999,1540,2276,14312,-989,67,42
764.909999999,1440,2168,14132,-948,69,68
764.919999999,1444,2140,14132,-968,39,46
764.929999999,1500,2232,14332,-852,95,61
764.939999999,1496,2220,14240,-880,132,31
764.949999999,1500,2168,14188,-782,166,29
764.959999999,1420,2132,14308,-717,174,14
764.969999999,1476,2148,14232,-815,140,48
764.979999999,1400,2076,14024,-878,35,36
764.989999999,1488,2024,14124,-754,-102,74
764.999999999,1520,1908,14252,-511,25,34
765.009999999,1588,2088,14356,-278,201,22
765.019999999,1648,2012,14516,-249,399,-17
765.029999999,1584,2168,14284,-161,236,-4
765.039999999,1524,2012,14108,-347,69,45
765.049999999,1448,2104,14128,-280,4,67
765.059999999,1552,2092,14456,92,198,-10
765.069999999,1476,2120,14540,50,372,28
765.079999999,1452,2176,13660,-863,98,106
765.089999999,1632,2076,14596,1113,575,-106
765.099999999,1288,2160,13876,140,-161,55
765.109999999,1716,1812,14384,680,274,4
765.119999999,1416,2144,14124,994,616,-66
765.129999999,1364,1856,13700,-25,-167,141
765.139999999,1624,2004,13908,945,521,3
765.149999999,1520,2128,14372,1576,833,-128
765.159999999,1424,2372,14556,1944,722,-101
765.169999999,1332,2356,14140,1898,616,-123
765.179999999,1440,2352,14096,1809,619,-69
765.189999999,1376,2332,14160,2061,623,-28
765.199999999,1420,2460,14316,2221,517,-40
765.209999999,1464,2460,14124,2354,556,-30
765.219999999,1432,2496,14080,2370,736,-88
765.229999999,1492,2604,14176,2375,901,-122
765.239999999,1368,2712,14080,2405,929,-139
765.249999999,1432,2728,14232,2333,777,-169
765.259999999,1412,2832,14456,2186,772,-228
765.269999999,1360,2816,14368,1947,692,-197
765.279999999,1368,2928,14240,1712,686,-181
765.289999999,1372,2844,14168,1546,657,-168
765.299999999,1320,2936,14272,1430,606,-147
765.309999999,1360,3016,14312,1261,501,-111
765.319999999,1344,3008,14000,1160,478,-92
765.329999999,1276,2912,14000,1201,490,-89
765.339999999,1316,3044,14012,1265,463,-75
765.349999999,1316,3008,14032,1363,494,-66
765.359999999,1388,3124,14112,1562,519,-68
765.369999999,1344,3220,14200,1733,592,-112
765.379999999,1232,3316,14064,1947,596,-114
765.389999999,1256,3288,14260,1824,560,-115
765.399999999,1252,3316,14408,1928,920,-148
765.409999999,1204,3504,13888,1068,595,-28
765.419999999,1236,3336,14112,1008,603,-46
765.429999999,1112,3364,14028,1077,603,-111
765.439999999,1172,3428,13924,921,353,-89
765.449999999,1228,3472,14012,1182,470,-89
765.459999999,1272,3448,14184,1197,455,-69
765.469999999,1132,3540,14076,1067,461,-60
765.479999999,1184,3556,14064,995,368,-51
765.489999999,1236,3608,14040,883,318,-75
765.499999999,1132,3708,13956,858,366,-75
765.509999999,1176,3628,14000,1029,369,-114
765.519999999,1076,3664,14184,1050,441,-134
765.529999999,1236,3684,14140,1061,469,-145
765.539999999,1196,3688,14064,948,481,-112
765.549999999,1132,3768,14024,832,442,-114
765.559999999,1188,3540,13996,805,430,-89
765.569999999,1016,3784,13936,828,473,-79
765.579999999,1144,3716,14020,742,420,-80
765.589999999,1204,3808,13820,725,437,-84
765.599999999,1160,3720,13832,770,465,-97
765.609999999,1208,3804,14156,811,489,-89
765.619999999,1076,3780,13920,789,485,-94
765.629999999,1216,3948,14044,684,431,-83
765.639999999,996,3868,13936,677,439,-57
765.649999999,1160,3924,14008,647,421,-49
765.659999999,1148,3920,13980,563,396,-58
765.669999999,1148,3892,13952,626,385,-21
765.679999999,1012,4012,13900,661,375,-20
765.689999999,1132,4024,14004,592,359,-66
765.699999999,1020,4056,13976,579,419,-33
765.709999999,1076,4060,14068,598,425,-35
765.719999999,1104,4032,13952,591,399,-60
765.729999999,996,3956,13880,489,363,-29
765.739999999,1144,4052,13868,465,365,-25
765.749999999,1056,4056,13956,414,371,-22
765.759999999,988,4056,13980,397,348,-71
765.769999999,1028,4056,13880,394,354,-49
765.779999999,1076,4104,13976,397,393,-66
765.789999999,1028,4172,13908,386,363,-52
765.799999999,1012,4188,13860,361,385,-67
765.809999999,996,4104,13888,344,343,-31
765.819999999,1136,4208,13984,325,311,-16
765.829999999,1040,4156,14136,283,327,-57
765.839999999,1084,4052,13896,305,295,-32
765.849999999,1020,4088,13924,300,341,-38
765.859999999,924,4176,13824,288,311,-41
765.869999999,972,4284,13912,237,338,-64
765.879999999,960,4364,13852,239,341,-25
765.889999999,984,4300,13920,261,326,-35
765.899999999,992,4180,13800,197,335,-59
765.909999999,944,4316,13996,155,342,-68
765.919999999,1028,4300,13864,191,340,-36
765.929999999,1056,4292,13932,144,365,-17
765.939999999,940,4328,13816,166,335,-17
765.949999999,900,4200,13828,136,365,-3
765.959999999,956,4244,13876,153,327,-39
765.969999999,952,4368,13864,154,326,-27
765.979999999,900,4260,13868,127,335,-24
765.989999999,956,4276,14028,163,341,-25
765.999999999,920,4272,13732,117,345,-23
766.009999999,1016,4396,13976,-6,309,-15
766.019999999,920,4184,13840,-126,264,24
766.029999999,980,4328,13836,-185,193,1
766.039999999,976,4240,13832,-130,247,-14
766.049999999,1060,4332,13944,82,397,-46
766.059999999,1076,4296,13992,221,453,-57
766.069999999,876,4336,13900,50,370,-64
766.079999999,832,4340,13772,-160,296,-2
766.089999999,904,4360,13760,-240,211,-12
766.099999999,936,4320,14052,-166,158,16
766.109999999,932,4352,13912,-403,67,84
766.119999999,868,4188,13376,-1123,-113,154
766.129999999,1168,4172,14048,-392,390,5
766.139999999,860,4508,14456,397,510,-112
766.149999999,896,4332,13924,-266,-84,55
766.159999999,1052,4244,13852,-472,-78,84
766.169999999,948,4352,13684,-607,76,123
766.179999999,956,4116,13528,-1012,-173,192
766.189999999,1020,3960,13600,-623,-63,164
766.199999999,1100,4300,13916,-269,106,49
766.209999999,1088,4224,14116,-82,-44,33
766.219999999,1016,4244,14204,-239,-137,93
766.229999999,920,4208,14104,-326,-69,95
766.239999999,1012,4252,13992,-354,-85,139
766.249999999,1020,4292,13908,-428,0,85
766.259999999,1072,4404,13916,-411,76,68
766.269999999,1040,4368,13804,-413,154,31
766.279999999,1076,4300,13768,-455,140,78
766.289999999,1044,4172,13904,-396,104,67
766.299999999,1044,4156,13792,-319,122,56
766.309999999,1092,4104,13956,-339,63,67
766.319999999,1068,4220,13856,-399,67,66
766.329999999,996,4216,14040,-496,65,73
766.339999999,1184,4232,14128,-621,134,59
766.349999999,1044,4192,13988,-876,113,79
766.359999999,1028,4156,13916,-1030,83,107
766.369999999,1128,4108,13968,-1113,58,114
766.379999999,1000,4084,13932,-1289,19,144
766.389999999,1108,4032,14060,-1350,0,125
766.399999999,1064,4016,14096,-1382,-32,141
766.409999999,1140,3964,14044,-1384,-64,147
766.419999999,1052,3968,14004,-1329,-56,161
766.429999999,1020,3960,14004,-1343,40,157
766.439999999,992,3968,13760,-1355,64,171
766.449999999,1016,3936,13896,-1214,25,142
766.459999999,1140,4000,13952,-1379,-68,139
766.469999999,1124,3844,14244,-1114,287,89
766.479999999,1040,3896,13860,-1493,57,163
766.489999999,1104,3684,13736,-1986,-221,232
766.499999999,1196,3704,14036,-1508,66,123
766.509999999,1232,3756,14000,-1127,1,122
766.519999999,1136,3704,14136,-1290,-62,125
766.529999999,1148,3724,13996,-1505,-77,150
766.539999999,1252,3612,14008,-1660,-129,186
766.549999999,1212,3704,13976,-1648,-65,173
766.559999999,1132,3540,14048,-1613,-140,188
766.569999999,1204,3604,14180,-1525,-71,148
766.579999999,1280,3584,14120,-1548,-6,146
766.589999999,1192,3480,14132,-1640,-102,141
766.599999999,1148,3452,14092,-1648,-91,171
766.609999999,1240,3440,14164,-1665,-120,155
766.619999999,1196,3252,13988,-1736,-154,210
766.629999999,1220,3268,14076,-1728,-158,168
766.639999999,1320,3352,14084,-1661,-125,184
766.649999999,1216,3228,14080,-1502,-20,129
766.659999999,1148,3232,14144,-1472,-51,111
766.669999999,1288,3180,14088,-1652,-104,134
766.679999999,1184,3116,14164,-1501,-29,104
766.689999999,1232,3192,14100,-1456,-78,114
766.699999999,1280,3076,14064,-1527,-79,136
766.709999999,1228,3124,14264,-1467,-53,130
766.719999999,1256,3120,14152,-1501,-96,121
766.729999999,1376,3032,14104,-1546,-51,114
766.739999999,1308,3068,14152,-1533,-2,113
766.749999999,1300,3012,14216,-1523,-19,96
766.759999999,1388,2972,14088,-1475,-86,117
766.769999999,1324,2976,14244,-1453,-36,92
766.779999999,1304,2892,14316,-1347,-6,96
766.789999999,1216,2928,14396,-1317,32,48
766.799999999,1272,2804,14136,-1411,7,76
766.809999999,1240,2652,14124,-1357,-22,70
766.819999999,1432,2864,13976,-1378,-15,77
766.829999999,1300,2688,14164,-1267,-97,80
766.839999999,1312,2716,14180,-1236,-22,92
766.849999999,1292,2700,14248,-1208,35,93
766.859999999,1336,2752,14112,-1204,-33,58
766.869999999,1432,2760,14144,-1188,3,77
766.879999999,1452,2676,14140,-1145,41,45
766.889999999,1368,2644,14264,-1164,-28,42
766.899999999,1392,2652,14148,-1200,32,33
766.909999999,1360,2552,14240,-1225,27,48
766.919999999,1368,2516,14192,-1224,-15,38
766.929999999,1404,2512,14148,-1159,9,65
766.939999999,1384,2492,14148,-1210,19,25
766.949999999,1344,2536,14176,-1259,57,25
766.959999999,1216,2400,14156,-1273,-46,61
766.969999999,1400,2440,14104,-1321,-24,52
766.979999999,1416,2468,14088,-1244,29,45
766.989999999,1516,2372,14252,-1226,11,36
766.999999999,1400,2408,14312,-1267,7,38
767.009999999,1488,2292,14196,-1276,34,23
767.019999999,1396,2420,14360,-1246,41,42
767.029999999,1384,2312,14236,-1383,54,59
767.039999999,1444,2328,14364,-1290,50,25
767.049999999,1428,2356,14296,-1341,66,23
767.059999999,1524,2196,14428,-1395,39,19
767.069999999,1460,2116,14276,-1436,20,12
767.079999999,1428,2228,14296,-1570,-10,44
767.089999999,1364,2072,14132,-1563,-127,13
767.099999999,1484,2044,14192,-1377,-76,46
767.109999999,1488,2072,14368,-1327,-47,45
767.119999999,1468,2024,14276,-1148,-35,26
767.129999999,1420,2128,14280,-1054,19,46
767.139999999,1520,2072,14268,-1014,53,23
767.149999999,1580,1928,14088,-955,-8,17
767.159999999,1444,1956,14168,-914,-42,43
767.169999999,1536,1980,14288,-1148,-189,74
767.179999999,1436,1832,14212,-994,105,68
767.189999999,1556,1840,14184,-571,101,6
767.199999999,1492,1916,14324,-301,132,22
767.209999999,1596,1888,14432,-356,162,-4
767.219999999,1472,1952,14324,-626,-75,56
767.229999999,1420,1856,14296,-799,-1,73
767.239999999,1468,1772,14104,-371,81,14
767.249999999,1620,1856,14464,-270,150,26
767.259999999,1356,1800,14476,-477,211,81
767.269999999,1468,2004,13880,-1197,83,94
767.279999999,1636,1640,14092,-976,-36,95
767.289999999,1672,1744,14660,480,312,-57
767.299999999,1524,1876,13960,-241,-117,44
767.309999999,1672,1696,14336,-356,-34,64
767.319999999,1528,1800,14312,322,443,-5
767.329999999,1356,1780,13548,-594,-391,122
767.339999999,1592,1624,14032,-261,-37,114
767.349999999,1556,1784,14508,459,621,-28
767.359999999,1576,1860,14732,792,680,-85
767.369999999,1436,2032,14452,603,415,-24
767.379999999,1452,1952,14440,250,280,14
767.389999999,1444,1920,14244,184,371,40
767.399999999,1544,1896,14380,-133,245,82
767.409999999,1476,1896,14308,-223,178,62
767.419999999,1548,1824,14236,-164,200,17
767.429999999,1512,1892,14164,-143,201,24
767.439999999,1540,1860,14120,-17,260,56
767.449999999,1712,1884,14196,297,362,-7
767.459999999,1532,1776,14272,544,334,1
767.469999999,1572,1880,14408,672,305,-26
767.479999999,1512,1908,14412,689,342,-22
767.489999999,1608,1872,14376,620,291,-17
767.499999999,1536,1948,14320,603,420,-27
767.509999999,1536,1944,14380,508,397,-12
767.519999999,1576,1944,14248,423,316,-4
767.529999999,1596,1904,14116,389,306,2
767.539999999,1556,1900,14324,336,254,4
767.549999999,1512,1912,14224,410,303,9
767.559999999,1476,2056,14204,521,314,10
767.569999999,1528,1984,14084,709,341,8
767.579999999,1460,2124,14136,986,415,-19
767.589999999,1428,2200,14292,1234,469,-15
767.599999999,1460,2256,14156,1301,468,-58
767.609999999,1428,2144,14428,1420,558,-30
767.619999999,1324,2220,14192,1426,566,-26
767.629999999,1444,2324,13912,957,355,33
767.639999999,1496,2144,14172,1160,478,-9
767.649999999,1488,2216,14192,1661,570,-103
767.659999999,1360,2256,14196,1497,312,-53
767.669999999,1516,2264,14148,1896,601,-106
767.679999999,1388,2424,14260,2134,634,-113
767.689999999,1384,2496,14240,2022,654,-96
767.699999999,1464,2552,14224,1886,624,-116
767.709999999,1412,2616,14252,1820,560,-101
767.719999999,1412,2548,14140,1840,652,-146
767.729999999,1400,2688,14288,1887,695,-128
767.739999999,1472,2768,14324,1822,722,-143
767.749999999,1368,2732,14200,1517,652,-99
767.759999999,1212,2712,14196,1286,595,-89
767.769999999,1368,2784,14096,1175,551,-80
767.779999999,1344,2880,14292,1286,556,-68
767.789999999,1388,2888,14112,1233,485,-84
767.799999999,1360,2812,14196,1115,527,-86
767.809999999,1308,2848,14236,1323,623,-95
767.819999999,1284,2920,14160,1450,604,-113
767.829999999,1264,2936,14260,1480,608,-94
767.839999999,1268,3016,14084,1434,548,-79
767.849999999,1316,3224,14072,1287,500,-49
767.859999999,1384,3152,14160,1148,515,-59
767.869999999,1200,3120,14104,1375,556,-80
767.879999999,1296,3236,14160,1524,469,-66
767.889999999,1288,3368,14416,951,404,-45
767.899999999,1248,3256,14032,627,938,-99
767.909999999,1144,3152,14088,881,447,-78
767.919999999,1156,3216,14072,989,364,-69
767.929999999,1168,3324,14092,968,416,-51
767.939999999,1296,3376,14184,911,425,-44
767.949999999,1236,3316,13936,847,410,-7
767.959999999,1200,3356,13948,827,386,-47
767.969999999,1152,3344,14076,905,433,-45
767.979999999,1192,3420,13976,931,486,-78
767.989999999,1252,3364,14072,994,518,-92
767.999999999,1164,3492,14112,1114,501,-97
768.009999999,1164,3520,14088,1140,491,-116
768.019999999,1136,3472,14140,1065,488,-94
768.029999999,1148,3664,14080,1086,471,-77
768.039999999,1136,3608,14060,1072,489,-65
768.049999999,1108,3632,14052,1055,439,-81
768.059999999,1044,3604,14024,974,425,-88
768.069999999,1016,3640,14104,916,467,-73
768.079999999,1160,3644,13936,817,481,-73
768.089999999,1140,3716,14108,764,438,-104
768.099999999,1024,3712,13880,663,417,-47
768.109999999,1132,3700,14028,667,421,-58
768.119999999,1144,3724,14028,639,461,-61
768.129999999,1116,3812,14060,598,442,-88
768.139999999,1072,3888,13912,618,421,-32
768.149999999,1232,3800,13912,650,410,-44
768.159999999,1136,3844,13900,665,451,-79
768.169999999,1160,3860,13984,689,444,-62
768.179999999,1052,3928,14148,757,438,-52
768.189999999,1132,3928,14084,724,459,-47
768.199999999,1104,3900,14124,625,465,-104
768.209999999,1092,3908,14072,641,458,-50
768.219999999,1000,4032,13904,478,374,-60
768.229999999,1016,4144,13872,95,18,39
768.239999999,1032,4244,13936,50,286,-4
768.249999999,1120,4276,13816,41,303,-15
768.259999999,1104,4300,13828,12,265,0
768.269999999,960,4236,13828,-1,300,-25
768.279999999,1124,4244,13884,27,318,5
768.289999999,1012,4208,13848,46,349,-36
768.299999999,992,4236,13856,99,361,7
768.309999999,936,4252,13984,101,371,-30
768.319999999,940,4300,13876,201,359,-42
768.329999999,868,4300,13812,105,327,-45
768.339999999,1028,4268,14148,146,452,-45
768.349999999,932,4256,13816,99,488,-11
768.359999999,1084,4188,13476,-597,130,75
768.369999999,1024,4308,13948,-166,161,4
768.379999999,960,4256,13796,-221,172,35
768.389999999,944,4348,13788,-266,170,43
768.399999999,964,4336,13948,-341,182,52
768.409999999,1048,4252,13944,-293,185,6
768.419999999,932,4312,14104,-346,183,36
768.429999999,964,4188,13976,-798,149,61
768.439999999,1016,4136,13992,-927,110,59
768.449999999,1064,4236,13952,-1114,53,125
768.459999999,1020,4208,13836,-1210,58,112
768.469999999,1072,4136,14008,-1231,-21,140
768.479999999,876,4024,13932,-1286,35,125
768.489999999,1168,3816,14028,-1352,-4,151
768.499999999,1064,3700,13952,-1435,-18,147
768.509999999,1048,3692,14088,-1423,-14,154
768.519999999,1184,3608,13936,-1404,-73,145
768.529999999,1104,3536,14040,-1370,-28,145
768.539999999,1156,3632,14084,-1339,-22,121
768.549999999,1124,3624,14100,-1323,-56,126
768.559999999,1116,3528,14080,-1387,-7,148
768.569999999,1184,3420,14036,-1450,-33,128
768.579999999,1132,3484,14000,-1433,-55,134
768.589999999,1228,3412,14132,-1422,-67,103
768.599999999,1112,3372,14112,-1326,-57,119
768.609999999,1152,3360,14124,-1263,-22,151
768.619999999,1180,3304,14076,-1249,-14,116
768.629999999,1172,3348,14132,-1264,-25,127
768.639999999,1184,3300,13860,-1332,-43,109
768.649999999,1264,3368,14232,-1298,-34,123
768.659999999,1136,3216,14236,-1318,-3,98
768.669999999,1204,3164,14288,-1343,-27,105
768.679999999,1200,3224,14056,-1364,-81,148
768.689999999,1196,3128,14172,-1445,-98,122
768.699999999,1192,3208,14160,-1396,-72,136
768.709999999,1288,3080,14112,-1434,-76,113
768.719999999,1288,3084,14212,-1419,-49,112
768.729999999,1220,3092,14260,-1451,-52,132
768.739999999,1296,2972,14200,-1558,-65,79
768.749999999,1240,2928,14136,-1675,-185,86
768.759999999,1228,2924,13972,-1813,-239,115
768.769999999,1256,2804,14124,-1574,-143,102
768.779999999,1360,2812,14272,-1198,52,65
768.789999999,1428,2944,14328,-1064,86,44
768.799999999,1264,2944,14264,-1237,-3,30
768.809999999,1292,2836,14180,-1423,-189,104
768.819999999,1216,2772,14020,-1428,-234,97
768.829999999,1376,2624,14148,-1109,-92,91
768.839999999,1300,2772,14392,-1060,95,96
768.849999999,1280,2868,14032,-1664,30,184
768.859999999,1424,2712,13832,-2194,-302,156
768.869999999,1484,2604,14748,-846,258,-10
768.879999999,1256,2756,14244,-479,-179,38
768.889999999,1356,2596,13964,-1615,-613,176
768.899999999,1496,2500,14440,-809,135,37
768.909999999,1180,2556,13816,-1288,-228,169
768.919999999,1448,2348,13756,-1647,-443,186
768.929999999,1384,2316,14168,-699,170,32
768.939999999,1448,2604,14580,-347,256,10
768.949999999,1380,2604,14680,-559,125,18
768.959999999,1312,2636,14228,-852,35,79
768.969999999,1388,2564,14200,-1179,-6,99
768.979999999,1256,2500,14320,-1393,-72,127
768.989999999,1476,2488,14292,-1510,-143,137
768.999999999,1368,2360,14092,-1526,-88,111
769.009999999,1272,2196,14056,-1496,-74,78
769.019999999,1416,2292,14064,-1372,-47,79
769.029999999,1488,2272,14008,-1176,-46,70
769.039999999,1492,2208,14032,-828,-7,76
769.049999999,1556,2196,14176,-493,48,36
769.059999999,1496,2232,14492,-502,48,45
769.069999999,1536,2300,14360,-617,70,35
769.079999999,1596,2172,14268,-733,126,31
769.089999999,1500,2244,14336,-775,106,39
769.099999999,1548,2244,14344,-787,120,30
769.109999999,1456,2188,14308,-1004,42,15
769.119999999,1464,2128,14252,-990,33,51
769.129999999,1528,2224,14224,-1011,24,50
769.139999999,1592,2208,14336,-995,-33,65
769.149999999,1524,2172,14412,-804,88,4
769.159999999,1464,2128,14188,-613,136,31
769.169999999,1380,2128,14288,-561,168,42
769.179999999,1568,2236,14256,-395,196,39
769.189999999,1464,2156,14244,-465,120,19
769.199999999,1508,2036,14556,-249,359,17
769.209999999,1368,2148,14280,-419,268,31
769.219999999,1528,2060,14004,-919,35,62
769.229999999,1460,1888,14196,-638,124,49
769.239999999,1424,1980,14004,-457,80,38
769.249999999,1524,2012,14340,-209,133,-26
769.259999999,1660,2132,14284,-125,212,-7
769.269999999,1584,2020,14148,-180,148,21
769.279999999,1480,2028,14148,-191,100,16
769.289999999,1420,2100,14204,-201,48,33
769.299999999,1500,2004,14348,-51,146,-13
769.309999999,1612,2032,14240,83,223,-19
769.319999999,1536,1980,14280,298,336,-22
769.329999999,1488,2060,14304,439,412,-18
769.339999999,1532,2044,14136,489,452,-21
769.349999999,1496,2032,14304,448,424,-19
769.359999999,1448,1948,14224,566,429,-45
769.369999999,1380,2120,14072,861,444,-65
769.379999999,1432,2088,14204,984,471,-58
769.389999999,1516,2148,14288,1002,449,-49
769.399999999,1432,2160,14176,1236,548,-101
769.409999999,1432,2216,14188,1407,553,-66
769.419999999,1452,2184,14124,1441,521,-69
769.429999999,1444,2248,14220,1458,534,-77
769.439999999,1500,2328,14116,1473,612,-68
769.449999999,1508,2404,14132,1476,720,-72
769.459999999,1412,2504,14160,1583,744,-113
769.469999999,1404,2524,14180,1679,744,-117
769.479999999,1400,2460,14184,1785,762,-132
769.489999999,1408,2500,14272,1909,774,-112
769.499999999,1292,2624,14308,1960,755,-138
769.509999999,1296,2592,14224,1954,756,-144
769.519999999,1260,2708,14276,1977,745,-163
769.529999999,1348,2724,14192,1889,778,-149
769.539999999,1472,2840,14220,1836,730,-123
769.549999999,1432,2796,14000,1730,663,-130
769.559999999,1232,2820,14180,1613,627,-94
769.569999999,1344,2852,14232,1526,562,-105
769.579999999,1332,2900,14128,1505,574,-93
769.589999999,1256,2824,14168,1450,535,-96
769.599999999,1224,2964,14160,1470,478,-81
769.609999999,1252,2920,14132,1457,540,-106
769.619999999,1288,3032,14120,1478,504,-113
769.629999999,1256,3120,14120,1494,537,-81
769.639999999,1280,3136,14264,1512,617,-105
769.649999999,1320,3132,14120,1514,630,-101
769.659999999,1232,3184,14048,1292,576,-68
769.669999999,1192,3080,14156,1326,581,-89
769.679999999,1172,3260,14016,1424,584,-86
769.689999999,1252,3280,14096,1381,495,-76
769.699999999,1164,3288,14064,1295,478,-71
769.709999999,1208,3404,14040,1303,472,-52
769.719999999,1256,3304,14080,1313,497,-96
769.729999999,1168,3528,14020,1328,505,-48
769.739999999,1160,3528,13996,1328,531,-65
769.749999999,1156,3536,14044,1368,574,-74
769.759999999,1188,3524,14036,1307,590,-82
769.769999999,1116,3548,14148,1100,588,-101
769.779999999,1064,3612,14000,900,479,-41
769.789999999,1084,3504,14008,779,464,-100
769.799999999,1236,3584,14028,858,506,-112
769.809999999,1092,3648,14100,1168,658,-154
769.819999999,1160,3688,14148,1186,700,-167
769.829999999,1008,3744,13972,1041,559,-128
769.839999999,964,3756,14064,769,491,-84
769.849999999,1064,3696,14072,713,405,-74
769.859999999,1096,3808,14012,768,334,-57
769.869999999,996,3700,13940,438,331,28
769.879999999,976,3732,13544,-299,76,132
769.889999999,1340,3560,14144,316,346,-28
769.899999999,1196,3824,14624,1579,737,-159
769.909999999,928,4048,13988,930,309,-41
769.919999999,1220,3780,13904,241,30,31
769.929999999,1104,3816,13884,496,445,-15
769.939999999,948,3832,13556,-213,23,89
769.949999999,1116,3636,13484,-5,164,75
769.959999999,1120,3764,13872,617,330,7
769.969999999,1084,3916,14188,912,205,-67
769.979999999,884,3896,14152,979,120,-22
769.989999999,1128,4000,14284,806,191,-31
769.999999999,876,4084,14028,634,253,6
770.009999999,1096,4048,14096,576,242,-21
770.019999999,1104,4200,14140,421,325,-8
770.029999999,1092,4072,13968,397,422,-22
770.039999999,1028,4092,13840,321,371,-34
770.049999999,1056,4032,13756,462,288,-36
770.059999999,1124,4012,13976,621,305,-31
770.069999999,1100,3984,13940,699,320,-37
770.079999999,1076,4036,13864,714,329,-58
770.089999999,1112,4136,14036,660,319,-61
770.099999999,1148,4088,13976,576,331,-35
770.109999999,1064,4136,13928,437,337,-37
770.119999999,1060,4156,14044,410,347,-27
770.129999999,956,4164,13980,309,323,-66
770.139999999,1036,4120,13956,232,356,-26
770.149999999,984,4156,13900,178,338,-37
770.159999999,1016,4136,13828,149,327,-6
770.169999999,992,4160,13904,192,328,-28
770.179999999,968,4084,14088,221,359,-14
770.189999999,984,4208,13936,279,386,-11
770.199999999,976,4228,13948,334,403,-24
770.209999999,968,4236,13960,392,455,-66
770.219999999,968,4316,13908,418,354,-64
770.229999999,988,4316,14100,453,463,-74
770.239999999,848,4292,13704,382,523,-63
770.249999999,920,4256,13612,-296,244,24
770.259999999,904,4088,13880,174,436,-42
770.269999999,1000,4328,14100,481,438,-84
770.279999999,1012,4260,13900,367,339,-31
770.289999999,1012,4316,13928,179,311,-25
770.299999999,916,4296,13916,77,251,2
770.309999999,964,4356,13884,116,203,14
770.319999999,1092,4384,13936,148,228,-21
770.329999999,932,4324,13976,116,253,-19
770.339999999,996,4364,13924,125,246,-31
770.349999999,996,4416,13984,138,257,-31
770.359999999,876,4404,13864,51,242,2
770.369999999,1012,4284,13940,21,272,10
770.379999999,1032,4260,13852,-22,272,18
770.389999999,996,4276,13968,37,276,11
770.399999999,940,4268,13944,134,290,-31
770.409999999,900,4348,13716,52,295,-22
770.419999999,924,4336,13804,-64,266,-6
770.429999999,944,4396,13996,-28,291,0
770.439999999,904,4260,13916,-76,303,-12
770.449999999,960,4324,13896,-82,303,-15
770.459999999,912,4368,13972,-154,255,1
770.469999999,964,4408,13848,-232,251,-3
770.479999999,964,4296,13808,-237,264,6
770.489999999,1088,4388,13940,-245,255,30
770.499999999,972,4380,13924,-213,267,41
770.509999999,964,4380,13724,-222,247,8
770.519999999,776,4388,13840,-272,249,29
770.529999999,872,4340,13776,-262,211,17
770.539999999,868,4304,13936,-265,229,24
770.549999999,972,4308,13980,-291,215,20
770.559999999,924,4340,13840,-347,210,29
770.569999999,1000,4352,13880,-412,203,29
770.579999999,1044,4284,13804,-449,189,26
770.589999999,896,4304,13908,-467,186,34
770.599999999,1052,4356,13988,-522,192,40
770.609999999,896,4260,13912,-593,228,24
770.619999999,1008,4452,13808,-634,179,49
770.629999999,932,4264,13996,-730,157,30
770.639999999,904,4276,13880,-817,106,53
770.649999999,908,4296,13868,-884,89,60
770.659999999,824,4136,13940,-1098,15,125
770.669999999,1008,4204,13908,-1101,17,118
770.679999999,1012,4164,14008,-1146,40,99
770.689999999,1044,4156,13956,-1179,66,83
770.699999999,984,4200,13984,-1264,70,100
770.709999999,1056,4136,14024,-1398,60,132
770.719999999,972,4120,13916,-1521,1,133
770.729999999,1024,3936,14024,-1478,-29,123
770.739999999,1144,4016,13992,-1349,62,119
770.749999999,996,3956,14088,-1351,40,94
770.759999999,1012,3784,14128,-1337,6,131
770.769999999,896,3988,13932,-1477,14,132
770.779999999,1012,3816,14044,-1559,-58,168
770.789999999,1104,3792,14092,-1582,0,155
770.799999999,1032,3784,14008,-1636,-34,150
770.809999999,1028,3792,14052,-1645,1,137
770.819999999,1060,3712,14204,-1751,-44,129
770.829999999,992,3732,14052,-1953,-142,164
770.839999999,1112,3616,13968,-2131,-246,206
770.849999999,1160,3512,13928,-2012,-178,183
770.859999999,1088,3504,14192,-1735,-72,141
770.869999999,1064,3484,14252,-1449,13,139
770.879999999,1192,3548,14296,-1520,-48,105
770.889999999,996,3508,14032,-1682,-146,147
770.899999999,912,3328,13916,-1872,-242,172
770.909999999,1072,3308,14008,-1718,-368,192
770.919999999,1196,3380,14244,-1689,-223,179
770.929999999,1128,3424,13808,-2399,-144,293
770.939999999,1240,3200,13832,-2752,-518,263
770.949999999,1480,3040,14400,-1608,-18,96
770.959999999,1144,3288,14336,-763,-96,91
770.969999999,1096,3260,13740,-1895,-696,232
770.979999999,1404,3028,14296,-1582,-252,133
770.989999999,1100,3080,13824,-1450,-176,195
770.999999999,1168,2992,13752,-2213,-648,300
771.009999999,1344,2852,14008,-1521,-216,184
771.019999999,1288,3040,14496,-740,50,30
771.029999999,1152,3152,14468,-779,-39,45
771.039999999,1248,3216,14432,-1206,-160,129
771.049999999,1188,3084,14376,-1445,-54,170
771.059999999,1112,3016,14144,-1511,-145,161
771.069999999,1348,2868,14392,-1692,-186,160
771.079999999,1264,2872,14204,-1781,-157,195
771.089999999,1300,2828,13924,-1775,-148,121
771.099999999,1164,2704,14092,-1753,-200,122
771.109999999,1320,2580,14140,-1541,-128,147
771.119999999,1360,2596,14096,-1216,-105,137
771.129999999,1300,2536,14168,-888,35,69
771.139999999,1328,2620,14336,-728,51,59
771.149999999,1364,2484,14232,-787,13,48
771.159999999,1312,2672,14220,-922,24,67
771.169999999,1464,2688,14100,-1103,21,64
771.179999999,1332,2576,14380,-1192,22,74
771.189999999,1380,2596,14220,-1197,-14,37
771.199999999,1424,2580,14240,-1285,-38,92
771.209999999,1360,2492,14232,-1378,-16,54
771.219999999,1400,2520,14260,-1323,-46,73
771.229999999,1376,2436,13980,-1215,-42,54
771.239999999,1528,2516,14080,-1137,27,48
771.249999999,1272,2520,14244,-976,19,44
771.259999999,1388,2380,14332,-787,110,35
771.269999999,1344,2360,14400,-763,169,50
771.279999999,1280,2472,14240,-932,57,37
771.289999999,1488,2332,14380,-789,264,47
771.299999999,1280,2492,14224,-852,159,40
771.309999999,1452,2456,14064,-1292,0,82
771.319999999,1408,2248,14044,-1101,-67,41
771.329999999,1388,2296,14256,-742,26,12
771.339999999,1520,2284,14140,-683,-23,27
771.349999999,1492,2272,14268,-746,53,23
771.359999999,1396,2308,14340,-741,51,52
771.369999999,1384,2280,14340,-826,52,8
771.379999999,1416,2264,14236,-903,-64,41
771.389999999,1424,2208,14384,-908,-2,15
771.399999999,1408,2196,14244,-951,64,14
771.409999999,1436,2240,14424,-922,105,9
771.419999999,1412,2176,14316,-839,109,16
771.429999999,1560,2140,14256,-947,111,-2
771.439999999,1468,2096,14212,-1008,71,32
771.449999999,1544,2052,14328,-928,99,2
771.459999999,1464,2024,14204,-796,81,19
771.469999999,1480,2032,14272,-780,54,-7
771.479999999,1480,2048,14328,-807,105,-11
771.489999999,1396,2068,14248,-793,18,13
771.499999999,1464,2100,14308,-646,83,31
771.509999999,1456,1992,14316,-527,83,3
771.519999999,1444,2068,14276,-601,79,40
771.529999999,1472,2032,14216,-557,97,38
771.539999999,1592,2044,14252,-524,137,36
771.549999999,1556,1984,14176,-500,184,34
771.559999999,1388,2008,14208,-357,190,21
771.569999999,1420,1944,14196,-316,173,31
771.579999999,1568,1936,14212,-151,201,54
771.589999999,1452,1960,14236,12,289,20
771.599999999,1488,2024,14368,79,276,9
771.609999999,1480,1960,14216,138,277,8
771.619999999,1456,2040,14256,201,308,14
771.629999999,1504,1964,14188,290,263,-6
771.639999999,1488,1984,14152,409,304,-11
771.649999999,1376,1952,14260,617,396,-22
771.659999999,1520,2012,14120,732,420,-23
771.669999999,1472,2164,14232,854,452,-35
771.679999999,1396,2000,14124,937,411,-38
771.689999999,1492,2036,14136,1098,381,-48
771.699999999,1460,2096,14184,1325,431,-44
771.709999999,1448,2140,14200,1526,445,-55
771.719999999,1468,2180,14208,1651,509,-46
771.729999999,1488,2192,14452,1730,545,-82
771.739999999,1476,2228,14296,1736,602,-90
771.749999999,1560,2304,14328,1733,640,-73
771.759999999,1348,2340,14268,1631,574,-72
771.769999999,1332,2440,14164,1561,609,-73
771.779999999,1348,2368,14232,1520,596,-75
771.789999999,1344,2496,14392,1520,557,-53
771.799999999,1276,2480,14248,1416,557,-75
771.809999999,1316,2632,14336,1453,629,-75
771.819999999,1476,2624,14240,1416,614,-66
771.829999999,1336,2648,14292,1397,630,-84
771.839999999,1292,2692,14248,1436,609,-100
771.849999999,1220,2644,14100,1340,560,-97
771.859999999,1368,2676,13988,1289,461,-88
771.869999999,1372,2688,14164,1441,566,-62
771.879999999,1324,2808,14184,1798,696,-129
771.889999999,1332,2820,14264,2101,836,-164
771.899999999,1328,3028,14276,2120,814,-195
771.909999999,1136,2968,14148,1928,805,-152
771.919999999,1288,3072,14140,1695,684,-107
771.929999999,1400,3036,14064,1613,559,-125
771.939999999,1180,2996,14284,1580,596,-119
771.949999999,1144,3188,14232,1124,655,-24
771.959999999,1160,3108,13620,111,353,43
771.969999999,1480,3072,14676,886,657,-109
771.979999999,1264,3172,14616,1878,718,-178
771.989999999,1024,3408,13900,741,180,17
771.999999999,1332,3124,14396,683,384,-43
772.009999999,1048,3180,14112,869,593,-59
772.019999999,1048,3172,13492,-252,-145,132
772.029999999,1256,3060,13676,376,301,46
772.039999999,1224,3140,14052,1153,412,-54
772.049999999,1244,3336,14360,1422,357,-89
772.059999999,1188,3260,14240,1487,321,-93
772.069999999,1236,3520,14272,1503,437,-72
772.079999999,1052,3412,14116,1477,545,-57
772.089999999,1120,3400,14304,1317,477,-34
772.099999999,1084,3632,14252,1138,540,-60
772.109999999,1084,3576,14076,963,558,-74
772.119999999,1156,3548,13852,824,597,-58
772.129999999,1172,3596,14000,1010,510,-82
772.139999999,1148,3480,13988,1089,447,-61
772.149999999,1236,3472,14024,1191,456,-83
772.159999999,1216,3580,14136,1240,463,-74
772.169999999,1216,3648,14040,1066,446,-80
772.179999999,1156,3700,14132,958,424,-54
772.189999999,1104,3540,14016,838,407,-52
772.199999999,1088,3712,14004,750,404,-59
772.209999999,1072,3792,13972,735,421,-48
772.219999999,1072,3644,14032,647,353,-60
772.229999999,992,3676,13992,607,331,-47
772.239999999,1196,3776,13912,616,343,-50
772.249999999,1128,3804,14004,704,352,-62
772.259999999,1052,3784,13864,695,428,-35
772.269999999,1092,3896,13864,783,412,-89
772.279999999,972,3820,13836,854,480,-74
772.289999999,1012,3920,14044,924,470,-65
772.299999999,1132,3988,13936,873,402,-92
772.309999999,1128,4092,14424,1048,652,-112
772.319999999,1020,3944,14064,863,609,-77
772.329999999,1060,4068,13988,372,456,-16
772.339999999,1060,3972,13868,238,346,-34
772.349999999,1056,3972,13936,689,450,-102
772.359999999,908,4040,14132,906,459,-116
772.369999999,1064,4028,13996,634,361,-45
772.379999999,1072,3992,13972,454,306,-54
772.389999999,1068,4136,13928,504,288,-20
772.399999999,1068,4120,13996,429,246,-26
772.409999999,1156,4116,14000,434,223,2
772.419999999,1032,4088,13956,461,291,-35
772.429999999,1064,4196,13864,520,326,-66
772.439999999,1032,4144,13980,520,327,-37
772.449999999,1028,4200,14044,481,342,-39
772.459999999,912,4072,14104,388,351,-38
772.469999999,1076,4148,13792,326,336,-20
772.479999999,1028,4132,13932,394,397,-70
772.489999999,940,4108,13948,440,341,-40
772.499999999,880,4184,13884,285,336,-10
772.509999999,936,4168,13824,275,312,-40
772.519999999,1064,4096,13876,285,374,-34
772.529999999,952,4228,13808,341,389,-44
772.539999999,908,4240,14000,317,347,-29
772.549999999,956,4308,13808,217,333,-39
772.559999999,876,4296,13808,217,316,-21
772.569999999,968,4256,13896,186,309,-41
772.579999999,1040,4344,13876,207,338,-11
772.589999999,932,4276,13996,216,355,-5
772.599999999,1004,4312,13936,203,342,-40
772.609999999,952,4284,13908,171,317,-29
772.619999999,876,4252,13816,146,316,-21
772.629999999,964,4360,13888,176,317,-32
772.639999999,924,4272,13900,114,320,-21
772.649999999,852,4212,13860,80,320,-6
772.659999999,900,4348,13800,14,317,-7
772.669999999,836,4280,13876,-9,309,-16
772.679999999,944,4256,13876,-41,307,-20
772.689999999,856,4204,13764,-64,285,-16
772.699999999,928,4316,13848,-114,306,-17
772.709999999,912,4220,13988,-103,341,1
772.719999999,1064,4268,13960,-178,299,-23
772.729999999,912,4380,13896,-190,263,-3
772.739999999,888,4364,13840,-289,213,9
772.749999999,896,4356,13924,-316,191,6
772.759999999,908,4388,13916,-366,224,25
772.769999999,984,4324,14036,-450,233,6
772.779999999,908,4324,14048,-509,205,23
772.789999999,872,4288,13996,-643,204,36
772.799999999,920,4340,13972,-799,168,43
772.809999999,892,4288,13844,-870,116,69
772.819999999,872,4412,13972,-957,89,94
772.829999999,876,4260,14012,-1025,62,80
772.839999999,932,4180,13924,-1117,99,117
772.849999999,1012,4272,13764,-1307,52,135
772.859999999,880,4084,13944,-1389,-36,156
772.869999999,940,4200,13896,-1342,-82,145
772.879999999,964,4040,14100,-1412,-38,193
772.889999999,1000,4056,13936,-1475,-48,146
772.899999999,1032,4016,13920,-1454,-38,134
772.909999999,996,4052,14096,-1455,-24,143
772.919999999,908,3924,14124,-1458,21,148
772.929999999,1020,3976,14076,-1439,59,153
772.939999999,968,3924,14060,-1520,-3,154
772.949999999,1032,3944,13940,-1627,-42,150
772.959999999,1056,3808,13912,-1676,-148,177
772.969999999,1036,3784,13796,-1582,-77,149
772.979999999,1092,3708,14128,-1317,45,113
772.989999999,1060,3812,14100,-1119,153,97
772.999999999,1012,3852,14032,-1186,74,100
773.009999999,1080,3796,13996,-1460,-72,126
773.019999999,1012,3684,13880,-1521,-225,195
773.029999999,1072,3684,14224,-1293,-143,179
773.039999999,1044,3672,14080,-1578,-24,228
773.049999999,1032,3684,13696,-2469,-223,257
773.059999999,1312,3420,14128,-1893,-5,117
773.069999999,1196,3552,14488,-740,156,49
773.079999999,1044,3472,13624,-1813,-577,230
773.089999999,1276,3308,14224,-1765,-329,165
773.099999999,1008,3348,13968,-1406,-108,156
773.109999999,1148,3324,13644,-2233,-608,305
773.119999999,1228,3196,13924,-1504,-160,183
773.129999999,1268,3316,14336,-875,15,76
773.139999999,1104,3472,14324,-1065,-180,123
773.149999999,1196,3412,14368,-1168,-125,136
773.159999999,1148,3332,14244,-1207,9,147
773.169999999,1144,3316,14216,-1378,-117,165
773.179999999,1192,3204,14332,-1522,-176,173
773.189999999,1204,3068,14196,-1658,-40,179
773.199999999,1044,3056,13972,-1759,-108,158
773.209999999,1156,2988,13884,-1697,-144,173
773.219999999,1224,2832,13872,-1444,-202,144
773.229999999,1308,2912,14068,-1109,-59,132
773.239999999,1372,2884,14280,-863,-12,75
773.249999999,1268,3016,14332,-848,10,64
773.259999999,1288,3028,14188,-1010,-13,86
773.269999999,1280,2876,14344,-1152,-24,97
773.279999999,1292,2880,14204,-1155,13,78
773.289999999,1304,2896,14200,-1231,0,66
773.299999999,1308,2840,14052,-1371,-63,83
773.309999999,1232,2832,14216,-1346,-19,77
773.319999999,1276,2868,13992,-1406,-67,97
773.329999999,1360,2744,14160,-1332,-16,62
773.339999999,1300,2812,14168,-1222,-14,42
773.349999999,1248,2792,14112,-1124,-18,70
773.359999999,1268,2668,14184,-966,66,45
773.369999999,1300,2672,14248,-818,110,58
773.379999999,1308,2772,14120,-737,169,18
773.389999999,1368,2732,14172,-837,82,55
773.399999999,1276,2644,14280,-666,288,-24
773.409999999,1268,2788,14084,-1024,55,64
773.419999999,1420,2636,13924,-1422,-28,88
773.429999999,1392,2576,14080,-1187,-60,37
773.439999999,1348,2572,14356,-729,-36,35
773.449999999,1332,2576,14232,-869,-38,37
773.459999999,1448,2632,14156,-991,-13,52
773.469999999,1308,2408,14376,-1030,-7,40
773.479999999,1368,2480,14244,-1113,-42,23
773.489999999,1404,2516,14168,-1137,-26,56
773.499999999,1384,2476,14192,-1153,5,33
773.509999999,1244,2404,14332,-1065,8,38
773.519999999,1476,2452,14184,-1074,34,13
773.529999999,1320,2340,14136,-1032,30,12
773.539999999,1300,2300,14376,-1080,49,30
773.549999999,1380,2344,14356,-1125,1,31
773.559999999,1360,2300,14416,-1151,-8,48
773.569999999,1484,2256,14352,-1083,44,28
773.579999999,1428,2304,14168,-1055,46,20
773.589999999,1404,2184,14208,-1052,5,42
773.599999999,1520,2212,14252,-1004,12,35
773.609999999,1444,2144,14300,-943,19,21
773.619999999,1548,2212,14288,-1002,43,40
773.629999999,1404,2120,14280,-1070,-54,49
773.639999999,1364,2144,14272,-1116,-10,59
773.649999999,1392,2124,14268,-1086,-40,52
773.659999999,1464,2116,14172,-1042,-2,63
773.669999999,1500,2092,14248,-1032,61,39
773.679999999,1480,2120,14208,-986,51,55
773.689999999,1348,2060,14424,-935,10,27
773.699999999,1456,2044,14332,-859,71,46
773.709999999,1412,2068,14260,-791,108,51
773.719999999,1584,2048,14348,-713,58,34
773.729999999,1432,2096,14332,-750,78,80
773.739999999,1464,1988,14212,-631,135,36
773.749999999,1432,1988,14232,-648,107,35
773.759999999,1528,1888,14308,-512,131,50
773.769999999,1344,2024,14252,-408,152,11
773.779999999,1496,1884,14236,-441,142,51
773.789999999,1520,1856,14196,-296,127,11
773.799999999,1540,1884,14232,-178,151,4
773.809999999,1524,1884,14144,-19,156,26
773.819999999,1436,1924,14236,130,230,-5
773.829999999,1380,1828,14268,319,316,-9
773.839999999,1512,1812,14192,382,332,9
773.849999999,1424,1936,14248,470,382,-15
773.859999999,1520,1936,14096,510,368,-15
773.869999999,1444,1852,14344,623,437,-46
773.879999999,1520,2012,14176,650,424,-32
773.889999999,1396,1996,14300,771,476,-44
773.899999999,1392,2000,14124,794,376,-7
773.909999999,1340,2036,14344,857,431,-33
773.919999999,1332,2136,14232,941,417,1
773.929999999,1540,2160,14272,1008,415,-33
773.939999999,1448,2160,14248,1142,425,-38
773.949999999,1424,2176,14280,1301,476,-51
773.959999999,1488,2212,14336,1368,511,-62
773.969999999,1520,2340,14120,1476,629,-86
773.979999999,1388,2252,14240,1488,578,-63
773.989999999,1352,2316,14276,1494,626,-101
773.999999999,1408,2364,14244,1554,603,-94
774.009999999,1336,2416,14316,1517,621,-69
774.019999999,1364,2344,14264,1310,507,-68
774.029999999,1388,2456,14176,1276,425,-36
774.039999999,1300,2460,13984,1404,461,-55
774.049999999,1388,2524,14436,1715,655,-115
774.059999999,1376,2588,14392,1831,653,-119
774.069999999,1360,2796,14220,1726,639,-88
774.079999999,1256,2660,14152,1570,552,-64
774.089999999,1216,2700,13936,1476,438,-51
774.099999999,1400,2752,14196,1732,494,-76
774.109999999,1236,2716,14336,1832,631,-114
774.119999999,1244,2800,14144,1369,698,-20
774.129999999,1356,2896,13644,638,423,-9
774.139999999,1528,2688,14616,1661,769,-169
774.149999999,1248,2972,14524,2570,763,-175
774.159999999,1320,3196,14132,1216,322,-64
774.169999999,1388,3052,14628,1604,976,-182
774.179999999,1008,3252,13748,750,277,13
774.189999999,1356,2992,13528,-45,-59,105
774.199999999,1344,2844,13840,899,436,-19
774.209999999,1204,2984,14124,1546,418,-67
774.219999999,1168,3120,14472,1685,421,-92
774.229999999,1204,3248,14316,1516,398,-46
774.239999999,1140,3256,14188,1396,550,-41
774.249999999,1148,3368,14364,1378,581,-44
774.259999999,1148,3472,14236,1115,410,-23
774.269999999,1176,3456,14180,951,537,-67
774.279999999,1164,3248,13972,822,549,-72
774.289999999,1052,3344,13928,937,599,-55
774.299999999,1200,3384,14056,1045,519,-58
774.309999999,1272,3424,14060,1212,488,-51
774.319999999,1208,3344,14032,1351,460,-59
774.329999999,1304,3384,14136,1409,444,-100
774.339999999,1248,3448,14104,1327,401,-100
774.349999999,1140,3552,14120,1151,463,-76
774.359999999,1228,3600,14276,1113,460,-80
774.369999999,1136,3676,13944,961,514,-83
774.379999999,1168,3664,14068,843,445,-67
774.389999999,1104,3712,14204,699,385,-43
774.399999999,1104,3544,13860,625,367,-77
774.409999999,1120,3560,14076,604,412,-45
774.419999999,1204,3700,13988,663,345,-34
774.429999999,1016,3744,13908,725,364,-25
774.439999999,1064,3764,13876,814,422,-55
774.449999999,1076,3808,14024,928,458,-54
774.459999999,1044,3824,13964,955,417,-74
774.469999999,1112,3852,14320,1084,567,-122
774.479999999,872,3900,14068,1106,715,-79
774.489999999,1164,3912,13820,502,419,-11
774.499999999,1100,4008,14004,886,358,-105
774.509999999,1060,3848,13936,619,369,-48
774.519999999,996,3972,13972,584,347,-32
774.529999999,984,3988,13964,502,253,-13
774.539999999,1032,3984,13960,501,306,-32
774.549999999,1092,3972,14052,521,334,-66
774.559999999,1128,4056,13944,633,328,-57
774.569999999,1156,4184,13924,433,358,-47
774.579999999,996,4100,13904,433,393,-19
774.589999999,1048,3996,14044,558,372,-47
774.599999999,956,4056,13880,482,358,-37
774.609999999,1096,4140,13960,336,323,-36
774.619999999,1052,4060,14016,422,396,-30
774.629999999,1024,4192,13960,434,435,-76
774.639999999,976,4132,14012,444,372,-58
774.649999999,980,4148,13908,368,359,-32
774.659999999,1004,4156,13940,307,349,-38
774.669999999,1024,4160,13912,267,334,-21
774.679999999,904,4108,13924,245,312,-3
774.689999999,960,4208,13900,313,336,-13
774.699999999,904,4212,13824,349,335,7
774.709999999,1000,4260,13932,272,316,-13
774.719999999,1000,4180,13868,258,374,-19
774.729999999,944,4212,13896,332,354,-19
774.739999999,1040,4192,13980,272,338,-69
774.749999999,1008,4240,13916,246,341,-1
774.759999999,864,4348,13820,212,317,-14
774.769999999,916,4308,13936,152,317,-7
774.779999999,888,4252,13896,128,344,-47
774.789999999,1036,4252,13912,152,323,-15
774.799999999,984,4364,13880,163,328,-36
774.809999999,956,4252,13960,112,326,-29
774.819999999,972,4428,13872,146,349,-35
774.829999999,1004,4276,13808,125,298,-45
774.839999999,984,4392,13980,97,306,-41
774.849999999,1008,4412,13720,76,292,-32
774.859999999,880,4396,13932,80,299,-11
774.869999999,996,4260,13840,50,305,28
774.879999999,756,4312,13952,23,295,-4
774.889999999,968,4428,13880,21,293,-15
774.899999999,884,4336,14124,-34,304,-28
774.909999999,976,4360,13924,-69,303,-43
774.919999999,936,4416,13828,-92,289,-11
774.929999999,840,4368,13800,-106,296,3
774.939999999,860,4332,13920,-145,292,-2
774.949999999,868,4324,13852,-203,274,10
774.959999999,932,4364,14020,-200,266,-7
774.969999999,884,4372,13872,-244,245,16
774.979999999,956,4372,13876,-260,229,23
774.989999999,888,4332,13952,-276,259,11
774.999999999,892,4252,13876,-334,232,18
775.009999999,904,4304,13912,-356,214,23
775.019999999,936,4272,13860,-393,188,24
775.029999999,932,4328,13884,-431,196,49
775.039999999,948,4296,13904,-430,176,34
775.049999999,904,4296,13940,-433,157,51
775.059999999,868,4400,13976,-483,162,37
775.069999999,928,4412,13964,-543,207,53
775.079999999,876,4320,13924,-594,196,68
775.089999999,908,4248,14120,-619,198,23
775.099999999,980,4260,13936,-664,201,31
775.109999999,932,4304,14032,-687,163,1
775.119999999,976,4244,14060,-714,175,51
775.129999999,852,4276,13956,-877,101,68
775.139999999,896,4188,13912,-1008,43,88
775.149999999,916,4072,13744,-1118,-32,112
775.159999999,1040,4064,13892,-1079,36,93
775.169999999,916,4140,14220,-837,184,58
775.179999999,920,4216,14060,-731,218,45
775.189999999,856,4056,14036,-891,171,74
775.199999999,824,4152,13960,-1073,64,93
775.209999999,816,4024,13832,-1185,6,94
775.219999999,1124,4056,13964,-1112,-41,84
775.229999999,984,4108,14096,-1099,-53,140
775.239999999,892,3976,13868,-1531,57,222
775.249999999,920,3836,13572,-1977,-145,230
775.259999999,880,4056,13988,-921,-206,114
775.269999999,1076,3800,13784,-1638,-390,205
775.279999999,1044,3844,14016,-1212,65,156
775.289999999,832,3776,13376,-1848,-333,272
775.299999999,1048,3604,13748,-1734,-389,256
775.309999999,1148,3596,13948,-939,-113,137
775.319999999,1044,3788,14244,-614,-195,95
775.329999999,1036,3812,14232,-750,-267,164
775.339999999,1000,3644,13940,-1395,107,118
775.349999999,1092,3704,13896,-1505,46,154
775.359999999,1188,3576,13772,-1492,-58,206
775.369999999,1012,3452,13992,-1086,-108,148
775.379999999,1072,3480,14176,-864,9,126
775.389999999,1084,3460,14124,-844,33,128
775.399999999,984,3476,14180,-971,29,118
775.409999999,1056,3456,14180,-1128,40,98
775.419999999,1216,3432,14192,-1276,57,112
775.429999999,1184,3452,14260,-1360,7,103
775.439999999,1108,3356,13968,-1334,6,118
775.449999999,1052,3416,14048,-1297,-68,104
775.459999999,1164,3168,14352,-745,276,36
775.469999999,1040,3320,14120,-959,84,81
775.479999999,1124,3256,14024,-1542,-99,153
775.489999999,1352,2500,14316,-729,57,75
775.499999999,1388,2620,14160,-699,114,40
775.509999999,1332,2508,14176,-632,98,32
775.519999999,1336,2468,14280,-621,107,55
775.529999999,1384,2456,14200,-531,105,36
775.539999999,1348,2372,14264,-559,98,28
775.549999999,1412,2348,14164,-526,125,43
775.559999999,1428,2416,14220,-501,81,39
775.569999999,1376,2340,14316,-410,160,14
775.579999999,1368,2336,14184,-215,192,28
775.589999999,1344,2400,14328,706,452,-15
775.599999999,1420,2524,14292,815,467,-47
775.609999999,1344,2472,14212,962,552,-102
775.619999999,1344,2480,14148,959,554,-71
775.629999999,1388,2508,14184,920,485,-69
775.639999999,1408,2476,14088,874,390,-46
775.649999999,1428,2556,14008,898,383,-55
775.659999999,1376,2520,14248,1142,472,-87
775.669999999,1372,2620,14296,1526,653,-118
775.679999999,1260,2764,14260,1567,642,-116
775.689999999,1308,2688,14212,1486,569,-88
775.699999999,1216,2724,14036,1431,530,-82
775.709999999,1356,2628,14008,1606,550,-75
775.719999999,1336,2772,14292,1952,679,-156
775.729999999,1240,2872,14268,1868,790,-62
775.739999999,1196,3000,13616,971,760,-45
775.749999999,1416,2760,14152,1060,599,-77
775.759999999,1500,2892,14512,2400,911,-220
775.769999999,1268,3244,14212,2374,517,-141
775.779999999,1280,3156,13960,1463,280,-83
775.789999999,1276,3140,14504,2001,923,-181
775.799999999,856,3192,13676,1076,353,15
775.809999999,1236,3096,13660,694,326,29
775.819999999,1280,3172,13996,1673,613,-89
775.829999999,1200,3260,14300,1989,534,-107
775.839999999,1236,3380,14340,1893,404,-91
775.849999999,1148,3408,14160,1722,508,-83
775.859999999,1136,3452,14156,1587,619,-100
775.869999999,1020,3520,14316,1412,547,-87
775.879999999,1156,3604,14384,1232,528,-78
775.889999999,1144,3552,14036,986,624,-74
775.899999999,1092,3552,14020,966,627,-84
775.909999999,1052,3400,13896,1150,491,-109
775.919999999,1088,3616,13988,1315,485,-88
775.929999999,1148,4032,14380,1023,674,-115
775.939999999,944,4092,13804,749,557,-56
775.949999999,928,4088,13820,372,480,-75
775.959999999,888,4152,13952,379,298,-46
775.969999999,1076,4212,13904,460,329,-44
775.979999999,996,4092,13940,498,359,-73
775.989999999,1000,4256,13916,333,351,-53
775.999999999,888,4340,13964,36,290,-23
776.009999999,824,4324,13888,75,312,0
776.019999999,848,4412,13856,21,296,-21
776.029999999,812,4356,13948,-40,256,0
776.039999999,844,4436,13880,-160,298,4
776.049999999,912,4360,13804,-135,281,-14
776.059999999,948,4552,13840,-155,241,26
776.069999999,804,4432,13936,-167,251,28
776.079999999,912,4372,13852,-196,230,-6
776.089999999,912,4456,13928,-194,254,25
776.099999999,788,4400,13976,-181,240,7
776.109999999,848,4316,13828,-236,222,16
776.119999999,888,4432,13816,-255,238,16
776.129999999,896,4352,13856,-278,206,18
776.139999999,928,4448,13700,-264,200,11
776.149999999,844,4340,13836,-264,212,6
776.159999999,856,4476,13960,-272,247,-16
776.169999999,844,4356,14048,-289,241,-4
776.179999999,924,4372,13916,-359,253,15
776.189999999,904,4380,13872,-467,216,2
776.199999999,832,4420,13712,-594,158,43
776.209999999,900,4300,13820,-690,112,54
776.219999999,912,4356,13980,-511,192,47
776.229999999,932,4380,14052,-393,313,-17
776.239999999,724,4344,14104,-572,188,6
776.249999999,768,4308,13924,-717,145,49
776.259999999,888,4212,13852,-913,85,57
776.269999999,932,4312,13924,-859,43,65
776.279999999,868,4256,14044,-883,-57,140
776.289999999,840,4400,13856,-1335,77,181
776.299999999,876,4220,13400,-1842,-180,205
776.309999999,1124,4220,14412,-896,200,70
776.319999999,896,4372,14140,-320,131,13
776.329999999,780,4176,13780,-1306,-376,177
776.339999999,1028,4132,14064,-1159,-50,149
776.349999999,784,4072,13660,-1284,-102,192
776.359999999,912,3860,13536,-1683,-384,238
776.369999999,1076,3864,13652,-993,-89,154
776.379999999,1032,4012,14064,-551,-57,92
776.389999999,904,4088,14148,-577,-232,94
776.399999999,1044,4120,14028,-733,-226,144
776.409999999,904,4116,14124,-796,-113,135
776.419999999,908,4084,14188,-832,-79,122
776.429999999,904,4080,14044,-995,-84,143
776.439999999,1012,4120,13968,-1032,27,144
776.449999999,896,3980,13768,-1043,86,89
776.459999999,944,3828,13720,-1089,16,131
776.469999999,1004,3884,13800,-1005,5,133
776.479999999,984,3724,13980,-871,-64,141
776.489999999,1076,3748,13988,-747,-11,103
776.499999999,1056,3916,14132,-688,19,99
776.509999999,1024,3820,14228,-684,57,62
776.519999999,1072,3852,14100,-915,77,120
776.529999999,1044,3756,14132,-1041,121,89
776.539999999,1024,3816,13944,-1147,99,99
776.549999999,904,3764,14048,-1298,43,108
776.559999999,1040,3712,13932,-1375,-61,151
776.569999999,1000,3648,14032,-1395,-53,125
776.579999999,1020,3596,13880,-1344,-42,180
776.589999999,1120,3660,13968,-1309,-2,116
776.599999999,1088,3668,14160,-1179,91,109
776.609999999,1000,3680,13996,-1228,25,102
776.619999999,960,3456,14052,-1206,27,120
776.629999999,1004,3540,14064,-1011,54,80
776.639999999,1096,3620,14108,-1065,40,96
776.649999999,1088,3484,14180,-1096,107,74
776.659999999,1084,3564,14112,-987,265,81
776.669999999,1044,3532,13920,-1663,-84,163
776.679999999,1072,3328,13840,-1709,-159,111
776.689999999,1148,3324,14196,-859,-4,20
776.699999999,1160,3332,14020,-817,-98,67
776.709999999,1084,3400,14012,-970,-5,62
776.719999999,1180,3384,14016,-1060,-42,85
776.729999999,1056,3340,14212,-1065,-28,87
776.739999999,996,3312,14120,-1045,-184,126
776.749999999,1204,3300,14000,-1088,-99,99
776.759999999,1232,3204,14172,-1066,-76,94
776.769999999,1196,3264,14160,-1043,-4,86
776.779999999,1016,3280,14232,-1120,48,82
776.789999999,1100,3256,14008,-1230,-17,73
776.799999999,1164,3048,14040,-1237,-41,91
776.809999999,1180,3084,14076,-1221,-78,128
776.819999999,1348,3016,14076,-1127,-155,86
776.829999999,1296,3000,14144,-1088,-99,96
776.839999999,1132,3024,14028,-1086,-100,88
776.849999999,1204,3004,14024,-1019,-89,102
776.859999999,1248,2972,14116,-868,-14,82
776.869999999,1224,2980,14104,-946,-84,77
776.879999999,1328,2956,14092,-1022,-62,86
776.889999999,1224,2976,14116,-1063,-34,80
776.899999999,1264,3032,14116,-1104,-11,80
776.909999999,1224,2920,14204,-1145,-19,85
776.919999999,1220,2876,14012,-1050,-45,71
776.929999999,1272,3024,14180,-960,25,51
776.939999999,1160,2940,14268,-974,-5,53
776.949999999,1208,2864,14088,-930,-38,97
776.959999999,1340,2876,14248,-905,-8,75
776.969999999,1308,2904,14196,-896,2,86
776.979999999,1312,2816,14292,-879,13,79
776.989999999,1160,2924,14252,-920,-15,61
776.999999999,1376,2820,14164,-917,25,43
777.009999999,1312,2712,14260,-906,41,57
777.019999999,1256,2708,14268,-847,39,49
777.029999999,1236,2684,14256,-843,50,58
777.039999999,1340,2688,14260,-904,8,67
777.049999999,1332,2680,14260,-813,-10,62
777.059999999,1252,2648,14256,-797,14,67
777.069999999,1344,2664,14352,-717,19,24
777.079999999,1332,2584,14348,-711,19,69
777.089999999,1260,2588,14156,-669,38,63
777.099999999,1380,2636,14224,-555,22,64
777.109999999,1336,2556,14088,-561,50,53
777.119999999,1400,2596,14200,-443,71,49
777.129999999,1284,2616,14176,-335,85,39
777.139999999,1360,2572,14028,-278,109,49
777.149999999,1364,2544,14188,-201,166,25
777.159999999,1256,2664,14188,-129,171,62
777.169999999,1388,2552,14128,6,226,48
777.179999999,1432,2608,14116,145,257,35
777.189999999,1336,2672,14100,276,273,-22
777.199999999,1268,2576,14104,376,325,4
777.209999999,1288,2544,14136,496,344,-8
777.219999999,1368,2600,14004,625,375,-35
777.229999999,1264,2552,14056,749,388,-36
777.239999999,1276,2660,14152,927,474,-62
777.249999999,1420,2692,14140,1091,466,-91
777.259999999,1388,2684,14108,1268,523,-61
777.269999999,1368,2720,14216,1530,596,-98
777.279999999,1288,2824,14132,1599,589,-113
777.289999999,1220,2844,14068,1624,601,-98
777.299999999,1344,2848,14012,1656,573,-101
777.309999999,1216,2876,13996,1734,671,-145
777.319999999,1276,2932,14468,1991,775,-150
777.329999999,1444,2948,14232,2176,890,-187
777.339999999,1168,3168,14280,2098,836,-185
777.349999999,1208,3156,14376,1866,816,-156
777.359999999,1084,3060,13996,1610,666,-127
777.369999999,1220,3156,14120,1529,596,-161
777.379999999,1204,3268,14324,1667,624,-122
777.389999999,1140,3300,14272,1362,782,-94
777.399999999,1104,3364,13632,390,626,6
777.409999999,1312,3184,14180,466,531,-77
777.419999999,1280,3288,14376,1713,727,-178
777.429999999,1116,3572,14316,1487,325,-97
777.439999999,1144,3444,14112,975,298,-79
777.449999999,1140,3332,14288,1344,773,-119
777.459999999,968,3408,13588,348,152,79
777.469999999,1224,3344,13648,185,209,69
777.479999999,1252,3360,13972,1055,550,-68
777.489999999,1096,3480,14200,1427,422,-97
777.499999999,1136,3512,14420,1494,380,-64
777.509999999,1044,3568,14112,1349,364,-80
777.519999999,1004,3636,14132,1323,451,-99
777.529999999,1012,3784,14204,1238,519,-31
777.539999999,1100,3760,14072,1054,425,-36
777.549999999,1040,3772,14132,888,524,-38
777.559999999,980,3800,14032,844,571,-60
777.569999999,1116,3744,13988,814,480,-54
777.579999999,1000,3720,13900,928,455,-55
777.589999999,1064,3616,14016,1103,429,-56
777.599999999,1084,3860,13952,1186,395,-62
777.609999999,1124,3836,14236,1120,412,-59
777.619999999,1128,3808,14032,1036,429,-79
777.629999999,1016,3868,14072,901,483,-101
777.639999999,1064,3836,13932,909,493,-118
777.649999999,1072,3872,14048,737,493,-79
777.659999999,1048,3900,13944,678,445,-80
777.669999999,1068,3908,14080,611,424,-57
777.679999999,1120,3964,13824,536,412,-64
777.689999999,976,3876,13972,513,438,-48
777.699999999,1104,4004,13928,499,415,-58
777.709999999,1060,3948,13888,518,433,-16
777.719999999,976,3968,13820,557,472,-64
777.729999999,1000,4020,13928,710,444,-49
777.739999999,916,4152,13916,668,302,-32
777.749999999,996,4004,14328,882,681,-120
777.759999999,780,4212,13888,616,533,-42
777.769999999,1032,4136,13880,198,459,-20
777.779999999,968,4120,13852,258,470,-51
777.789999999,980,4104,13848,288,395,-81
777.799999999,1012,4072,14068,509,387,-103
777.809999999,1004,4168,13988,515,369,-51
777.819999999,1040,4184,13932,326,296,-10
777.829999999,916,4140,13952,385,273,16
777.839999999,904,4304,13864,278,262,-24
777.849999999,952,4308,14016,252,262,-46
777.859999999,996,4280,13944,257,310,-27
777.869999999,1008,4208,13968,329,355,-70
777.879999999,952,4288,13960,344,353,-41
777.889999999,920,4244,13924,283,360,-42
777.899999999,872,4272,13796,217,318,-24
777.909999999,956,4180,14020,209,320,-24
777.919999999,904,4236,13904,296,305,-27
777.929999999,812,4304,13852,243,276,-12
777.939999999,964,4184,13820,156,240,9
777.949999999,956,4196,13768,203,326,-12
777.959999999,956,4248,13824,235,343,-45
777.969999999,900,4320,13860,203,396,-44
777.979999999,892,4272,13816,177,331,-44
777.989999999,780,4340,13764,63,286,-5
777.999999999,912,4376,13752,42,315,-16
778.009999999,924,4364,13840,66,315,-16
778.019999999,904,4356,13968,75,295,7
778.029999999,908,4384,13948,103,288,9
778.039999999,860,4400,13960,101,302,-2
778.049999999,836,4352,13888,69,292,12
778.059999999,872,4340,13844,88,283,6
778.069999999,936,4396,13960,118,336,-3
778.079999999,840,4352,13968,73,316,-12
778.089999999,900,4340,13820,65,287,-12
778.099999999,884,4356,13936,40,282,-14
778.109999999,908,4336,13796,33,305,2
778.119999999,996,4392,13940,49,310,-3
778.129999999,768,4296,13892,2,308,-25
778.139999999,960,4372,13716,28,311,-15
778.149999999,956,4368,13740,-11,305,-20
778.159999999,864,4500,13904,-7,300,-2
778.169999999,932,4372,13856,-98,271,17
778.179999999,860,4532,13924,-38,253,-6
778.189999999,900,4464,14052,-70,255,10
778.199999999,924,4408,13864,-71,245,3
778.209999999,916,4340,13924,-124,248,-9
778.219999999,912,4444,13872,-119,268,26
778.229999999,876,4356,13952,-145,250,6
778.239999999,868,4380,13840,-214,245,21
778.249999999,820,4364,13808,-240,216,10
778.259999999,868,4272,13920,-276,217,-8
778.269999999,840,4460,13956,-305,197,37
778.279999999,936,4372,14012,-284,216,31
778.289999999,884,4408,13972,-327,223,26
778.299999999,852,4444,13936,-341,209,58
778.309999999,820,4356,13972,-426,201,37
778.319999999,860,4336,14044,-456,195,7
778.329999999,800,4408,13908,-525,151,54
778.339999999,960,4312,13896,-534,191,40
778.349999999,940,4392,13808,-545,159,50
778.359999999,872,4408,13984,-556,179,39
778.369999999,1000,4372,13956,-638,161,22
778.379999999,816,4336,13908,-713,180,23
778.389999999,932,4256,14036,-912,90,72
778.399999999,880,4260,13728,-1039,-9,98
778.409999999,836,4256,13708,-1122,-40,121
778.419999999,868,4200,13864,-1081,22,82
778.429999999,800,4248,14008,-782,143,102
778.439999999,836,4276,14084,-813,111,58
778.449999999,956,4264,13892,-938,68,81
778.459999999,824,4148,13696,-1028,18,86
778.469999999,900,4100,13908,-1112,-58,91
778.479999999,900,4084,14060,-963,-97,132
778.489999999,920,4124,13988,-1026,-65,156
778.499999999,896,4084,13636,-1700,-65,244
778.509999999,1168,3880,13860,-1648,-64,163
778.519999999,1092,4024,14580,-407,314,38
778.529999999,768,4236,14220,-764,-166,110
778.539999999,1012,3944,13948,-1370,-343,189
778.549999999,1016,3876,14060,-922,81,105
778.559999999,816,3848,13628,-1368,-198,197
778.569999999,1036,3740,13552,-1548,-356,206
778.579999999,1184,3680,13864,-895,-59,181
778.589999999,1008,3872,14212,-600,-98,95
778.599999999,920,3944,14180,-675,-283,115
778.609999999,992,4048,14116,-719,-178,153
778.619999999,988,3904,14012,-806,-131,164
778.629999999,960,4028,14148,-921,-138,187
778.639999999,1056,3912,14172,-1084,-54,149
778.649999999,924,3852,13968,-1140,22,130
778.659999999,996,3716,13920,-1168,95,110
778.669999999,1012,3584,13912,-1205,-33,122
778.679999999,1076,3612,13960,-968,-55,116
778.689999999,1164,3552,14020,-778,-53,137
778.699999999,1084,3712,14124,-651,-49,100
778.709999999,1100,3576,14124,-619,-1,87
778.719999999,1108,3688,14124,-661,69,42
778.729999999,1100,3708,14204,-806,84,74
778.739999999,1084,3692,14100,-950,145,89
778.749999999,1156,3656,13980,-1035,86,81
778.759999999,1048,3624,14144,-1142,-18,113
778.769999999,1196,3612,14088,-1131,-18,127
778.779999999,1144,3604,14188,-1172,-71,137
778.789999999,1064,3620,14004,-1197,-17,132
778.799999999,1052,3524,13968,-1157,-22,164
778.809999999,1152,3536,14112,-1037,-41,140
778.819999999,1060,3488,13932,-888,-39,100
778.829999999,1176,3548,14028,-751,106,46
778.839999999,1112,3484,14216,-610,163,49
778.849999999,1160,3476,14176,-751,174,40
778.859999999,1136,3472,14436,-634,246,20
778.869999999,1164,3480,14016,-833,141,74
