500.1475, 4214
500.15, 4243
500.1525, 4244
500.155, 4161
500.1575, 4242
500.16, 4227
500.1625, 4224
500.165, 4233
500.1675, 4213
500.17, 4214
500.1725, 4084
500.175, 4218
500.1775, 4211
500.18, 4208
500.1825, 4208
500.185, 4208
500.1875, 4216
500.19, 4185
500.1925, 4224
500.195, 4213
500.1975, 4198
500.2, 4219
500.2025, 4237
500.205, 4191
500.2075, 4119
500.21, 4202
500.2125, 4201
500.215, 4179
500.2175, 4158
500.22, 4240
500.2225, 4226
500.225, 4132
500.2275, 4218
500.23, 4206
500.2325, 4213
500.235, 4148
500.2375, 4214
500.24, 4208
500.2425, 4078
500.245, 4200
500.2475, 4207
500.25, 4205
500.2525, 4176
500.255, 4197
500.2575, 4161
500.26, 4086
500.2625, 4168
500.265, 4146
500.2675, 4155
500.27, 4161
500.2725, 4173
500.275, 4139
500.2775, 4004
500.28, 4140
500.2825, 4130
500.285, 4099
500.2875, 4099
500.29, 4076
500.2925, 4087
500.295, 3986
500.2975, 4063
500.3, 4076
500.3025, 4074
500.305, 4079
500.3075, 4110
500.31, 4118
500.3125, 4048
500.315, 4137
500.3175, 4139
500.32, 4142
500.3225, 4155
500.325, 4151
500.3275, 4187
500.33, 4176
500.3325, 4185
500.335, 4199
500.3375, 4202
500.34, 4195
500.3425, 4215
500.345, 4228
500.3475, 4159
500.35, 4258
500.3525, 4253
500.355, 4230
500.3575, 4242
500.36, 4213
500.3625, 4216
500.365, 4199
500.3675, 4232
500.37, 4234
500.3725, 4244
500.375, 4245
500.3775, 4241
500.38, 4237
500.3825, 4128
500.385, 4227
500.3875, 4218
500.39, 4212
500.3925, 4231
500.395, 4244
500.3975, 4217
500.4, 4124
500.4025, 4211
500.405, 4198
500.4075, 4196
500.41, 4196
500.4125, 4207
500.415, 4188
500.4175, 4139
500.42, 4204
500.4225, 4208
500.425, 4200
500.4275, 4211
500.43, 4220
500.4325, 4201
500.435, 4121
500.4375, 4200
500.44, 4200
500.4425, 4179
500.445, 4172
500.4475, 4165
500.45, 4176
500.4525, 4087
500.455, 4173
500.4575, 4174
500.46, 4159
500.4625, 4153
500.465, 4170
500.4675, 4166
500.47, 4089
500.4725, 4193
500.475, 4182
500.4775, 4156
500.48, 4170
500.4825, 4170
500.485, 4162
500.4875, 4072
500.49, 4178
500.4925, 4188
500.495, 4162
500.4975, 4157
500.5, 4192
500.5025, 4161
500.505, 4085
500.5075, 4163
500.51, 4171
500.5125, 4189
500.515, 4179
500.5175, 4187
500.52, 4188
500.5225, 4136
500.525, 4197
500.5275, 4211
500.53, 4188
500.5325, 4193
500.535, 4215
500.5375, 4206
500.54, 4125
500.5425, 4208
500.545, 4184
500.5475, 4196
500.55, 4205
500.5525, 4207
500.555, 4208
500.5575, 4111
500.56, 4204
500.5625, 4198
500.565, 4188
500.5675, 4188
500.57, 4205
500.5725, 4191
500.575, 4115
500.5775, 4180
500.58, 4177
500.5825, 4177
500.585, 4189
500.5875, 4180
500.59, 4178
500.5925, 4134
500.595, 4164
500.5975, 4191
500.6, 4185
500.6025, 4187
500.605, 4197
500.6075, 4193
500.61, 4100
500.6125, 4190
500.615, 4185
500.6175, 4174
500.62, 4149
500.6225, 4173
500.625, 4170
500.6275, 4083
500.63, 4174
500.6325, 4178
500.635, 4158
500.6375, 4176
500.64, 4176
500.6425, 4195
500.645, 4089
500.6475, 4204
500.65, 4165
500.6525, 4159
500.655, 4173
500.6575, 4192
500.66, 4193
500.6625, 4113
500.665, 4212
500.6675, 4204
500.67, 4199
500.6725, 4189
500.675, 4223
500.6775, 4196
500.68, 4099
500.6825, 4183
500.685, 4179
500.6875, 4165
500.69, 4146
500.6925, 4173
500.695, 4169
500.6975, 4082
500.7, 4173
500.7025, 4154
500.705, 4167
500.7075, 4110
500.71, 4155
500.7125, 4184
500.715, 4109
500.7175, 4157
500.72, 4145
500.7225, 4136
500.725, 4159
500.7275, 4154
500.73, 4146
500.7325, 4060
500.735, 4158
500.7375, 4151
500.74, 4159
500.7425, 4149
500.745, 4166
500.7475, 4178
500.75, 4054
500.7525, 4151
500.755, 4153
500.7575, 4158
500.76, 4106
500.7625, 4159
500.765, 4145
500.7675, 4122
500.77, 4138
500.7725, 4151
500.775, 4137
500.7775, 4137
500.78, 4167
500.7825, 4157
500.785, 4089
500.7875, 4194
500.79, 4184
500.7925, 4161
500.795, 4163
500.7975, 4167
500.8, 4172
500.8025, 4075
500.805, 4173
500.8075, 4175
500.81, 4165
500.8125, 4157
500.815, 4160
500.8175, 4179
500.82, 4086
500.8225, 4164
500.825, 4162
500.8275, 4162
500.83, 4126
500.8325, 4152
500.835, 4148
500.8375, 4071
500.84, 4165
500.8425, 4153
500.845, 4156
500.8475, 4169
500.85, 4195
500.8525, 4173
500.855, 4078
500.8575, 4175
500.86, 4172
500.8625, 4150
500.865, 4154
500.8675, 4162
500.87, 4148
500.8725, 4070
500.875, 4155
500.8775, 4140
500.88, 4147
500.8825, 4142
500.885, 4152
500.8875, 4154
500.89, 4091
500.8925, 4153
500.895, 4154
500.8975, 4128
500.9, 4129
500.9025, 4143
500.905, 4127
500.9075, 4043
500.91, 4142
500.9125, 4135
500.915, 4104
500.9175, 4106
500.92, 4127
500.9225, 4119
500.925, 4039
500.9275, 4111
500.93, 4106
500.9325, 4127
500.935, 4131
500.9375, 4142
500.94, 4144
500.9425, 4067
500.945, 4140
500.9475, 4149
500.95, 4144
500.9525, 4162
500.955, 4163
500.9575, 4161
500.96, 4055
500.9625, 4123
500.965, 4074
500.9675, 4061
500.97, 4069
500.9725, 4048
500.975, 4029
500.9775, 3989
500.98, 4118
500.9825, 4124
500.985, 4133
500.9875, 4136
500.99, 4153
500.9925, 4190
500.995, 4099
500.9975, 4171
501.0, 4169
501.0025, 4173
501.005, 4176
501.0075, 4166
501.01, 4152
501.0125, 4078
501.015, 4181
501.0175, 4160
501.02, 4170
501.0225, 4164
501.025, 4169
501.0275, 4172
501.03, 4075
501.0325, 4163
501.035, 4175
501.0375, 4165
501.04, 4153
501.0425, 4166
501.045, 4165
501.0475, 4067
501.05, 4151
501.0525, 4162
501.055, 4171
501.0575, 4177
501.06, 4186
501.0625, 4190
501.065, 4180
501.0675, 4374
501.07, 4418
501.0725, 4439
501.075, 4461
501.0775, 4513
501.08, 4491
501.0825, 4247
501.085, 4118
501.0875, 3854
501.09, 3493
501.0925, 3163
501.095, 2746
501.0975, 2250
501.1, 1685
501.1025, 1522
501.105, 1551
501.1075, 1782
501.11, 2504
501.1125, 3462
501.115, 4307
501.1175, 4755
501.12, 4986
501.1225, 4935
501.125, 4779
501.1275, 4644
501.13, 4580
501.1325, 4549
501.135, 4420
501.1375, 4497
501.14, 4516
501.1425, 4523
501.145, 4542
501.1475, 4550
501.15, 4554
501.1525, 4465
501.155, 4580
501.1575, 4531
501.16, 4536
501.1625, 4507
501.165, 4505
501.1675, 4519
501.17, 4419
501.1725, 4479
501.175, 4462
501.1775, 4449
501.18, 4445
501.1825, 4428
501.185, 4425
501.1875, 4333
501.19, 4407
501.1925, 4383
501.195, 4363
501.1975, 4370
501.2, 4386
501.2025, 4377
501.205, 4343
501.2075, 4347
501.21, 4345
501.2125, 4340
501.215, 4326
501.2175, 4335
501.22, 4332
501.2225, 4241
501.225, 4300
501.2275, 4302
501.23, 4302
501.2325, 4289
501.235, 4313
501.2375, 4292
501.24, 4254
501.2425, 4279
501.245, 4253
501.2475, 4270
501.25, 4242
501.2525, 4237
501.255, 4239
501.2575, 4157
501.26, 4243
501.2625, 4236
501.265, 4248
501.2675, 4213
501.27, 4230
501.2725, 4243
501.275, 4223
501.2775, 4232
501.28, 4220
501.2825, 4196
501.285, 4188
501.2875, 4231
501.29, 4214
501.2925, 4149
501.295, 4243
501.2975, 4218
501.3, 4217
501.3025, 4227
501.305, 4222
501.3075, 4212
501.31, 4127
501.3125, 4243
501.315, 4244
501.3175, 4237
501.32, 4217
501.3225, 4257
501.325, 4229
501.3275, 4139
501.33, 4232
501.3325, 4250
501.335, 4215
501.3375, 4215
501.34, 4248
501.3425, 4209
501.345, 4171
501.3475, 4213
501.35, 4181
501.3525, 4180
501.355, 4162
501.3575, 4161
501.36, 4180
501.3625, 4100
501.365, 4214
501.3675, 4204
501.37, 4182
501.3725, 4193
501.375, 4193
501.3775, 4175
501.38, 4086
501.3825, 4171
501.385, 4167
501.3875, 4130
501.39, 4141
501.3925, 4133
501.395, 4088
501.3975, 4028
501.4, 4108
501.4025, 4096
501.405, 4071
501.4075, 4079
501.41, 4089
501.4125, 4092
501.415, 4020
501.4175, 4131
501.42, 4143
501.4225, 4152
501.425, 4141
501.4275, 4155
501.43, 4135
501.4325, 4087
501.435, 4161
501.4375, 4165
501.44, 4177
501.4425, 4177
501.445, 4191
501.4475, 4202
501.45, 4130
501.4525, 4200
501.455, 4227
501.4575, 4214
501.46, 4195
501.4625, 4209
501.465, 4217
501.4675, 4211
501.47, 4224
501.4725, 4209
501.475, 4204
501.4775, 4204
501.48, 4219
501.4825, 4199
501.485, 4092
501.4875, 4198
501.49, 4191
501.4925, 4200
501.495, 4180
501.4975, 4203
501.5, 4221
501.5025, 4110
501.505, 4219
501.5075, 4185
501.51, 4195
501.5125, 4158
501.515, 4214
501.5175, 4197
501.52, 4100
501.5225, 4181
501.525, 4181
501.5275, 4188
501.53, 4192
501.5325, 4215
501.535, 4183
501.5375, 4081
501.54, 4185
501.5425, 4168
501.545, 4179
501.5475, 4147
501.55, 4153
501.5525, 4164
501.555, 4084
501.5575, 4188
501.56, 4189
501.5625, 4183
501.565, 4165
501.5675, 4198
501.57, 4163
501.5725, 4078
501.575, 4173
501.5775, 4156
501.58, 4179
501.5825, 4149
501.585, 4166
501.5875, 4164
501.59, 4082
501.5925, 4179
501.595, 4173
501.5975, 4204
501.6, 4162
501.6025, 4160
501.605, 4174
501.6075, 4105
501.61, 4215
501.6125, 4222
501.615, 4198
501.6175, 4176
501.62, 4219
501.6225, 4204
501.625, 4117
501.6275, 4196
501.63, 4193
501.6325, 4172
501.635, 4170
501.6375, 4195
501.64, 4184
501.6425, 4094
501.645, 4183
501.6475, 4189
501.65, 4194
501.6525, 4179
501.655, 4169
501.6575, 4161
501.66, 4094
501.6625, 4185
501.665, 4167
501.6675, 4173
501.67, 4171
501.6725, 4209
501.675, 4169
501.6775, 4059
501.68, 4198
501.6825, 4213
501.685, 4191
501.6875, 4163
501.69, 4182
501.6925, 4186
501.695, 4167
501.6975, 4169
501.7, 4194
501.7025, 4174
501.705, 4174
501.7075, 4179
501.71, 4170
501.7125, 4082
501.715, 4162
501.7175, 4175
501.72, 4140
501.7225, 4148
501.725, 4142
501.7275, 4152
501.73, 4077
501.7325, 4183
501.735, 4172
501.7375, 4172
501.74, 4174
501.7425, 4170
501.745, 4155
501.7475, 4066
501.75, 4162
501.7525, 4155
501.755, 4163
501.7575, 4168
501.76, 4171
501.7625, 4165
501.765, 4081
501.7675, 4172
501.77, 4179
501.7725, 4165
501.775, 4166
501.7775, 4175
501.78, 4148
501.7825, 4074
501.785, 4182
501.7875, 4170
501.79, 4169
501.7925, 4175
501.795, 4186
501.7975, 4166
501.8, 4094
501.8025, 4175
501.805, 4171
501.8075, 4162
501.81, 4179
501.8125, 4196
501.815, 4206
501.8175, 4139
501.82, 4187
501.8225, 4178
501.825, 4194
501.8275, 4163
501.83, 4189
501.8325, 4170
501.835, 4093
501.8375, 4192
501.84, 4161
501.8425, 4158
501.845, 4153
501.8475, 4170
501.85, 4174
501.8525, 4084
501.855, 4152
501.8575, 4155
501.86, 4145
501.8625, 4162
501.865, 4161
501.8675, 4164
501.87, 4077
501.8725, 4187
501.875, 4194
501.8775, 4172
501.88, 4176
501.8825, 4166
501.885, 4168
501.8875, 4141
501.89, 4152
501.8925, 4150
501.895, 4171
501.8975, 4147
501.9, 4192
501.9025, 4182
501.905, 4074
501.9075, 4195
501.91, 4193
501.9125, 4193
501.915, 4175
501.9175, 4177
501.92, 4160
501.9225, 4071
501.925, 4152
501.9275, 4166
501.93, 4172
501.9325, 4166
501.935, 4167
501.9375, 4153
501.94, 4144
501.9425, 4174
501.945, 4167
501.9475, 4163
501.95, 4138
501.9525, 4183
501.955, 4179
501.9575, 4090
501.96, 4195
501.9625, 4196
501.965, 4156
501.9675, 4171
501.97, 4160
501.9725, 4144
501.975, 4014
501.9775, 4179
501.98, 4187
501.9825, 4190
501.985, 4073
501.9875, 4202
501.99, 4188
501.9925, 4089
501.995, 4205
501.9975, 4177
502.0, 4155
502.0025, 4150
502.005, 4180
502.0075, 4192
502.01, 4045
502.0125, 4159
502.015, 4140
502.0175, 4136
502.02, 4117
502.0225, 4102
502.025, 4076
502.0275, 3965
502.03, 4105
502.0325, 4141
502.035, 4120
502.0375, 4094
502.04, 4142
502.0425, 4139
502.045, 4018
502.0475, 4160
502.05, 4225
502.0525, 4186
502.055, 4189
502.0575, 4197
502.06, 4222
502.0625, 4106
502.065, 4210
502.0675, 4194
502.07, 4173
502.0725, 4170
502.075, 4171
502.0775, 4168
502.08, 4099
502.0825, 4197
502.085, 4187
502.0875, 4215
502.09, 4196
502.0925, 4201
502.095, 4175
502.0975, 4096
502.1, 4171
502.1025, 4166
502.105, 4160
502.1075, 4170
502.11, 4185
502.1125, 4213
502.115, 4227
502.1175, 4393
502.12, 4432
502.1225, 4459
502.125, 4462
502.1275, 4504
502.13, 4368
502.1325, 4106
502.135, 3965
502.1375, 3635
502.14, 3290
502.1425, 2887
502.145, 2450
502.1475, 1890
502.15, 1485
502.1525, 1522
502.155, 1671
502.1575, 2252
502.16, 3180
502.1625, 4052
502.165, 4583
502.1675, 4843
502.17, 4953
502.1725, 4840
502.175, 4678
502.1775, 4589
502.18, 4565
502.1825, 4546
502.185, 4432
502.1875, 4498
502.19, 4488
502.1925, 4515
502.195, 4532
502.1975, 4553
502.2, 4542
502.2025, 4459
502.205, 4559
502.2075, 4559
502.21, 4544
502.2125, 4524
502.215, 4504
502.2175, 4484
502.22, 4395
502.2225, 4467
502.225, 4452
502.2275, 4443
502.23, 4463
502.2325, 4432
502.235, 4415
502.2375, 4318
502.24, 4395
502.2425, 4391
502.245, 4360
502.2475, 4338
502.25, 4375
502.2525, 4347
502.255, 4259
502.2575, 4326
502.26, 4331
502.2625, 4331
502.265, 4303
502.2675, 4326
502.27, 4324
502.2725, 4225
502.275, 4321
502.2775, 4292
502.28, 4297
502.2825, 4293
502.285, 4272
502.2875, 4277
502.29, 4251
502.2925, 4279
502.295, 4276
502.2975, 4276
502.3, 4255
502.3025, 4260
502.305, 4268
502.3075, 4180
502.31, 4270
502.3125, 4246
502.315, 4242
502.3175, 4258
502.32, 4261
502.3225, 4259
502.325, 4159
502.3275, 4232
502.33, 4226
502.3325, 4200
502.335, 4204
502.3375, 4226
502.34, 4225
502.3425, 4173
502.345, 4227
502.3475, 4206
502.35, 4235
502.3525, 4213
502.355, 4240
502.3575, 4228
502.36, 4160
502.3625, 4224
502.365, 4232
502.3675, 4250
502.37, 4216
502.3725, 4229
502.375, 4218
502.3775, 4131
502.38, 4225
502.3825, 4197
502.385, 4198
502.3875, 4186
502.39, 4213
502.3925, 4235
502.395, 4135
502.3975, 4223
502.4, 4199
502.4025, 4173
502.405, 4188
502.4075, 4182
502.41, 4166
502.4125, 4161
502.415, 4186
502.4175, 4152
502.42, 4146
502.4225, 4102
502.425, 4155
502.4275, 4149
502.43, 4052
502.4325, 4144
502.435, 4117
502.4375, 4118
502.44, 4098
502.4425, 4113
502.445, 4115
502.4475, 4084
502.45, 4086
502.4525, 4093
502.455, 4087
502.4575, 4082
502.46, 4076
502.4625, 4097
502.465, 3966
502.4675, 4138
502.47, 4148
502.4725, 4153
502.475, 4162
502.4775, 4170
502.48, 4173
502.4825, 4156
502.485, 4182
502.4875, 4191
502.49, 4183
502.4925, 4186
502.495, 4250
502.4975, 4222
502.5, 4137
502.5025, 4239
502.505, 4226
502.5075, 4219
502.51, 4218
502.5125, 4234
502.515, 4235
502.5175, 4140
502.52, 4249
502.5225, 4235
502.525, 4222
502.5275, 4203
502.53, 4229
502.5325, 4206
502.535, 4132
502.5375, 4227
502.54, 4226
502.5425, 4237
502.545, 4236
502.5475, 4221
502.55, 4221
502.5525, 4140
502.555, 4214
502.5575, 4180
502.56, 4175
502.5625, 4193
502.565, 4229
502.5675, 4237
502.57, 4179
502.5725, 4196
502.575, 4214
502.5775, 4203
502.58, 4212
502.5825, 4196
502.585, 4193
502.5875, 4117
502.59, 4190
502.5925, 4189
502.595, 4177
502.5975, 4072
502.6, 4225
502.6025, 4208
502.605, 4179
502.6075, 4201
502.61, 4188
502.6125, 4157
502.615, 3991
502.6175, 4198
502.62, 4196
502.6225, 4048
502.625, 4166
502.6275, 4204
502.63, 4201
502.6325, 4171
502.635, 4178
502.6375, 4162
502.64, 4080
502.6425, 4171
502.645, 4189
502.6475, 4187
502.65, 4157
502.6525, 4164
502.655, 4174
502.6575, 4087
502.66, 4199
502.6625, 4184
502.665, 4196
502.6675, 4180
502.67, 4191
502.6725, 4190
502.675, 4087
502.6775, 4204
502.68, 4211
502.6825, 4201
502.685, 4179
502.6875, 4211
502.69, 4215
502.6925, 4131
502.695, 4219
502.6975, 4221
502.7, 4197
502.7025, 4194
502.705, 4196
502.7075, 4190
502.71, 4108
502.7125, 4193
502.715, 4196
502.7175, 4184
502.72, 4185
502.7225, 4201
502.725, 4191
502.7275, 4026
502.73, 4180
502.7325, 4201
502.735, 4187
502.7375, 4178
502.74, 4171
502.7425, 4189
502.745, 4103
502.7475, 4189
502.75, 4176
502.7525, 4165
502.755, 4176
502.7575, 4175
502.76, 4164
502.7625, 4072
502.765, 4160
502.7675, 4159
502.77, 4157
502.7725, 4145
502.775, 4164
502.7775, 4136
502.78, 4051
502.7825, 4162
502.785, 4168
502.7875, 4166
502.79, 4156
502.7925, 4154
502.795, 4168
502.7975, 4133
502.8, 4177
502.8025, 4161
502.805, 4161
502.8075, 4151
502.81, 4145
502.8125, 4136
502.815, 4051
502.8175, 4152
502.82, 4142
502.8225, 4156
502.825, 4138
502.8275, 4133
502.83, 4139
502.8325, 4053
502.835, 4155
502.8375, 4145
502.84, 4147
502.8425, 4128
502.845, 4153
502.8475, 4167
502.85, 4067
502.8525, 4161
502.855, 4170
502.8575, 4172
502.86, 4156
502.8625, 4186
502.865, 4149
502.8675, 4063
502.87, 4165
502.8725, 4151
502.875, 4140
502.8775, 4160
502.88, 4151
502.8825, 4165
502.885, 4127
502.8875, 4146
502.89, 4151
502.8925, 4138
502.895, 4094
502.8975, 4149
502.9, 4157
502.9025, 4068
502.905, 4168
502.9075, 4150
502.91, 4151
502.9125, 4148
502.915, 4169
502.9175, 4159
502.92, 4047
502.9225, 4134
502.925, 4155
502.9275, 4157
502.93, 4146
502.9325, 4136
502.935, 4138
502.9375, 4042
502.94, 4111
502.9425, 4108
502.945, 4122
502.9475, 4131
502.95, 4137
502.9525, 4129
502.955, 4072
502.9575, 4153
502.96, 4158
502.9625, 4168
502.965, 4144
502.9675, 4148
502.97, 4166
502.9725, 4053
502.975, 4159
502.9775, 4148
502.98, 4118
502.9825, 4150
502.985, 4161
502.9875, 4147
502.99, 4055
502.9925, 4166
502.995, 4154
502.9975, 4173
503.0, 4158
503.0025, 4171
503.005, 4161
503.0075, 4056
503.01, 4165
503.0125, 4173
503.015, 4160
503.0175, 4142
503.02, 4153
503.0225, 4147
503.025, 4116
503.0275, 4148
503.03, 4153
503.0325, 4132
503.035, 4133
503.0375, 4170
503.04, 4155
503.0425, 4077
503.045, 4170
503.0475, 4180
503.05, 4138
503.0525, 4138
503.055, 4153
503.0575, 4163
503.06, 4095
503.0625, 4168
503.065, 4180
503.0675, 4157
503.07, 4149
503.0725, 4195
503.075, 4191
503.0775, 4079
503.08, 4199
503.0825, 4163
503.085, 4176
503.0875, 4184
503.09, 4205
503.0925, 4197
503.095, 4096
503.0975, 4168
503.1, 4153
503.1025, 4143
503.105, 4139
503.1075, 4172
503.11, 4161
503.1125, 4081
503.115, 4129
503.1175, 4129
503.12, 4149
503.1225, 4136
503.125, 4155
503.1275, 4149
503.13, 4150
503.1325, 4190
503.135, 4201
503.1375, 4201
503.14, 4215
503.1425, 4218
503.145, 4234
503.1475, 4129
503.15, 4221
503.1525, 4209
503.155, 4227
503.1575, 4213
503.16, 4228
503.1625, 4222
503.165, 4133
503.1675, 4227
503.17, 4226
503.1725, 4223
503.175, 4193
503.1775, 4196
503.18, 4201
503.1825, 4113
503.185, 4208
503.1875, 4186
503.19, 4191
503.1925, 4202
503.195, 4219
503.1975, 4224
503.2, 4250
503.2025, 4366
503.205, 4431
503.2075, 4406
503.21, 4470
503.2125, 4505
503.215, 4417
503.2175, 4168
503.22, 4054
503.2225, 3797
503.225, 3451
503.2275, 3158
503.23, 2736
503.2325, 2220
503.235, 1719
503.2375, 1606
503.24, 1651
503.2425, 1934
503.245, 2643
503.2475, 3639
503.25, 4475
503.2525, 4795
503.255, 5062
503.2575, 5059
503.26, 4891
503.2625, 4715
503.265, 4631
503.2675, 4596
503.27, 4493
503.2725, 4535
503.275, 4499
503.2775, 4513
503.28, 4533
503.2825, 4530
503.285, 4542
503.2875, 4443
503.29, 4545
503.2925, 4517
503.295, 4502
503.2975, 4488
503.3, 4493
503.3025, 4500
503.305, 4387
503.3075, 4448
503.31, 4457
503.3125, 4424
503.315, 4418
503.3175, 4411
503.32, 4425
503.3225, 4359
503.325, 4406
503.3275, 4377
503.33, 4363
503.3325, 4385
503.335, 4385
503.3375, 4362
503.34, 4260
503.3425, 4343
503.345, 4356
503.3475, 4337
503.35, 4342
503.3525, 4349
503.355, 4325
503.3575, 4213
503.36, 4289
503.3625, 4284
503.365, 4277
503.3675, 4275
503.37, 4286
503.3725, 4259
503.375, 4176
503.3775, 4256
503.38, 4263
503.3825, 4254
503.385, 4235
503.3875, 4238
503.39, 4232
503.3925, 4163
503.395, 4227
503.3975, 4218
503.4, 4228
503.4025, 4177
503.405, 4240
503.4075, 4244
503.41, 4114
503.4125, 4217
503.415, 4215
503.4175, 4222
503.42, 4212
503.4225, 4211
503.425, 4209
503.4275, 4119
503.43, 4225
503.4325, 4212
503.435, 4208
503.4375, 4199
503.44, 4191
503.4425, 4165
503.445, 4066
503.4475, 4202
503.45, 4166
503.4525, 4167
503.455, 4157
503.4575, 4172
503.46, 4165
503.4625, 4098
503.465, 4174
503.4675, 4184
503.47, 4160
503.4725, 4160
503.475, 4192
503.4775, 4191
503.48, 4105
503.4825, 4191
503.485, 4166
503.4875, 4167
503.49, 4176
503.4925, 4189
503.495, 4185
503.4975, 4124
503.5, 4152
503.5025, 4142
503.505, 4147
503.5075, 4133
503.51, 4160
503.5125, 4130
503.515, 4041
503.5175, 4169
503.52, 4153
503.5225, 4145
503.525, 4117
503.5275, 4139
503.53, 4106
503.5325, 4024
503.535, 4112
503.5375, 4119
503.54, 4120
503.5425, 4117
503.545, 4135
503.5475, 4170
503.55, 4085
503.5525, 4176
503.555, 4158
503.5575, 4165
503.56, 4178
503.5625, 4190
503.565, 4212
503.5675, 4111
503.57, 4210
503.5725, 4202
503.575, 4211
503.5775, 4242
503.58, 4254
503.5825, 4241
503.585, 4141
503.5875, 4258
503.59, 4247
503.5925, 4242
503.595, 4239
503.5975, 4285
503.6, 4260
503.6025, 4166
503.605, 4274
503.6075, 4300
503.61, 4296
503.6125, 4280
503.615, 4280
503.6175, 4258
503.62, 4164
503.6225, 4259
503.625, 4253
503.6275, 4231
503.63, 4215
503.6325, 4243
503.635, 4230
503.6375, 4153
503.64, 4226
503.6425, 4220
503.645, 4191
503.6475, 4218
503.65, 4240
503.6525, 4238
503.655, 4124
503.6575, 4226
503.66, 4242
503.6625, 4215
503.665, 4215
503.6675, 4208
503.67, 4209
503.6725, 4115
503.675, 4222
503.6775, 4205
503.68, 4203
503.6825, 4188
503.685, 4206
503.6875, 4217
503.69, 4131
503.6925, 4199
503.695, 4195
503.6975, 4169
503.7, 4173
503.7025, 4197
503.705, 4164
503.7075, 4084
503.71, 4184
503.7125, 4166
503.715, 4149
503.7175, 4136
503.72, 4129
503.7225, 4137
503.725, 4095
503.7275, 4149
503.73, 4157
503.7325, 4165
503.735, 4141
503.7375, 4156
503.74, 4173
503.7425, 4067
503.745, 4200
503.7475, 4183
503.75, 4190
503.7525, 4172
503.755, 4182
503.7575, 4162
503.76, 4081
503.7625, 4178
503.765, 4172
503.7675, 4181
503.77, 4175
503.7725, 4186
503.775, 4175
503.7775, 4054
503.78, 4162
503.7825, 4162
503.785, 4153
503.7875, 4161
503.79, 4168
503.7925, 4167
503.795, 4051
503.7975, 4167
503.8, 4191
503.8025, 4203
503.805, 4195
503.8075, 4201
503.81, 4201
503.8125, 4125
503.815, 4190
503.8175, 4195
503.82, 4162
503.8225, 4159
503.825, 4175
503.8275, 4168
503.83, 4111
503.8325, 4195
503.835, 4184
503.8375, 4168
503.84, 4173
503.8425, 4173
503.845, 4176
503.8475, 4075
503.85, 4157
503.8525, 4168
503.855, 4174
503.8575, 4178
503.86, 4174
503.8625, 4150
503.865, 4094
503.8675, 4174
503.87, 4142
503.8725, 4137
503.875, 4135
503.8775, 4151
503.88, 4150
503.8825, 4052
503.885, 4160
503.8875, 4168
503.89, 4147
503.8925, 4164
503.895, 4175
503.8975, 4182
503.9, 4141
503.9025, 4190
503.905, 4173
503.9075, 4177
503.91, 4176
503.9125, 4189
503.915, 4213
503.9175, 4110
503.92, 4200
503.9225, 4197
503.925, 4205
503.9275, 4218
503.93, 4225
503.9325, 4194
503.935, 4110
503.9375, 4191
503.94, 4183
503.9425, 4172
503.945, 4170
503.9475, 4172
503.95, 4188
503.9525, 4158
503.955, 4168
503.9575, 4159
503.96, 4157
503.9625, 4150
503.965, 4154
503.9675, 4143
503.97, 4086
503.9725, 4196
503.975, 4194
503.9775, 4185
503.98, 4187
503.9825, 4189
503.985, 4200
503.9875, 4102
503.99, 4204
503.9925, 4197
503.995, 4191
503.9975, 4188
504.0, 4192
504.0025, 4201
504.005, 4089
504.0075, 4189
504.01, 4171
504.0125, 4162
504.015, 4129
504.0175, 4165
504.02, 4165
504.0225, 4059
504.025, 4165
504.0275, 4197
504.03, 4182
504.0325, 4180
504.035, 4187
504.0375, 4191
504.04, 4075
504.0425, 4163
504.045, 4183
504.0475, 4175
504.05, 4169
504.0525, 4167
504.055, 4155
504.0575, 4102
504.06, 4177
504.0625, 4184
504.065, 4201
504.0675, 4200
504.07, 4204
504.0725, 4210
504.075, 4081
504.0775, 4178
504.08, 4163
504.0825, 4142
504.085, 4151
504.0875, 4185
504.09, 4178
504.0925, 4081
504.095, 4134
504.0975, 4134
504.1, 4140
504.1025, 4143
504.105, 4165
504.1075, 4135
504.11, 4046
504.1125, 4137
504.115, 4154
504.1175, 4161
504.12, 4162
504.1225, 4174
504.125, 4161
504.1275, 4094
504.13, 4194
504.1325, 4196
504.135, 4187
504.1375, 4197
504.14, 4183
504.1425, 4176
504.145, 4103
504.1475, 4189
504.15, 4173
504.1525, 4157
504.155, 4163
504.1575, 4173
504.16, 4163
504.1625, 4014
504.165, 4169
504.1675, 4164
504.17, 4166
504.1725, 4155
504.175, 4191
504.1775, 4182
504.18, 4067
504.1825, 4188
504.185, 4168
504.1875, 4185
504.19, 4178
504.1925, 4191
504.195, 4199
504.1975, 4153
504.2, 4349
504.2025, 4402
504.205, 4425
504.2075, 4451
504.21, 4500
504.2125, 4422
504.215, 4170
504.2175, 4028
504.22, 3784
504.2225, 3434
504.225, 3144
504.2275, 2718
504.23, 2188
504.2325, 1664
504.235, 1517
504.2375, 1532
504.24, 1788
504.2425, 2468
504.245, 3464
504.2475, 4418
504.25, 4842
504.2525, 5092
504.255, 5062
504.2575, 4930
504.26, 4755
504.2625, 4644
504.265, 4570
504.2675, 4445
504.27, 4528
504.2725, 4490
504.275, 4512
504.2775, 4506
504.28, 4544
504.2825, 4530
504.285, 4439
504.2875, 4523
504.29, 4498
504.2925, 4506
504.295, 4463
504.2975, 4492
504.3, 4475
504.3025, 4396
504.305, 4397
504.3075, 4407
504.31, 4386
504.3125, 4397
504.315, 4398
504.3175, 4403
504.32, 4283
504.3225, 4375
504.325, 4350
504.3275, 4352
504.33, 4346
504.3325, 4348
504.335, 4354
504.3375, 4261
504.34, 4354
504.3425, 4364
504.345, 4341
504.3475, 4313
504.35, 4322
504.3525, 4313
504.355, 4205
504.3575, 4315
504.36, 4290
504.3625, 4291
504.365, 4274
504.3675, 4308
504.37, 4287
504.3725, 4207
504.375, 4290
504.3775, 4303
504.38, 4255
504.3825, 4258
504.385, 4261
504.3875, 4241
504.39, 4204
504.3925, 4224
504.395, 4232
504.3975, 4205
504.4, 4184
504.4025, 4209
504.405, 4214
504.4075, 4117
504.41, 4246
504.4125, 4234
504.415, 4221
504.4175, 4218
504.42, 4225
504.4225, 4233
504.425, 4141
504.4275, 4223
504.43, 4204
504.4325, 4207
504.435, 4202
504.4375, 4214
504.44, 4242
504.4425, 4139
504.445, 4241
504.4475, 4247
504.45, 4249
504.4525, 4215
504.455, 4253
504.4575, 4237
504.46, 4128
504.4625, 4215
504.465, 4233
504.4675, 4240
504.47, 4259
504.4725, 4220
504.475, 4239
504.4775, 4198
504.48, 4246
504.4825, 4230
504.485, 4244
504.4875, 4214
504.49, 4230
504.4925, 4237
504.495, 4156
504.4975, 4240
504.5, 4222
504.5025, 4210
504.505, 4203
504.5075, 4194
504.51, 4170
504.5125, 4097
504.515, 4173
504.5175, 4174
504.52, 4143
504.5225, 4124
504.525, 4131
504.5275, 4134
504.53, 4060
504.5325, 4116
504.535, 4117
504.5375, 4117
504.54, 4099
504.5425, 4118
504.545, 4115
504.5475, 4044
504.55, 4145
504.5525, 4151
504.555, 4155
504.5575, 4154
504.56, 4176
504.5625, 4184
504.565, 4045
504.5675, 4196
504.57, 4190
504.5725, 4188
504.575, 4195
504.5775, 4190
504.58, 4195
504.5825, 4082
504.585, 4193
504.5875, 4193
504.59, 4185
504.5925, 4190
504.595, 4206
504.5975, 4221
504.6, 4125
504.6025, 4202
504.605, 4206
504.6075, 4207
504.61, 4187
504.6125, 4204
504.615, 4203
504.6175, 4109
504.62, 4215
504.6225, 4214
504.625, 4199
504.6275, 4185
504.63, 4208
504.6325, 4203
504.635, 4127
504.6375, 4197
504.64, 4227
504.6425, 4206
504.645, 4213
504.6475, 4224
504.65, 4204
504.6525, 4207
504.655, 4243
504.6575, 4222
504.66, 4213
504.6625, 4185
504.665, 4247
504.6675, 4228
504.67, 4129
504.6725, 4238
504.675, 4217
504.6775, 4219
504.68, 4189
504.6825, 4208
504.685, 4169
504.6875, 4163
504.69, 4186
504.6925, 4193
504.695, 4191
504.6975, 4144
504.7, 4201
504.7025, 4181
504.705, 4134
504.7075, 4177
504.71, 4182
504.7125, 4172
504.715, 4162
504.7175, 4197
504.72, 4179
504.7225, 4084
504.725, 4181
504.7275, 4188
504.73, 4172
504.7325, 4183
504.735, 4173
504.7375, 4193
504.74, 4115
504.7425, 4183
504.745, 4183
504.7475, 4187
504.75, 4176
504.7525, 4187
504.755, 4197
504.7575, 4089
504.76, 4185
504.7625, 4170
504.765, 4183
504.7675, 4163
504.77, 4180
504.7725, 4172
504.775, 4045
504.7775, 4178
504.78, 4178
504.7825, 4179
504.785, 4163
504.7875, 4175
504.79, 4159
504.7925, 4092
504.795, 4155
504.7975, 4151
504.8, 4146
504.8025, 4148
504.805, 4150
504.8075, 4145
504.81, 4076
504.8125, 4147
504.815, 4148
504.8175, 4151
504.82, 4139
504.8225, 4131
504.825, 4147
504.8275, 4063
504.83, 4167
504.8325, 4159
504.835, 4149
504.8375, 4149
504.84, 4146
504.8425, 4148
504.845, 4002
504.8475, 4155
504.85, 4136
504.8525, 4124
504.855, 4140
504.8575, 4137
504.86, 4123
504.8625, 4056
504.865, 4164
504.8675, 4154
504.87, 4150
504.8725, 4138
504.875, 4160
504.8775, 4138
504.88, 4048
504.8825, 4144
504.885, 4156
504.8875, 4146
504.89, 4159
504.8925, 4150
504.895, 4148
504.8975, 4026
504.9, 4157
504.9025, 4166
504.905, 4179
504.9075, 4153
504.91, 4170
504.9125, 4162
504.915, 4018
504.9175, 4176
504.92, 4183
504.9225, 4166
504.925, 4057
504.9275, 4197
504.93, 4195
504.9325, 4178
504.935, 4188
504.9375, 4175
504.94, 4196
504.9425, 4176
504.945, 4183
504.9475, 4162
504.95, 4074
504.9525, 4175
504.955, 4170
504.9575, 4165
504.96, 4150
504.9625, 4171
504.965, 4156
504.9675, 4077
504.97, 4170
504.9725, 4156
504.975, 4140
504.9775, 4158
504.98, 4160
504.9825, 4162
504.985, 4079
504.9875, 4173
504.99, 4161
504.9925, 4160
504.995, 4168
504.9975, 4191
505.0, 4193
505.0025, 4086
505.005, 4200
505.0075, 4176
505.01, 4175
505.0125, 4145
505.015, 4174
505.0175, 4189
505.02, 4098
505.0225, 4194
505.025, 4191
505.0275, 4186
505.03, 4163
505.0325, 4177
505.035, 4148
505.0375, 4087
505.04, 4177
505.0425, 4175
505.045, 4164
505.0475, 4154
505.05, 4180
505.0525, 4176
505.055, 4140
505.0575, 4189
505.06, 4183
505.0625, 4167
505.065, 4175
505.0675, 4173
505.07, 4171
505.0725, 4082
505.075, 4180
505.0775, 4163
505.08, 4173
505.0825, 4157
505.085, 4166
505.0875, 4167
505.09, 4069
505.0925, 4172
505.095, 4172
505.0975, 4164
505.1, 4136
505.1025, 4167
505.105, 4177
505.1075, 4079
505.11, 4178
505.1125, 4188
505.115, 4170
505.1175, 4173
505.12, 4182
505.1225, 4175
505.125, 4056
505.1275, 4194
505.13, 4175
505.1325, 4158
505.135, 4142
505.1375, 4167
505.14, 4142
505.1425, 4079
505.145, 4181
505.1475, 4182
505.15, 4135
505.1525, 4162
505.155, 4190
505.1575, 4178
505.16, 4065
505.1625, 4179
505.165, 4149
505.1675, 4160
505.17, 4165
505.1725, 4173
505.175, 4187
505.1775, 4121
505.18, 4169
505.1825, 4137
505.185, 4135
505.1875, 4127
505.19, 4144
505.1925, 4146
505.195, 4018
505.1975, 4158
505.2, 4168
505.2025, 4161
505.205, 4127
505.2075, 4124
505.21, 4112
505.2125, 4022
505.215, 4136
505.2175, 4109
505.22, 4080
505.2225, 4110
505.225, 4138
505.2275, 4140
505.23, 4070
505.2325, 4167
505.235, 4172
505.2375, 4195
505.24, 4203
505.2425, 4201
505.245, 4209
505.2475, 4118
505.25, 4213
505.2525, 4204
505.255, 4196
505.2575, 4183
505.26, 4180
505.2625, 4188
505.265, 4015
505.2675, 4192
505.27, 4164
505.2725, 4164
505.275, 4161
505.2775, 4172
505.28, 4172
505.2825, 4100
505.285, 4189
505.2875, 4175
505.29, 4173
505.2925, 4147
505.295, 4157
505.2975, 4148
505.3, 4065
505.3025, 4188
505.305, 4192
505.3075, 4228
505.31, 4285
505.3125, 4385
505.315, 4408
505.3175, 4355
505.32, 4472
505.3225, 4497
505.325, 4399
505.3275, 4189
505.33, 3951
505.3325, 3612
505.335, 3167
505.3375, 2860
505.34, 2407
505.3425, 1836
505.345, 1540
505.3475, 1516
505.35, 1653
505.3525, 2206
505.355, 3179
505.3575, 4064
505.36, 4656
505.3625, 4950
505.365, 4999
505.3675, 4860
505.37, 4617
505.3725, 4600
505.375, 4563
505.3775, 4540
505.38, 4492
505.3825, 4527
505.385, 4534
505.3875, 4435
505.39, 4539
505.3925, 4547
505.395, 4530
505.3975, 4554
505.4, 4558
505.4025, 4525
505.405, 4432
505.4075, 4517
505.41, 4515
505.4125, 4480
505.415, 4483
505.4175, 4490
505.42, 4469
505.4225, 4368
505.425, 4465
505.4275, 4460
505.43, 4431
505.4325, 4410
505.435, 4425
505.4375, 4395
505.44, 4318
505.4425, 4388
505.445, 4374
505.4475, 4351
505.45, 4324
505.4525, 4366
505.455, 4344
505.4575, 4253
505.46, 4342
505.4625, 4342
505.465, 4344
505.4675, 4314
505.47, 4298
505.4725, 4270
505.475, 4195
505.4775, 4288
505.48, 4286
505.4825, 4262
505.485, 4263
505.4875, 4285
505.49, 4276
505.4925, 4145
505.495, 4279
505.4975, 4260
505.5, 4251
505.5025, 4225
505.505, 4240
505.5075, 4226
505.51, 4173
505.5125, 4272
505.515, 4248
505.5175, 4261
505.52, 4241
505.5225, 4254
505.525, 4223
505.5275, 4180
505.53, 4254
505.5325, 4245
505.535, 4250
505.5375, 4241
505.54, 4240
505.5425, 4217
505.545, 4136
505.5475, 4251
505.55, 4227
505.5525, 4218
505.555, 4209
505.5575, 4207
505.56, 4206
505.5625, 4114
505.565, 4206
505.5675, 4192
505.57, 4187
505.5725, 4198
505.575, 4211
505.5775, 4177
505.58, 4058
505.5825, 4208
505.585, 4189
505.5875, 4196
505.59, 4181
505.5925, 4177
505.595, 4183
505.5975, 4088
505.6, 4175
505.6025, 4178
505.605, 4158
505.6075, 4148
505.61, 4155
505.6125, 4176
505.615, 4061
505.6175, 4161
505.62, 4144
505.6225, 4164
505.625, 4156
505.6275, 4161
505.63, 4152
505.6325, 4043
505.635, 4134
505.6375, 4123
505.64, 4117
505.6425, 4113
505.645, 4106
505.6475, 4123
505.65, 4039
505.6525, 4120
505.655, 4134
505.6575, 4132
505.66, 4131
505.6625, 4135
505.665, 4146
505.6675, 4068
505.67, 4163
505.6725, 4169
505.675, 4163
505.6775, 4171
505.68, 4183
505.6825, 4201
505.685, 4110
505.6875, 4223
505.69, 4212
505.6925, 4200
505.695, 4190
505.6975, 4228
505.7, 4203
505.7025, 4141
505.705, 4202
505.7075, 4202
505.71, 4213
505.7125, 4202
505.715, 4222
505.7175, 4196
505.72, 4113
505.7225, 4197
505.725, 4205
505.7275, 4199
505.73, 4204
505.7325, 4215
505.735, 4189
505.7375, 4185
505.74, 4224
505.7425, 4215
505.745, 4228
505.7475, 4191
505.75, 4219
505.7525, 4217
505.755, 4119
505.7575, 4207
505.76, 4187
505.7625, 4186
505.765, 4185
505.7675, 4179
505.77, 4196
505.7725, 4091
505.775, 4202
505.7775, 4185
505.78, 4183
505.7825, 4165
505.785, 4192
505.7875, 4177
505.79, 4094
505.7925, 4187
505.795, 4167
505.7975, 4191
505.8, 4178
505.8025, 4188
505.805, 4177
505.8075, 4092
505.81, 4181
505.8125, 4173
505.815, 4170
505.8175, 4153
505.82, 4153
505.8225, 4154
505.825, 4076
505.8275, 4170
505.83, 4178
505.8325, 4167
505.835, 4119
505.8375, 4144
505.84, 4144
505.8425, 4061
505.845, 4153
505.8475, 4158
505.85, 4161
505.8525, 4146
505.855, 4150
505.8575, 4160
505.86, 4036
505.8625, 4202
505.865, 4198
505.8675, 4183
505.87, 4153
505.8725, 4182
505.875, 4164
505.8775, 4065
505.88, 4164
505.8825, 4145
505.885, 4155
505.8875, 4145
505.89, 4200
505.8925, 4186
505.895, 4101
505.8975, 4177
505.9, 4183
505.9025, 4190
505.905, 4167
505.9075, 4188
505.91, 4183
505.9125, 4088
505.915, 4188
505.9175, 4176
505.92, 4158
505.9225, 4162
505.925, 4184
505.9275, 4162
505.93, 4066
505.9325, 4169
505.935, 4175
505.9375, 4184
505.94, 4170
505.9425, 4153
505.945, 4146
505.9475, 4116
505.95, 4159
505.9525, 4160
505.955, 4173
505.9575, 4142
505.96, 4187
505.9625, 4170
505.965, 4089
505.9675, 4194
505.97, 4182
505.9725, 4175
505.975, 4168
505.9775, 4185
505.98, 4199
505.9825, 4093
505.985, 4194
505.9875, 4181
505.99, 4187
505.9925, 4184
505.995, 4201
505.9975, 4177
506.0, 4123
506.0025, 4161
506.005, 4178
506.0075, 4184
506.01, 4179
506.0125, 4157
506.015, 4177
506.0175, 4094
506.02, 4187
506.0225, 4189
506.025, 4183
506.0275, 4176
506.03, 4187
506.0325, 4186
506.035, 4098
506.0375, 4192
506.04, 4176
506.0425, 4176
506.045, 4183
506.0475, 4169
506.05, 4176
506.0525, 4147
506.055, 4177
506.0575, 4196
506.06, 4186
506.0625, 4189
506.065, 4180
506.0675, 4161
506.07, 4065
506.0725, 4169
506.075, 4159
506.0775, 4157
506.08, 4162
506.0825, 4167
506.085, 4172
506.0875, 4063
506.09, 4183
506.0925, 4174
506.095, 4160
506.0975, 4168
506.1, 4190
506.1025, 4191
506.105, 4083
506.1075, 4187
506.11, 4175
506.1125, 4154
506.115, 4154
506.1175, 4140
506.12, 4147
506.1225, 4063
506.125, 4139
506.1275, 4160
506.13, 4170
506.1325, 4173
506.135, 4146
506.1375, 4136
506.14, 4063
506.1425, 4156
506.145, 4169
506.1475, 4156
506.15, 4167
506.1525, 4200
506.155, 4169
506.1575, 4080
506.16, 4181
506.1625, 4166
506.165, 4141
506.1675, 4137
506.17, 4153
506.1725, 4142
506.175, 4047
506.1775, 4156
506.18, 4131
506.1825, 4132
506.185, 4126
506.1875, 4133
506.19, 4159
506.1925, 4054
506.195, 4171
506.1975, 4170
506.2, 4134
506.2025, 4159
506.205, 4178
506.2075, 4156
506.21, 4078
506.2125, 4164
506.215, 4122
506.2175, 4119
506.22, 4101
506.2225, 4133
506.225, 4108
506.2275, 4079
506.23, 4140
506.2325, 4133
506.235, 4089
506.2375, 4086
506.24, 4118
506.2425, 4145
506.245, 4042
506.2475, 4160
506.25, 4174
506.2525, 4177
506.255, 4183
506.2575, 4191
506.26, 4171
506.2625, 4086
506.265, 4196
506.2675, 4192
506.27, 4187
506.2725, 4169
506.275, 4169
506.2775, 4177
506.28, 4075
506.2825, 4184
506.285, 4174
506.2875, 4161
506.29, 4182
506.2925, 4162
506.295, 4174
506.2975, 4117
506.3, 4160
506.3025, 4158
506.305, 4160
506.3075, 4050
506.31, 4192
506.3125, 4184
506.315, 4092
506.3175, 4210
506.32, 4259
506.3225, 4341
506.325, 4400
506.3275, 4420
506.33, 4460
506.3325, 4422
506.335, 4343
506.3375, 4132
506.34, 3898
506.3425, 3643
506.345, 3344
506.3475, 3095
506.35, 2600
506.3525, 2100
506.355, 1767
506.3575, 1596
506.36, 1671
506.3625, 2043
506.365, 2729
506.3675, 3646
506.37, 4654
506.3725, 5028
506.375, 5146
506.3775, 5124
506.38, 4966
506.3825, 4779
506.385, 4569
506.3875, 4605
506.39, 4597
506.3925, 4522
506.395, 4489
506.3975, 4505
506.4, 4499
506.4025, 4420
506.405, 4499
506.4075, 4523
506.41, 4511
506.4125, 4495
506.415, 4478
506.4175, 4455
506.42, 4329
506.4225, 4438
506.425, 4424
506.4275, 4412
506.43, 4420
506.4325, 4385
506.435, 4395
506.4375, 4279
506.44, 4379
506.4425, 4365
506.445, 4365
506.4475, 4352
506.45, 4352
506.4525, 4332
506.455, 4244
506.4575, 4343
506.46, 4317
506.4625, 4314
506.465, 4309
506.4675, 4291
506.47, 4282
506.4725, 4244
506.475, 4279
506.4775, 4261
506.48, 4262
506.4825, 4260
506.485, 4281
506.4875, 4263
506.49, 4141
506.4925, 4228
506.495, 4238
506.4975, 4225
506.5, 4214
506.5025, 4223
506.505, 4217
506.5075, 4151
506.51, 4234
506.5125, 4223
506.515, 4196
506.5175, 4162
506.52, 4205
506.5225, 4205
506.525, 4112
506.5275, 4222
506.53, 4202
506.5325, 4193
506.535, 4210
506.5375, 4200
506.54, 4200
506.5425, 4124
506.545, 4212
506.5475, 4191
506.55, 4180
506.5525, 4165
506.555, 4174
506.5575, 4189
506.56, 4097
506.5625, 4179
506.565, 4186
506.5675, 4174
506.57, 4163
506.5725, 4171
506.575, 4166
506.5775, 4074
506.58, 4165
506.5825, 4170
506.585, 4171
506.5875, 4199
506.59, 4178
506.5925, 4157
506.595, 4128
506.5975, 4186
506.6, 4171
506.6025, 4164
506.605, 4166
506.6075, 4163
506.61, 4171
506.6125, 4077
506.615, 4182
506.6175, 4179
506.62, 4176
506.6225, 4150
506.625, 4161
506.6275, 4164
506.63, 4076
506.6325, 4160
506.635, 4138
506.6375, 4169
506.64, 4141
506.6425, 4143
506.645, 4119
506.6475, 4052
506.65, 4141
506.6525, 4167
506.655, 4154
506.6575, 4155
506.66, 4163
506.6625, 4157
506.665, 4067
506.6675, 4187
506.67, 4187
506.6725, 4190
506.675, 4196
506.6775, 4219
506.68, 4224
506.6825, 4119
506.685, 4250
506.6875, 4233
506.69, 4232
506.6925, 4235
506.695, 4256
506.6975, 4272
506.7, 4168
506.7025, 4295
506.705, 4268
506.7075, 4287
506.71, 4270
506.7125, 4283
506.715, 4254
506.7175, 4172
506.72, 4283
506.7225, 4263
506.725, 4255
506.7275, 4250
506.73, 4277
506.7325, 4274
506.735, 4207
506.7375, 4291
506.74, 4284
506.7425, 4279
506.745, 4252
506.7475, 4243
506.75, 4233
506.7525, 4140
506.755, 4231
506.7575, 4251
506.76, 4216
506.7625, 4220
506.765, 4229
506.7675, 4228
506.77, 4180
506.7725, 4216
506.775, 4196
506.7775, 4173
506.78, 4180
506.7825, 4211
506.785, 4224
506.7875, 4136
506.79, 4224
506.7925, 4194
506.795, 4193
506.7975, 4186
506.8, 4203
506.8025, 4196
506.805, 4125
506.8075, 4218
506.81, 4200
506.8125, 4196
506.815, 4197
506.8175, 4214
506.82, 4209
506.8225, 4118
506.825, 4215
506.8275, 4166
506.83, 4186
506.8325, 4197
506.835, 4174
506.8375, 4187
506.84, 4094
506.8425, 4184
506.845, 4195
506.8475, 4180
506.85, 4191
506.8525, 4206
506.855, 4209
506.8575, 4106
506.86, 4202
506.8625, 4187
506.865, 4180
506.8675, 4148
506.87, 4214
506.8725, 4204
506.875, 4094
506.8775, 4190
506.88, 4177
506.8825, 4183
506.885, 4195
506.8875, 4214
506.89, 4175
506.8925, 4143
506.895, 4202
506.8975, 4195
506.9, 4204
506.9025, 4178
506.905, 4190
506.9075, 4200
506.91, 4104
506.9125, 4203
506.915, 4193
506.9175, 4191
506.92, 4200
506.9225, 4187
506.925, 4192
506.9275, 4085
506.93, 4172
506.9325, 4192
506.935, 4172
506.9375, 4169
506.94, 4174
506.9425, 4172
506.945, 4123
506.9475, 4154
506.95, 4157
506.9525, 4149
506.955, 4155
506.9575, 4170
506.96, 4150
506.9625, 4042
506.965, 4142
506.9675, 4138
506.97, 4149
506.9725, 4137
506.975, 4185
506.9775, 4157
506.98, 4076
506.9825, 4157
506.985, 4150
506.9875, 4144
506.99, 4162
506.9925, 4180
506.995, 4164
506.9975, 4086
507.0, 4181
507.0025, 4187
507.005, 4156
507.0075, 4176
507.01, 4169
507.0125, 4158
507.015, 4055
507.0175, 4175
507.02, 4156
507.0225, 4159
507.025, 4153
507.0275, 4162
507.03, 4185
507.0325, 4084
507.035, 4174
507.0375, 4151
507.04, 4168
507.0425, 4159
507.045, 4161
507.0475, 4146
507.05, 4063
507.0525, 4142
507.055, 4142
507.0575, 4139
507.06, 4164
507.0625, 4189
507.065, 4168
507.0675, 4121
507.07, 4184
507.0725, 4169
507.075, 4164
507.0775, 4169
507.08, 4186
507.0825, 4170
507.085, 4093
507.0875, 4184
507.09, 4190
507.0925, 4175
507.095, 4170
507.0975, 4180
507.1, 4165
507.1025, 4056
507.105, 4163
507.1075, 4162
507.11, 4193
507.1125, 4164
507.115, 4151
507.1175, 4149
507.12, 4100
507.1225, 4153
507.125, 4155
507.1275, 4154
507.13, 4140
507.1325, 4176
507.135, 4158
507.1375, 4056
507.14, 4156
507.1425, 4165
507.145, 4160
507.1475, 4160
507.15, 4189
507.1525, 4174
507.155, 4104
507.1575, 4185
507.16, 4177
507.1625, 4170
507.165, 4171
507.1675, 4185
507.17, 4201
507.1725, 4152
507.175, 4179
507.1775, 4200
507.18, 4194
507.1825, 4165
507.185, 4184
507.1875, 4166
507.19, 4082
507.1925, 4172
507.195, 4168
507.1975, 4172
507.2, 4184
507.2025, 4190
507.205, 4171
507.2075, 4081
507.21, 4182
507.2125, 4165
507.215, 4175
507.2175, 4168
507.22, 4185
507.2225, 4146
507.225, 4160
507.2275, 4171
507.23, 4181
507.2325, 4174
507.235, 4182
507.2375, 4199
507.24, 4191
507.2425, 4105
507.245, 4169
507.2475, 4167
507.25, 4178
507.2525, 4174
507.255, 4180
507.2575, 4178
507.26, 4094
507.2625, 4190
507.265, 4140
507.2675, 4120
507.27, 4137
507.2725, 4158
507.275, 4150
507.2775, 4037
507.28, 4136
507.2825, 4124
507.285, 4131
507.2875, 4143
507.29, 4166
507.2925, 4158
507.295, 4123
507.2975, 4170
507.3, 4171
507.3025, 4186
507.305, 4185
507.3075, 4201
507.31, 4188
507.3125, 4088
507.315, 4175
507.3175, 4168
507.32, 4186
507.3225, 4155
507.325, 4191
507.3275, 4192
507.33, 4089
507.3325, 4185
507.335, 4193
507.3375, 4188
507.34, 4189
507.3425, 4190
507.345, 4189
507.3475, 4081
507.35, 4176
507.3525, 4172
507.355, 4162
507.3575, 4164
507.36, 4170
507.3625, 4176
507.365, 4106
507.3675, 4259
507.37, 4346
507.3725, 4423
507.375, 4456
507.3775, 4495
507.38, 4496
507.3825, 4361
507.385, 4317
507.3875, 4093
507.39, 3809
507.3925, 3453
507.395, 3138
507.3975, 2718
507.4, 2096
507.4025, 1706
507.405, 1467
507.4075, 1520
507.41, 1770
507.4125, 2513
507.415, 3495
507.4175, 4310
507.42, 4846
507.4225, 5006
507.425, 4941
507.4275, 4805
507.43, 4674
507.4325, 4579
507.435, 4455
507.4375, 4525
507.44, 4511
507.4425, 4511
507.445, 4508
507.4475, 4549
507.45, 4568
507.4525, 4473
507.455, 4571
507.4575, 4571
507.46, 4559
507.4625, 4521
507.465, 4514
507.4675, 4497
507.47, 4337
507.4725, 4485
507.475, 4489
507.4775, 4468
507.48, 4460
507.4825, 4473
507.485, 4451
507.4875, 4343
507.49, 4422
507.4925, 4420
507.495, 4404
507.4975, 4392
507.5, 4414
507.5025, 4388
507.505, 4225
507.5075, 4373
507.51, 4369
507.5125, 4372
507.515, 4328
507.5175, 4332
507.52, 4343
507.5225, 4241
507.525, 4325
507.5275, 4338
507.53, 4333
507.5325, 4331
507.535, 4310
507.5375, 4299
507.54, 4190
507.5425, 4280
507.545, 4266
507.5475, 4286
507.55, 4276
507.5525, 4291
507.555, 4270
507.5575, 4176
507.56, 4269
507.5625, 4254
507.565, 4249
507.5675, 4241
507.57, 4247
507.5725, 4232
507.575, 4142
507.5775, 4210
507.58, 4223
507.5825, 4216
507.585, 4183
507.5875, 4237
507.59, 4240
507.5925, 4179
507.595, 4241
507.5975, 4248
507.6, 4216
507.6025, 4210
507.605, 4231
507.6075, 4213
507.61, 4115
507.6125, 4218
507.615, 4230
507.6175, 4233
507.62, 4224
507.6225, 4240
507.625, 4220
507.6275, 4125
507.63, 4229
507.6325, 4227
507.635, 4238
507.6375, 4241
507.64, 4257
507.6425, 4225
507.645, 4192
507.6475, 4220
507.65, 4224
507.6525, 4205
507.655, 4207
507.6575, 4217
507.66, 4200
507.6625, 4124
507.665, 4203
507.6675, 4209
507.67, 4194
507.6725, 4171
507.675, 4194
507.6775, 4201
507.68, 4072
507.6825, 4169
507.685, 4153
507.6875, 4135
507.69, 4156
507.6925, 4133
507.695, 4133
507.6975, 4032
507.7, 4114
507.7025, 4101
507.705, 4092
507.7075, 4080
507.71, 4091
507.7125, 4077
507.715, 4004
507.7175, 4112
507.72, 4114
507.7225, 4113
507.725, 4127
507.7275, 4166
507.73, 4160
507.7325, 4009
507.735, 4144
507.7375, 4156
507.74, 4155
507.7425, 4173
507.745, 4199
507.7475, 4190
507.75, 4114
507.7525, 4215
507.755, 4207
507.7575, 4200
507.76, 4195
507.7625, 4190
507.765, 4148
507.7675, 4105
507.77, 4216
507.7725, 4221
507.775, 4213
507.7775, 4215
507.78, 4213
507.7825, 4223
507.785, 4116
507.7875, 4217
507.79, 4196
507.7925, 4204
507.795, 4179
507.7975, 4228
507.8, 4225
507.8025, 4110
507.805, 4195
507.8075, 4200
507.81, 4195
507.8125, 4174
507.815, 4197
507.8175, 4158
507.82, 4134
507.8225, 4168
507.825, 4187
507.8275, 4161
507.83, 4171
507.8325, 4181
507.835, 4154
507.8375, 4059
507.84, 4139
507.8425, 4170
507.845, 4176
507.8475, 4155
507.85, 4166
507.8525, 4155
507.855, 4070
507.8575, 4170
507.86, 4194
507.8625, 4167
507.865, 4159
507.8675, 4172
507.87, 4175
507.8725, 4120
507.875, 4154
507.8775, 4163
507.88, 4191
507.8825, 4168
507.885, 4185
507.8875, 4177
507.89, 4088
507.8925, 4171
507.895, 4165
507.8975, 4151
507.9, 4147
507.9025, 4166
507.905, 4147
507.9075, 4071
507.91, 4159
507.9125, 4164
507.915, 4159
507.9175, 4164
507.92, 4168
507.9225, 4169
507.925, 4068
507.9275, 4155
507.93, 4162
507.9325, 4162
507.935, 4177
507.9375, 4153
507.94, 4153
507.9425, 4057
507.945, 4142
507.9475, 4123
507.95, 4144
507.9525, 4126
507.955, 4176
507.9575, 4149
507.96, 4080
507.9625, 4164
507.965, 4168
507.9675, 4160
507.97, 4164
507.9725, 4170
507.975, 4172
507.9775, 4081
507.98, 4172
507.9825, 4175
507.985, 4170
507.9875, 4152
507.99, 4172
507.9925, 4167
507.995, 4072
507.9975, 4144
508.0, 4152
508.0025, 4155
508.005, 4156
508.0075, 4173
508.01, 4157
508.0125, 4074
508.015, 4183
508.0175, 4176
508.02, 4153
508.0225, 4142
508.025, 4168
508.0275, 4184
508.03, 4094
508.0325, 4194
508.035, 4173
508.0375, 4170
508.04, 4148
508.0425, 4159
508.045, 4160
508.0475, 4105
508.05, 4172
508.0525, 4160
508.055, 4147
508.0575, 4150
508.06, 4162
508.0625, 4152
508.065, 4077
508.0675, 4184
508.07, 4182
508.0725, 4181
508.075, 4190
508.0775, 4198
508.08, 4185
508.0825, 4097
508.085, 4151
508.0875, 4170
508.09, 4175
508.0925, 4163
508.095, 4175
508.0975, 4171
508.1, 4060
508.1025, 4156
508.105, 4164
508.1075, 4169
508.11, 4168
508.1125, 4181
508.115, 4173
508.1175, 4071
508.12, 4175
508.1225, 4148
508.125, 4153
508.1275, 4170
508.13, 4174
508.1325, 4172
508.135, 4087
508.1375, 4189
508.14, 4194
508.1425, 4189
508.145, 4181
508.1475, 4212
508.15, 4193
508.1525, 4097
508.155, 4190
508.1575, 4207
508.16, 4190
508.1625, 4186
508.165, 4166
508.1675, 4181
508.17, 4079
508.1725, 4176
508.175, 4183
508.1775, 4180
508.18, 4171
508.1825, 4162
508.185, 4162
508.1875, 4056
508.19, 4180
508.1925, 4201
508.195, 4191
508.1975, 4177
508.2, 4189
508.2025, 4193
508.205, 4081
508.2075, 4167
508.21, 4185
508.2125, 4171
508.215, 4167
508.2175, 4199
508.22, 4172
508.2225, 4122
508.225, 4161
508.2275, 4179
508.23, 4163
508.2325, 4176
508.235, 4188
508.2375, 4176
508.24, 4095
508.2425, 4183
508.245, 4157
508.2475, 4162
508.25, 4155
508.2525, 4178
508.255, 4184
508.2575, 4086
508.26, 4184
508.2625, 4193
508.265, 4173
508.2675, 4158
508.27, 4186
508.2725, 4177
508.275, 4126
508.2775, 4176
508.28, 4152
508.2825, 4171
508.285, 4177
508.2875, 4172
508.29, 4174
508.2925, 4084
508.295, 4222
508.2975, 4169
508.3, 4179
508.3025, 4129
508.305, 4190
508.3075, 4187
508.31, 4096
508.3125, 4163
508.315, 4171
508.3175, 4159
508.32, 4177
508.3225, 4183
508.325, 4187
508.3275, 4087
508.33, 4177
508.3325, 4168
508.335, 4135
508.3375, 4138
508.34, 4156
508.3425, 4173
508.345, 4088
508.3475, 4169
508.35, 4167
508.3525, 4145
508.355, 4151
508.3575, 4164
508.36, 4150
508.3625, 4113
508.365, 4104
508.3675, 4116
508.37, 4140
508.3725, 4107
508.375, 4183
508.3775, 4184
508.38, 4083
508.3825, 4205
508.385, 4180
508.3875, 4169
508.39, 4186
508.3925, 4192
508.395, 4176
508.3975, 4099
508.4, 4181
508.4025, 4170
508.405, 4163
508.4075, 4152
508.41, 4166
508.4125, 4120
508.415, 4042
508.4175, 4125
508.42, 4090
508.4225, 4076
508.425, 4105
508.4275, 4118
508.43, 4137
508.4325, 4044
508.435, 4128
508.4375, 4128
508.44, 4120
508.4425, 4159
508.445, 4194
508.4475, 4211
508.45, 4141
508.4525, 4197
508.455, 4188
508.4575, 4190
508.46, 4186
508.4625, 4219
508.465, 4173
508.4675, 4143
508.47, 4197
508.4725, 4161
508.475, 4174
508.4775, 4133
508.48, 4204
508.4825, 4186
508.485, 4100
508.4875, 4198
508.49, 4207
508.4925, 4201
508.495, 4194
508.4975, 4189
508.5, 4183
508.5025, 4064
508.505, 4206
508.5075, 4227
508.51, 4248
508.5125, 4326
508.515, 4385
508.5175, 4416
508.52, 4377
508.5225, 4493
508.525, 4472
508.5275, 4311
508.53, 4085
508.5325, 3864
508.535, 3532
508.5375, 3238
508.54, 2821
508.5425, 2334
508.545, 1917
508.5475, 1675
508.55, 1651
508.5525, 1887
508.555, 2312
508.5575, 3370
508.56, 4338
508.5625, 4867
508.565, 5090
508.5675, 5128
508.57, 5006
508.5725, 4749
508.575, 4688
508.5775, 4603
508.58, 4574
508.5825, 4528
508.585, 4491
508.5875, 4497
508.59, 4400
508.5925, 4503
508.595, 4537
508.5975, 4519
508.6, 4522
508.6025, 4504
508.605, 4502
508.6075, 4368
508.61, 4469
508.6125, 4442
508.615, 4441
508.6175, 4403
508.62, 4456
508.6225, 4421
508.625, 4368
508.6275, 4402
508.63, 4376
508.6325, 4368
508.635, 4360
508.6375, 4372
508.64, 4351
508.6425, 4216
508.645, 4369
508.6475, 4367
508.65, 4355
508.6525, 4322
508.655, 4321
508.6575, 4317
508.66, 4211
508.6625, 4299
508.665, 4273
508.6675, 4278
508.67, 4277
508.6725, 4282
508.675, 4269
508.6775, 4252
508.68, 4239
508.6825, 4237
508.685, 4231
508.6875, 4203
508.69, 4229
508.6925, 4228
508.695, 4112
508.6975, 4229
508.7, 4207
508.7025, 4228
508.705, 4202
508.7075, 4225
508.71, 4218
508.7125, 4054
508.715, 4211
508.7175, 4210
508.72, 4204
508.7225, 4196
508.725, 4208
508.7275, 4196
508.73, 4124
508.7325, 4216
508.735, 4222
508.7375, 4198
508.74, 4184
508.7425, 4213
508.745, 4180
508.7475, 4094
508.75, 4191
508.7525, 4197
508.755, 4183
508.7575, 4172
508.76, 4194
508.7625, 4202
508.765, 4086
508.7675, 4189
508.77, 4187
508.7725, 4181
508.775, 4176
508.7775, 4208
508.78, 4194
508.7825, 4081
508.785, 4209
508.7875, 4187
508.79, 4184
508.7925, 4180
508.795, 4179
508.7975, 4176
508.8, 4080
508.8025, 4183
508.805, 4171
508.8075, 4198
508.81, 4170
508.8125, 4184
508.815, 4170
508.8175, 4075
508.82, 4163
508.8225, 4184
508.825, 4177
508.8275, 4144
508.83, 4165
508.8325, 4145
508.835, 4033
508.8375, 4140
508.84, 4139
508.8425, 4127
508.845, 4156
508.8475, 4153
508.85, 4128
508.8525, 4064
508.855, 4115
508.8575, 4141
508.86, 4130
508.8625, 4165
508.865, 4154
508.8675, 4171
508.87, 4044
508.8725, 4216
508.875, 4206
508.8775, 4217
508.88, 4195
508.8825, 4207
508.885, 4219
508.8875, 4127
508.89, 4227
508.8925, 4238
508.895, 4217
508.8975, 4226
508.9, 4228
508.9025, 4226
508.905, 4177
508.9075, 4251
508.91, 4238
508.9125, 4240
508.915, 4220
508.9175, 4240
508.92, 4225
508.9225, 4135
508.925, 4245
508.9275, 4234
508.93, 4225
508.9325, 4231
508.935, 4232
508.9375, 4238
508.94, 4132
508.9425, 4228
508.945, 4215
508.9475, 4212
508.95, 4196
508.9525, 4215
508.955, 4218
508.9575, 4124
508.96, 4227
508.9625, 4219
508.965, 4212
508.9675, 4206
508.97, 4208
508.9725, 4197
508.975, 4108
508.9775, 4215
508.98, 4194
508.9825, 4208
508.985, 4176
508.9875, 4210
508.99, 4212
508.9925, 4117
508.995, 4194
508.9975, 4179
509.0, 4174
509.0025, 4187
509.005, 4215
509.0075, 4210
509.01, 4106
509.0125, 4197
509.015, 4204
509.0175, 4206
509.02, 4190
509.0225, 4191
509.025, 4200
509.0275, 4159
509.03, 4193
509.0325, 4206
509.035, 4187
509.0375, 4195
509.04, 4204
509.0425, 4215
509.045, 4109
509.0475, 4208
509.05, 4173
509.0525, 4187
509.055, 4163
509.0575, 4178
509.06, 4171
509.0625, 4079
509.065, 4208
509.0675, 4183
509.07, 4214
509.0725, 4186
509.075, 4213
509.0775, 4193
509.08, 4151
509.0825, 4177
509.085, 4173
509.0875, 4155
509.09, 4162
509.0925, 4185
509.095, 4178
509.0975, 4090
509.1, 4166
509.1025, 4195
509.105, 4168
509.1075, 4184
509.11, 4183
509.1125, 4193
509.115, 4076
509.1175, 4193
509.12, 4155
509.1225, 4152
509.125, 4146
509.1275, 4179
509.13, 4189
509.1325, 4083
509.135, 4187
509.1375, 4189
509.14, 4189
509.1425, 4198
509.145, 4203
509.1475, 4186
509.15, 4109
509.1525, 4191
509.155, 4170
509.1575, 4162
509.16, 4160
509.1625, 4179
509.165, 4170
509.1675, 4071
509.17, 4192
509.1725, 4202
509.175, 4204
509.1775, 4159
509.18, 4193
509.1825, 4179
509.185, 4157
509.1875, 4176
509.19, 4193
509.1925, 4201
509.195, 4179
509.1975, 4155
509.2, 4157
509.2025, 4081
509.205, 4166
509.2075, 4159
509.21, 4163
509.2125, 4160
509.215, 4190
509.2175, 4179
509.22, 4069
509.2225, 4189
509.225, 4160
509.2275, 4175
509.23, 4178
509.2325, 4190
509.235, 4172
509.2375, 4105
509.24, 4197
509.2425, 4188
509.245, 4189
509.2475, 4185
509.25, 4235
509.2525, 4209
509.255, 4177
509.2575, 4178
509.26, 4194
509.2625, 4185
509.265, 4180
509.2675, 4183
509.27, 4175
509.2725, 4092
509.275, 4204
509.2775, 4189
509.28, 4157
509.2825, 4179
509.285, 4177
509.2875, 4164
509.29, 4055
509.2925, 4188
509.295, 4186
509.2975, 4162
509.3, 4137
509.3025, 4150
509.305, 4149
509.3075, 4018
509.31, 4164
509.3125, 4162
509.315, 4157
509.3175, 4139
509.32, 4149
509.3225, 4116
509.325, 4040
509.3275, 4137
509.33, 4149
509.3325, 4154
509.335, 4139
509.3375, 4147
509.34, 4144
509.3425, 4063
509.345, 4161
509.3475, 4159
509.35, 4142
509.3525, 4153
509.355, 4160
509.3575, 4154
509.36, 4054
509.3625, 4163
509.365, 4172
509.3675, 4147
509.37, 4158
509.3725, 4170
509.375, 4185
509.3775, 4103
509.38, 4144
509.3825, 4132
509.385, 4137
509.3875, 4119
509.39, 4168
509.3925, 4155
509.395, 4085
509.3975, 4156
509.4, 4116
509.4025, 4119
509.405, 4124
509.4075, 4153
509.41, 4145
509.4125, 4058
509.415, 4168
509.4175, 4167
509.42, 4151
509.4225, 4167
509.425, 4193
509.4275, 4170
509.43, 4137
509.4325, 4177
509.435, 4185
509.4375, 4185
509.44, 4187
509.4425, 4184
509.445, 4193
509.4475, 4042
509.45, 4175
509.4525, 4178
509.455, 4171
509.4575, 4165
509.46, 4168
509.4625, 4170
509.465, 4063
509.4675, 4191
509.47, 4190
509.4725, 4205
509.475, 4161
509.4775, 4152
509.48, 4113
509.4825, 4063
509.485, 4080
509.4875, 4077
509.49, 4100
509.4925, 4124
509.495, 4155
509.4975, 4141
509.5, 4072
509.5025, 4154
509.505, 4162
509.5075, 4151
509.51, 4128
509.5125, 4182
509.515, 4185
509.5175, 4073
509.52, 4225
509.5225, 4221
509.525, 4211
509.5275, 4199
509.53, 4197
509.5325, 4189
509.535, 4068
509.5375, 4177
509.54, 4159
509.5425, 4169
509.545, 4182
509.5475, 4178
509.55, 4192
509.5525, 4081
509.555, 4196
509.5575, 4177
509.56, 4175
509.5625, 4169
509.565, 4189
509.5675, 4192
509.57, 4103
509.5725, 4198
509.575, 4193
509.5775, 4225
509.58, 4260
509.5825, 4370
509.585, 4434
509.5875, 4368
509.59, 4506
509.5925, 4531
509.595, 4441
509.5975, 4279
509.6, 4044
509.6025, 3785
509.605, 3322
509.6075, 3061
509.61, 2620
509.6125, 2035
509.615, 1626
509.6175, 1496
509.62, 1592
509.6225, 1873
509.625, 2780
509.6275, 3755
509.63, 4567
509.6325, 4989
509.635, 5067
509.6375, 4997
509.64, 4737
509.6425, 4697
509.645, 4619
509.6475, 4608
509.65, 4585
509.6525, 4537
509.655, 4532
509.6575, 4503
509.66, 4549
509.6625, 4571
509.665, 4561
509.6675, 4560
509.67, 4570
509.6725, 4543
509.675, 4442
509.6775, 4528
509.68, 4512
509.6825, 4479
509.685, 4473
509.6875, 4465
509.69, 4454
509.6925, 4334
509.695, 4440
509.6975, 4423
509.7, 4390
509.7025, 4383
509.705, 4381
509.7075, 4393
509.71, 4325
509.7125, 4375
509.715, 4361
509.7175, 4352
509.72, 4340
509.7225, 4334
509.725, 4323
509.7275, 4201
509.73, 4314
509.7325, 4298
509.735, 4293
509.7375, 4279
509.74, 4284
509.7425, 4296
509.745, 4185
509.7475, 4283
509.75, 4273
509.7525, 4274
509.755, 4261
509.7575, 4289
509.76, 4241
509.7625, 4147
509.765, 4234
509.7675, 4235
509.77, 4222
509.7725, 4242
509.775, 4223
509.7775, 4221
509.78, 4126
509.7825, 4216
509.785, 4228
509.7875, 4244
509.79, 4231
509.7925, 4245
509.795, 4233
509.7975, 4131
509.8, 4220
509.8025, 4207
509.805, 4216
509.8075, 4218
509.81, 4248
509.8125, 4206
509.815, 4129
509.8175, 4216
509.82, 4220
509.8225, 4213
509.825, 4216
509.8275, 4256
509.83, 4213
509.8325, 4162
509.835, 4192
509.8375, 4226
509.84, 4215
509.8425, 4233
509.845, 4241
509.8475, 4213
509.85, 4126
509.8525, 4227
509.855, 4259
509.8575, 4248
509.86, 4240
509.8625, 4214
509.865, 4221
509.8675, 4134
509.87, 4227
509.8725, 4223
509.875, 4246
509.8775, 4237
509.88, 4230
509.8825, 4224
509.885, 4133
509.8875, 4211
509.89, 4224
509.8925, 4204
509.895, 4210
509.8975, 4187
509.9, 4162
509.9025, 4061
509.905, 4113
509.9075, 4118
509.91, 4114
509.9125, 4093
509.915, 4115
509.9175, 4123
509.92, 4029
509.9225, 4131
509.925, 4144
509.9275, 4132
509.93, 4106
509.9325, 4122
509.935, 4138
509.9375, 4039
509.94, 4147
509.9425, 4147
509.945, 4140
509.9475, 4166
509.95, 4178
509.9525, 4168
509.955, 4125
509.9575, 4182
509.96, 4180
509.9625, 4198
509.965, 4209
509.9675, 4209
509.97, 4207
509.9725, 4099
509.975, 4206
509.9775, 4181
509.98, 4185
509.9825, 4164
509.985, 4201
509.9875, 4211
509.99, 4098
509.9925, 4238
509.995, 4232
509.9975, 4213
510.0, 4201
510.0025, 4220
510.005, 4202
510.0075, 4119
510.01, 4223
510.0125, 4220
510.015, 4216
510.0175, 4216
510.02, 4208
510.0225, 4190
510.025, 4085
510.0275, 4205
510.03, 4201
510.0325, 4189
510.035, 4204
510.0375, 4203
510.04, 4189
510.0425, 4094
510.045, 4200
510.0475, 4180
510.05, 4173
510.0525, 4168
510.055, 4174
510.0575, 4174
510.06, 4091
510.0625, 4171
510.065, 4163
510.0675, 4170
510.07, 4166
510.0725, 4191
510.075, 4188
510.0775, 4074
510.08, 4189
510.0825, 4186
510.085, 4169
510.0875, 4145
510.09, 4177
510.0925, 4177
510.095, 4048
510.0975, 4178
510.1, 4188
510.1025, 4186
510.105, 4179
510.1075, 4187
510.11, 4168
510.1125, 4068
510.115, 4179
510.1175, 4189
510.12, 4171
510.1225, 4166
510.125, 4178
510.1275, 4162
510.13, 4063
510.1325, 4182
510.135, 4166
510.1375, 4191
510.14, 4174
510.1425, 4186
510.145, 4179
510.1475, 4070
510.15, 4189
510.1525, 4199
510.155, 4186
510.1575, 4182
510.16, 4179
510.1625, 4173
510.165, 4050
510.1675, 4178
510.17, 4189
510.1725, 4175
510.175, 4159
510.1775, 4180
510.18, 4196
510.1825, 4068
510.185, 4174
510.1875, 4164
510.19, 4150
510.1925, 4140
510.195, 4161
510.1975, 4169
510.2, 4102
510.2025, 4158
510.205, 4160
510.2075, 4158
510.21, 4171
510.2125, 4172
510.215, 4176
510.2175, 4066
510.22, 4158
510.2225, 4155
510.225, 4168
510.2275, 4170
510.23, 4157
510.2325, 4178
510.235, 4037
510.2375, 4191
510.24, 4180
510.2425, 4190
510.245, 4148
510.2475, 4174
510.25, 4176
510.2525, 4116
510.255, 4171
510.2575, 4180
510.26, 4155
510.2625, 4153
510.265, 4168
510.2675, 4164
510.27, 4089
510.2725, 4191
510.275, 4194
510.2775, 4167
510.28, 4148
510.2825, 4157
510.285, 4162
510.2875, 4072
510.29, 4184
510.2925, 4181
510.295, 4165
510.2975, 4169
510.3, 4169
510.3025, 4160
510.305, 4114
510.3075, 4157
510.31, 4167
510.3125, 4167
510.315, 4158
510.3175, 4171
510.32, 4169
510.3225, 4087
510.325, 4170
510.3275, 4177
510.33, 4179
510.3325, 4166
510.335, 4215
510.3375, 4156
510.34, 4062
510.3425, 4157
510.345, 4156
510.3475, 4146
510.35, 4132
510.3525, 4163
510.355, 4129
510.3575, 4050
510.36, 4164
510.3625, 4153
510.365, 4146
510.3675, 4158
510.37, 4154
510.3725, 4167
510.375, 4052
510.3775, 4156
510.38, 4146
510.3825, 4145
510.385, 4146
510.3875, 4170
510.39, 4154
510.3925, 4069
510.395, 4206
510.3975, 4187
510.4, 4183
510.4025, 4162
510.405, 4164
510.4075, 4166
510.41, 4056
510.4125, 4156
510.415, 4144
510.4175, 4152
510.42, 4120
510.4225, 4154
510.425, 4162
510.4275, 4107
510.43, 4170
510.4325, 4159
510.435, 4140
510.4375, 4155
510.44, 4140
510.4425, 4154
510.445, 4070
510.4475, 4185
510.45, 4181
510.4525, 4173
510.455, 4170
510.4575, 4162
510.46, 4185
510.4625, 4076
510.465, 4176
510.4675, 4159
510.47, 4158
510.4725, 4152
510.475, 4178
510.4775, 4161
510.48, 4081
510.4825, 4183
510.485, 4189
510.4875, 4182
510.49, 4181
510.4925, 4187
510.495, 4173
510.4975, 4067
510.5, 4164
510.5025, 4180
510.505, 4185
510.5075, 4179
510.51, 4199
510.5125, 4207
510.515, 4109
510.5175, 4197
510.52, 4210
510.5225, 4197
510.525, 4186
510.5275, 4158
510.53, 4193
510.5325, 4055
510.535, 4161
510.5375, 4173
510.54, 4180
510.5425, 4185
510.545, 4187
510.5475, 4193
510.55, 4090
510.5525, 4200
510.555, 4203
510.5575, 4173
510.56, 4169
510.5625, 4182
510.565, 4195
510.5675, 4093
510.57, 4208
510.5725, 4204
510.575, 4204
510.5775, 4144
510.58, 4115
510.5825, 4122
510.585, 4024
510.5875, 4081
510.59, 4056
510.5925, 4060
510.595, 4060
510.5975, 4107
510.6, 4117
510.6025, 4086
510.605, 4118
510.6075, 4140
510.61, 4126
510.6125, 4140
510.615, 4160
510.6175, 4180
510.62, 4108
510.6225, 4205
510.625, 4190
510.6275, 4196
510.63, 4206
510.6325, 4181
510.635, 4211
510.6375, 4096
510.64, 4202
510.6425, 4194
510.645, 4191
510.6475, 4206
510.65, 4238
510.6525, 4236
510.655, 4133
510.6575, 4223
510.66, 4221
510.6625, 4201
510.665, 4209
510.6675, 4196
510.67, 4209
510.6725, 4134
510.675, 4232
510.6775, 4244
510.68, 4265
510.6825, 4306
510.685, 4391
510.6875, 4436
510.69, 4376
510.6925, 4498
510.695, 4528
510.6975, 4403
510.7, 4207
510.7025, 3961
510.705, 3659
510.7075, 3233
510.71, 2990
510.7125, 2562
510.715, 2032
510.7175, 1742
510.72, 1591
510.7225, 1758
510.725, 2079
510.7275, 2998
510.73, 3975
510.7325, 4650
510.735, 4970
510.7375, 5081
510.74, 5001
510.7425, 4746
510.745, 4683
510.7475, 4589
510.75, 4568
510.7525, 4549
510.755, 4525
510.7575, 4499
510.76, 4424
510.7625, 4544
510.765, 4527
510.7675, 4519
510.77, 4518
510.7725, 4523
510.775, 4516
510.7775, 4455
510.78, 4491
510.7825, 4472
510.785, 4446
510.7875, 4428
510.79, 4421
510.7925, 4424
510.795, 4318
510.7975, 4414
510.8, 4404
510.8025, 4381
510.805, 4377
510.8075, 4381
510.81, 4405
510.8125, 4218
510.815, 4363
510.8175, 4338
510.82, 4315
510.8225, 4318
510.825, 4322
510.8275, 4329
510.83, 4232
510.8325, 4340
510.835, 4348
510.8375, 4308
510.84, 4311
510.8425, 4297
510.845, 4289
510.8475, 4180
510.85, 4280
510.8525, 4276
510.855, 4247
510.8575, 4250
510.86, 4250
510.8625, 4245
510.865, 4158
510.8675, 4254
510.87, 4259
510.8725, 4240
510.875, 4236
510.8775, 4229
510.88, 4205
510.8825, 4115
510.885, 4218
510.8875, 4218
510.89, 4203
510.8925, 4198
510.895, 4205
510.8975, 4213
510.9, 4162
510.9025, 4216
510.905, 4185
510.9075, 4202
510.91, 4182
510.9125, 4191
510.915, 4182
510.9175, 4072
510.92, 4184
510.9225, 4191
510.925, 4177
510.9275, 4179
510.93, 4206
510.9325, 4200
510.935, 4128
510.9375, 4202
510.94, 4202
510.9425, 4176
510.945, 4179
510.9475, 4188
510.95, 4167
510.9525, 4078
510.955, 4165
510.9575, 4199
510.96, 4176
510.9625, 4173
510.965, 4174
510.9675, 4158
510.97, 4075
510.9725, 4183
510.975, 4169
510.9775, 4162
510.98, 4141
510.9825, 4180
510.985, 4153
510.9875, 4071
510.99, 4161
510.9925, 4155
510.995, 4158
510.9975, 4119
511.0, 4135
511.0025, 4134
511.005, 4052
511.0075, 4130
511.01, 4105
511.0125, 4113
511.015, 4120
511.0175, 4119
511.02, 4128
511.0225, 4041
511.025, 4155
511.0275, 4145
511.03, 4126
511.0325, 4148
511.035, 4141
511.0375, 4154
511.04, 4039
511.0425, 4164
511.045, 4162
511.0475, 4171
511.05, 4185
511.0525, 4187
511.055, 4185
511.0575, 4069
511.06, 4217
511.0625, 4209
511.065, 4198
511.0675, 4188
511.07, 4214
511.0725, 4219
511.075, 4168
511.0775, 4213
511.08, 4217
511.0825, 4206
511.085, 4205
511.0875, 4226
511.09, 4235
511.0925, 4129
511.095, 4223
511.0975, 4217
511.1, 4216
511.1025, 4201
511.105, 4216
511.1075, 4226
511.11, 4122
511.1125, 4240
511.115, 4226
511.1175, 4208
511.12, 4198
511.1225, 4189
511.125, 4202
511.1275, 4157
511.13, 4207
511.1325, 4201
511.135, 4207
511.1375, 4208
511.14, 4235
511.1425, 4208
511.145, 4090
511.1475, 4202
511.15, 4206
511.1525, 4203
511.155, 4203
511.1575, 4203
511.16, 4182
511.1625, 4099
511.165, 4193
511.1675, 4198
511.17, 4210
511.1725, 4220
511.175, 4227
511.1775, 4212
511.18, 4110
511.1825, 4224
511.185, 4199
511.1875, 4180
511.19, 4184
511.1925, 4170
511.195, 4177
511.1975, 4086
511.2, 4190
511.2025, 4182
511.205, 4183
511.2075, 4168
511.21, 4187
511.2125, 4195
511.215, 4100
511.2175, 4205
511.22, 4214
511.2225, 4218
511.225, 4178
511.2275, 4193
511.23, 4210
511.2325, 4098
511.235, 4216
511.2375, 4207
511.24, 4216
511.2425, 4214
511.245, 4220
511.2475, 4202
511.25, 4098
511.2525, 4211
511.255, 4183
511.2575, 4185
511.26, 4160
511.2625, 4198
511.265, 4154
511.2675, 4082
511.27, 4180
511.2725, 4178
511.275, 4166
511.2775, 4156
511.28, 4159
511.2825, 4171
511.285, 4079
511.2875, 4172
511.29, 4192
511.2925, 4195
511.295, 4203
511.2975, 4196
511.3, 4184
511.3025, 4140
511.305, 4180
511.3075, 4172
511.31, 4173
511.3125, 4185
511.315, 4181
511.3175, 4180
511.32, 4070
511.3225, 4186
511.325, 4147
511.3275, 4180
511.33, 4167
511.3325, 4165
511.335, 4150
511.3375, 4073
511.34, 4193
511.3425, 4186
511.345, 4173
511.3475, 4170
511.35, 4186
511.3525, 4158
511.355, 4105
511.3575, 4176
511.36, 4178
511.3625, 4175
511.365, 4170
511.3675, 4177
511.37, 4184
511.3725, 4089
511.375, 4188
511.3775, 4174
511.38, 4172
511.3825, 4154
511.385, 4189
511.3875, 4180
511.39, 4049
511.3925, 4173
511.395, 4196
511.3975, 4184
511.4, 4163
511.4025, 4184
511.405, 4161
511.4075, 4056
511.41, 4193
511.4125, 4190
511.415, 4195
511.4175, 4192
511.42, 4165
511.4225, 4159
511.425, 4054
511.4275, 4170
511.43, 4162
511.4325, 4157
511.435, 4161
511.4375, 4177
511.44, 4176
511.4425, 4066
511.445, 4171
511.4475, 4187
511.45, 4174
511.4525, 4148
511.455, 4156
511.4575, 4192
511.46, 4046
511.4625, 4205
511.465, 4189
511.4675, 4186
511.47, 4207
511.4725, 4197
511.475, 4185
511.4775, 4123
511.48, 4165
511.4825, 4190
511.485, 4182
511.4875, 4167
511.49, 4170
511.4925, 4182
511.495, 4085
511.4975, 4163
511.5, 4181
511.5025, 4167
511.505, 4163
511.5075, 4188
511.51, 4174
511.5125, 4105
511.515, 4209
511.5175, 4181
511.52, 4179
511.5225, 4164
511.525, 4176
511.5275, 4173
511.53, 4082
511.5325, 4192
511.535, 4153
511.5375, 4139
511.54, 4120
511.5425, 4151
511.545, 4129
511.5475, 4029
511.55, 4140
511.5525, 4131
511.555, 4128
511.5575, 4092
511.56, 4122
511.5625, 4127
511.565, 4051
511.5675, 4164
511.57, 4156
511.5725, 4155
511.575, 4147
511.5775, 4161
511.58, 4147
511.5825, 4052
511.585, 4176
511.5875, 4177
511.59, 4169
511.5925, 4157
511.595, 4174
511.5975, 4186
511.6, 4147
511.6025, 4197
511.605, 4201
511.6075, 4203
511.61, 4191
511.6125, 4225
511.615, 4204
511.6175, 4119
511.62, 4220
511.6225, 4194
511.625, 4189
511.6275, 4208
511.63, 4216
511.6325, 4191
511.635, 4072
511.6375, 4174
511.64, 4185
511.6425, 4242
511.645, 4323
511.6475, 4421
511.65, 4443
511.6525, 4366
511.655, 4487
511.6575, 4389
511.66, 4186
511.6625, 3920
511.665, 3676
511.6675, 3305
511.67, 2927
511.6725, 2608
511.675, 2055
511.6775, 1746
511.68, 1516
511.6825, 1717
511.685, 2061
511.6875, 2677
511.69, 3803
511.6925, 4731
511.695, 5070
511.6975, 5121
511.7, 5092
511.7025, 4931
511.705, 4661
511.7075, 4646
511.71, 4595
511.7125, 4535
511.715, 4502
511.7175, 4470
511.72, 4473
511.7225, 4428
511.725, 4499
511.7275, 4503
511.73, 4498
511.7325, 4487
511.735, 4459
511.7375, 4456
511.74, 4314
511.7425, 4438
511.745, 4426
511.7475, 4424
511.75, 4386
511.7525, 4394
511.755, 4377
511.7575, 4282
511.76, 4365
511.7625, 4370
511.765, 4366
511.7675, 4348
511.77, 4353
511.7725, 4329
511.775, 4284
511.7775, 4318
511.78, 4318
511.7825, 4290
511.785, 4304
511.7875, 4292
511.79, 4302
511.7925, 4195
511.795, 4291
511.7975, 4304
511.8, 4268
511.8025, 4268
511.805, 4278
511.8075, 4275
511.81, 4172
511.8125, 4280
511.815, 4248
511.8175, 4239
511.82, 4234
511.8225, 4240
511.825, 4216
511.8275, 4099
511.83, 4191
511.8325, 4191
511.835, 4198
511.8375, 4187
511.84, 4206
511.8425, 4183
511.845, 4090
511.8475, 4194
511.85, 4200
511.8525, 4191
511.855, 4193
511.8575, 4188
511.86, 4194
511.8625, 4092
511.865, 4184
511.8675, 4199
511.87, 4184
511.8725, 4188
511.875, 4183
511.8775, 4188
511.88, 4080
511.8825, 4162
511.885, 4178
511.8875, 4164
511.89, 4162
511.8925, 4175
511.895, 4182
511.8975, 4143
511.9, 4205
511.9025, 4217
511.905, 4204
511.9075, 4198
511.91, 4197
511.9125, 4198
511.915, 4103
511.9175, 4203
511.92, 4200
511.9225, 4204
511.925, 4193
511.9275, 4222
511.93, 4182
511.9325, 4101
511.935, 4181
511.9375, 4182
511.94, 4173
511.9425, 4199
511.945, 4218
511.9475, 4207
511.95, 4104
511.9525, 4222
511.955, 4199
511.9575, 4167
511.96, 4142
511.9625, 4138
511.965, 4142
511.9675, 4046
511.97, 4130
511.9725, 4127
511.975, 4107
511.9775, 4107
511.98, 4127
511.9825, 4093
511.985, 4000
511.9875, 4128
511.99, 4133
511.9925, 4140
511.995, 4156
511.9975, 4182
512.0, 4160
512.0025, 4086
512.005, 4187
512.0075, 4199
512.01, 4195
512.0125, 4201
512.015, 4203
512.0175, 4214
512.02, 4101
512.0225, 4219
512.025, 4236
512.0275, 4228
512.03, 4230
512.0325, 4250
512.035, 4232
512.0375, 4154
512.04, 4255
512.0425, 4260
512.045, 4244
512.0475, 4199
512.05, 4260
512.0525, 4253
512.055, 4136
512.0575, 4241
512.06, 4234
512.0625, 4228
512.065, 4187
512.0675, 4242
512.07, 4221
512.0725, 4131
512.075, 4241
512.0775, 4234
512.08, 4252
512.0825, 4215
512.085, 4219
512.0875, 4199
512.09, 4110
512.0925, 4196
512.095, 4221
512.0975, 4202
512.1, 4188
512.1025, 4214
512.105, 4221
512.1075, 4126
512.11, 4215
512.1125, 4210
512.115, 4196
512.1175, 4157
512.12, 4185
512.1225, 4199
512.125, 4092
512.1275, 4165
512.13, 4178
512.1325, 4176
512.135, 4167
512.1375, 4171
512.14, 4187
512.1425, 4084
512.145, 4198
512.1475, 4184
512.15, 4170
512.1525, 4159
512.155, 4170
512.1575, 4160
512.16, 4143
512.1625, 4197
512.165, 4202
512.1675, 4168
512.17, 4158
512.1725, 4162
512.175, 4199
512.1775, 4159
512.18, 4195
512.1825, 4184
512.185, 4186
512.1875, 4004
512.19, 4222
512.1925, 4207
512.195, 4163
512.1975, 4199
512.2, 4204
512.2025, 4196
512.205, 4176
512.2075, 4196
512.21, 4174
512.2125, 4090
512.215, 4188
512.2175, 4194
512.22, 4177
512.2225, 4153
512.225, 4195
512.2275, 4200
512.23, 4084
512.2325, 4198
512.235, 4174
512.2375, 4167
512.24, 4170
512.2425, 4173
512.245, 4171
512.2475, 4120
512.25, 4170
512.2525, 4151
512.255, 4167
512.2575, 4154
512.26, 4176
512.2625, 4171
512.265, 4089
512.2675, 4190
512.27, 4185
512.2725, 4188
512.275, 4179
512.2775, 4187
512.28, 4187
512.2825, 4096
512.285, 4215
512.2875, 4211
512.29, 4199
512.2925, 4146
512.295, 4190
512.2975, 4184
512.3, 4132
512.3025, 4178
512.305, 4186
512.3075, 4171
512.31, 4180
512.3125, 4195
512.315, 4186
512.3175, 4059
512.32, 4161
512.3225, 4166
512.325, 4170
512.3275, 4141
512.33, 4188
512.3325, 4178
512.335, 4080
512.3375, 4197
512.34, 4151
512.3425, 4162
512.345, 4159
512.3475, 4161
512.35, 4173
512.3525, 4120
512.355, 4184
512.3575, 4194
512.36, 4180
512.3625, 4177
512.365, 4158
512.3675, 4154
512.37, 4054
512.3725, 4170
512.375, 4176
512.3775, 4145
512.38, 4145
512.3825, 4166
512.385, 4163
512.3875, 4065
512.39, 4183
512.3925, 4171
512.395, 4157
512.3975, 4116
512.4, 4166
512.4025, 4167
512.405, 4059
512.4075, 4164
512.41, 4163
512.4125, 4159
512.415, 4148
512.4175, 4160
512.42, 4162
512.4225, 4080
512.425, 4178
512.4275, 4183
512.43, 4179
512.4325, 4161
512.435, 4193
512.4375, 4169
512.44, 4078
512.4425, 4173
512.445, 4180
512.4475, 4150
512.45, 4149
512.4525, 4179
512.455, 4184
512.4575, 4078
512.46, 4183
512.4625, 4183
512.465, 4169
512.4675, 4148
512.47, 4172
512.4725, 4165
512.475, 4116
512.4775, 4189
512.48, 4196
512.4825, 4170
512.485, 4160
512.4875, 4177
512.49, 4178
512.4925, 4084
512.495, 4199
512.4975, 4182
512.5, 4179
512.5025, 4160
512.505, 4185
512.5075, 4169
512.51, 4053
512.5125, 4173
512.515, 4175
512.5175, 4157
512.52, 4146
512.5225, 4152
512.525, 4150
512.5275, 4117
512.53, 4163
512.5325, 4165
512.535, 4142
512.5375, 4154
512.54, 4159
512.5425, 4161
512.545, 4056
512.5475, 4172
512.55, 4181
512.5525, 4173
512.555, 4160
512.5575, 4153
512.56, 4148
512.5625, 4064
512.565, 4192
512.5675, 4196
512.57, 4189
512.5725, 4169
512.575, 4176
512.5775, 4171
512.58, 4109
512.5825, 4193
512.585, 4153
512.5875, 4147
512.59, 4107
512.5925, 4137
512.595, 4143
512.5975, 4060
512.6, 4172
512.6025, 4148
512.605, 4106
512.6075, 4122
512.61, 4123
512.6125, 4129
512.615, 4036
512.6175, 4155
512.62, 4161
512.6225, 4168
512.625, 4182
512.6275, 4186
512.63, 4197
512.6325, 4109
512.635, 4201
512.6375, 4209
512.64, 4186
512.6425, 4173
512.645, 4156
512.6475, 4177
512.65, 4076
512.6525, 4173
512.655, 4184
512.6575, 4163
512.66, 4190
512.6625, 4189
512.665, 4170
512.6675, 4048
512.67, 4199
512.6725, 4197
512.675, 4194
512.6775, 4171
512.68, 4192
512.6825, 4170
512.685, 4070
512.6875, 4208
512.69, 4246
512.6925, 4336
512.695, 4415
512.6975, 4457
512.7, 4498
512.7025, 4510
512.705, 4517
512.7075, 4386
512.71, 4172
512.7125, 3918
512.715, 3581
512.7175, 3237
512.72, 2717
512.7225, 2347
512.725, 1800
512.7275, 1487
512.73, 1465
512.7325, 1628
512.735, 2239
512.7375, 3038
512.74, 4120
512.7425, 4683
512.745, 4960
512.7475, 4948
512.75, 4860
512.7525, 4704
512.755, 4492
512.7575, 4587
512.76, 4563
512.7625, 4524
512.765, 4511
512.7675, 4527
512.77, 4546
512.7725, 4466
512.775, 4560
512.7775, 4536
512.78, 4506
512.7825, 4494
512.785, 4514
512.7875, 4506
512.79, 4386
512.7925, 4499
512.795, 4478
512.7975, 4467
512.8, 4457
512.8025, 4477
512.805, 4432
512.8075, 4335
512.81, 4427
512.8125, 4413
512.815, 4393
512.8175, 4368
512.82, 4392
512.8225, 4373
512.825, 4319
512.8275, 4346
512.83, 4358
512.8325, 4336
512.835, 4275
512.8375, 4314
512.84, 4307
512.8425, 4207
512.845, 4303
512.8475, 4321
512.85, 4320
512.8525, 4288
512.855, 4284
512.8575, 4268
512.86, 4123
512.8625, 4253
512.865, 4243
512.8675, 4228
512.87, 4101
512.8725, 4273
512.875, 4230
512.8775, 4198
512.88, 4248
512.8825, 4238
512.885, 4210
512.8875, 4209
512.89, 4250
512.8925, 4231
512.895, 4147
512.8975, 4235
512.9, 4224
512.9025, 4219
512.905, 4198
512.9075, 4250
512.91, 4208
512.9125, 4093
512.915, 4229
512.9175, 4225
512.92, 4247
512.9225, 4220
512.925, 4209
512.9275, 4237
512.93, 4096
512.9325, 4246
512.935, 4231
512.9375, 4232
512.94, 4223
512.9425, 4236
512.945, 4234
512.9475, 4131
512.95, 4246
512.9525, 4227
512.955, 4226
512.9575, 4207
512.96, 4254
512.9625, 4251
512.965, 4144
512.9675, 4246
512.97, 4228
512.9725, 4200
512.975, 4220
512.9775, 4223
512.98, 4227
512.9825, 4093
512.985, 4256
512.9875, 4228
512.99, 4225
512.9925, 4227
512.995, 4223
512.9975, 4201
513.0, 4084
513.0025, 4189
513.005, 4192
513.0075, 4163
513.01, 4148
513.0125, 4174
513.015, 4144
513.0175, 3996
513.02, 4115
513.0225, 4136
513.025, 4113
513.0275, 4098
513.03, 4130
513.0325, 4121
513.035, 4029
513.0375, 4118
513.04, 4103
513.0425, 4119
513.045, 4131
513.0475, 4148
513.05, 4127
513.0525, 4036
513.055, 4144
513.0575, 4127
513.06, 4122
513.0625, 4135
513.065, 4178
513.0675, 4171
513.07, 4090
513.0725, 4198
513.075, 4181
513.0775, 4186
513.08, 4129
513.0825, 4218
513.085, 4201
513.0875, 4057
513.09, 4233
513.0925, 4234
513.095, 4205
513.0975, 4199
513.1, 4227
513.1025, 4236
513.105, 4131
513.1075, 4230
513.11, 4222
513.1125, 4194
513.115, 4211
513.1175, 4212
513.12, 4216
513.1225, 4120
513.125, 4214
513.1275, 4213
513.13, 4180
513.1325, 4179
513.135, 4198
513.1375, 4203
513.14, 4090
513.1425, 4221
513.145, 4216
513.1475, 4204
513.15, 4210
513.1525, 4229
513.155, 4224
513.1575, 4093
513.16, 4201
513.1625, 4200
513.165, 4175
513.1675, 4178
513.17, 4173
513.1725, 4166
513.175, 4085
513.1775, 4198
513.18, 4201
513.1825, 4193
513.185, 4183
513.1875, 4199
513.19, 4166
513.1925, 4075
513.195, 4176
513.1975, 4153
513.2, 4145
513.2025, 4168
513.205, 4184
513.2075, 4182
513.21, 4086
513.2125, 4179
513.215, 4183
513.2175, 4167
513.22, 4157
513.2225, 4149
513.225, 4156
513.2275, 4113
513.23, 4195
513.2325, 4181
513.235, 4146
513.2375, 4177
513.24, 4176
513.2425, 4161
513.245, 4075
513.2475, 4210
513.25, 4212
513.2525, 4209
513.255, 4168
513.2575, 4218
513.26, 4183
513.2625, 4077
513.265, 4188
513.2675, 4204
513.27, 4188
513.2725, 4185
513.275, 4198
513.2775, 4199
513.28, 4088
513.2825, 4186
513.285, 4213
513.2875, 4207
513.29, 4208
513.2925, 4217
513.295, 4183
513.2975, 4088
513.3, 4196
513.3025, 4218
513.305, 4194
513.3075, 4189
513.31, 4194
513.3125, 4199
513.315, 4087
513.3175, 4198
513.32, 4188
513.3225, 4163
513.325, 4165
513.3275, 4167
513.33, 4188
513.3325, 4105
513.335, 4203
513.3375, 4171
513.34, 4144
513.3425, 4122
513.345, 4141
513.3475, 4141
513.35, 4039
513.3525, 4145
513.355, 4148
513.3575, 4149
513.36, 4148
513.3625, 4159
513.365, 4151
513.3675, 4038
513.37, 4138
513.3725, 4134
513.375, 4138
513.3775, 4141
513.38, 4185
513.3825, 4176
513.385, 4091
513.3875, 4146
513.39, 4147
513.3925, 4154
513.395, 4157
513.3975, 4183
513.4, 4175
513.4025, 4115
513.405, 4160
513.4075, 4162
513.41, 4160
513.4125, 4151
513.415, 4160
513.4175, 4173
513.42, 4063
513.4225, 4149
513.425, 4144
513.4275, 4147
513.43, 4156
513.4325, 4178
513.435, 4179
513.4375, 4082
513.44, 4166
513.4425, 4185
513.445, 4177
513.4475, 4178
513.45, 4188
513.4525, 4173
513.455, 4131
513.4575, 4192
513.46, 4199
513.4625, 4180
513.465, 4167
513.4675, 4185
513.47, 4177
513.4725, 4066
513.475, 4168
513.4775, 4163
513.48, 4150
513.4825, 4148
513.485, 4176
513.4875, 4174
513.49, 4089
513.4925, 4190
513.495, 4188
513.4975, 4196
513.5, 4166
513.5025, 4193
513.505, 4184
513.5075, 4080
513.51, 4175
513.5125, 4183
513.515, 4189
513.5175, 4167
513.52, 4194
513.5225, 4204
513.525, 4085
513.5275, 4179
513.53, 4188
513.5325, 4159
513.535, 4185
513.5375, 4206
513.54, 4198
513.5425, 4075
513.545, 4189
513.5475, 4201
513.55, 4187
513.5525, 4186
513.555, 4187
513.5575, 4198
513.56, 4094
513.5625, 4211
513.565, 4207
513.5675, 4183
513.57, 4175
513.5725, 4167
513.575, 4185
513.5775, 4091
513.58, 4193
513.5825, 4174
513.585, 4166
513.5875, 4162
513.59, 4168
513.5925, 4168
513.595, 4103
513.5975, 4202
513.6, 4183
513.6025, 4169
513.605, 4154
513.6075, 4175
513.61, 4156
513.6125, 4064
513.615, 4149
513.6175, 4156
513.62, 4170
513.6225, 4151
513.625, 4148
513.6275, 4154
513.63, 4143
513.6325, 4179
513.635, 4156
513.6375, 4162
513.64, 4168
513.6425, 4192
513.645, 4174
513.6475, 4063
513.65, 4176
513.6525, 4186
513.655, 4182
513.6575, 4164
513.66, 4157
513.6625, 4175
513.665, 4060
513.6675, 4184
513.67, 4174
513.6725, 4188
513.675, 4126
513.6775, 4160
513.68, 4142
513.6825, 4110
513.685, 4156
513.6875, 4150
513.69, 4147
513.6925, 4128
513.695, 4112
513.6975, 4124
513.7, 3993
513.7025, 4161
513.705, 4182
513.7075, 4189
513.71, 4192
513.7125, 4214
513.715, 4206
513.7175, 4118
513.72, 4234
513.7225, 4226
513.725, 4214
513.7275, 4211
513.73, 4233
513.7325, 4215
513.735, 4114
513.7375, 4192
513.74, 4198
513.7425, 4217
513.745, 4177
513.7475, 4180
513.75, 4198
513.7525, 4092
513.755, 4221
513.7575, 4209
513.76, 4178
513.7625, 4153
513.765, 4166
513.7675, 4145
513.77, 4077
513.7725, 4172
513.775, 4182
513.7775, 4228
513.78, 4296
513.7825, 4397
513.785, 4417
513.7875, 4383
513.79, 4501
513.7925, 4439
513.795, 4277
513.7975, 4057
513.8, 3813
513.8025, 3492
513.805, 3184
513.8075, 2838
513.81, 2378
513.8125, 1922
513.815, 1726
513.8175, 1650
513.82, 1897
513.8225, 2321
513.825, 3276
513.8275, 4311
513.83, 4934
513.8325, 5138
513.835, 5154
513.8375, 5047
513.84, 4764
513.8425, 4723
513.845, 4616
513.8475, 4598
513.85, 4521
513.8525, 4479
513.855, 4475
513.8575, 4428
513.86, 4502
513.8625, 4489
513.865, 4484
513.8675, 4477
513.87, 4486
513.8725, 4455
513.875, 4357
513.8775, 4439
513.88, 4425
513.8825, 4421
513.885, 4399
513.8875, 4389
513.89, 4386
513.8925, 4266
513.895, 4355
513.8975, 4375
513.9, 4350
513.9025, 4349
513.905, 4334
513.9075, 4320
513.91, 4197
513.9125, 4309
513.915, 4314
513.9175, 4304
513.92, 4278
513.9225, 4287
513.925, 4273
513.9275, 4170
513.93, 4280
513.9325, 4303
513.935, 4293
513.9375, 4259
513.94, 4270
513.9425, 4238
513.945, 4161
513.9475, 4274
513.95, 4272
513.9525, 4257
513.955, 4235
513.9575, 4221
513.96, 4212
513.9625, 4124
513.965, 4223
513.9675, 4227
513.97, 4232
513.9725, 4221
513.975, 4227
513.9775, 4216
513.98, 4078
513.9825, 4191
513.985, 4197
513.9875, 4191
513.99, 4137
513.9925, 4191
513.995, 4180
513.9975, 4080
514.0, 4181
514.0025, 4165
514.005, 4178
514.0075, 4170
514.01, 4183
514.0125, 4185
514.015, 4061
514.0175, 4180
514.02, 4192
514.0225, 4178
514.025, 4152
514.0275, 4221
514.03, 4209
514.0325, 4070
514.035, 4175
514.0375, 4172
514.04, 4173
514.0425, 4175
514.045, 4171
514.0475, 4190
514.05, 4076
514.0525, 4170
514.055, 4163
514.0575, 4165
514.06, 4127
514.0625, 4181
514.065, 4198
514.0675, 4080
514.07, 4180
514.0725, 4171
514.075, 4169
514.0775, 4181
514.08, 4200
514.0825, 4197
514.085, 4103
514.0875, 4188
514.09, 4172
514.0925, 4174
514.095, 4161
514.0975, 4180
514.1, 4178
514.1025, 4134
514.105, 4140
514.1075, 4138
514.11, 4138
514.1125, 4094
514.115, 4134
514.1175, 4134
514.12, 4037
514.1225, 4142
514.125, 4149
514.1275, 4176
514.13, 4174
514.1325, 4186
514.135, 4192
514.1375, 4095
514.14, 4215
514.1425, 4218
514.145, 4207
514.1475, 4197
514.15, 4215
514.1525, 4218
514.155, 4072
514.1575, 4235
514.16, 4230
514.1625, 4231
514.165, 4224
514.1675, 4228
514.17, 4256
514.1725, 4109
514.175, 4284
514.1775, 4273
514.18, 4268
514.1825, 4241
514.185, 4246
514.1875, 4257
514.19, 4122
514.1925, 4238
514.195, 4253
514.1975, 4239
514.2, 4102
514.2025, 4262
514.205, 4263
514.2075, 4148
514.21, 4242
514.2125, 4216
514.215, 4219
514.2175, 4221
514.22, 4220
514.2225, 4219
514.225, 4134
514.2275, 4233
514.23, 4229
514.2325, 4215
514.235, 4188
514.2375, 4210
514.24, 4200
514.2425, 4057
514.245, 4226
514.2475, 4212
514.25, 4196
514.2525, 4191
514.255, 4198
514.2575, 4189
514.26, 4078
514.2625, 4196
514.265, 4207
514.2675, 4209
514.27, 4198
514.2725, 4202
514.275, 4192
514.2775, 4152
514.28, 4186
514.2825, 4171
514.285, 4155
514.2875, 4186
514.29, 4174
514.2925, 4189
514.295, 4065
514.2975, 4175
514.3, 4184
514.3025, 4173
514.305, 4172
514.3075, 4193
514.31, 4200
514.3125, 4091
514.315, 4203
514.3175, 4204
514.32, 4188
514.3225, 4188
514.325, 4204
514.3275, 4198
514.33, 4106
514.3325, 4214
514.335, 4203
514.3375, 4196
514.34, 4187
514.3425, 4215
514.345, 4184
514.3475, 4052
514.35, 4157
514.3525, 4179
514.355, 4171
514.3575, 4122
514.36, 4205
514.3625, 4198
514.365, 4083
514.3675, 4172
514.37, 4189
514.3725, 4167
514.375, 4153
514.3775, 4172
514.38, 4177
514.3825, 4092
514.385, 4194
514.3875, 4185
514.39, 4180
514.3925, 4185
514.395, 4195
514.3975, 4171
514.4, 4064
514.4025, 4191
514.405, 4186
514.4075, 4189
514.41, 4196
514.4125, 4196
514.415, 4186
514.4175, 4077
514.42, 4190
514.4225, 4200
514.425, 4182
514.4275, 4141
514.43, 4193
514.4325, 4191
514.435, 4095
514.4375, 4219
514.44, 4185
514.4425, 4199
514.445, 4203
514.4475, 4184
514.45, 4201
514.4525, 4079
514.455, 4177
514.4575, 4182
514.46, 4176
514.4625, 4162
514.465, 4164
514.4675, 4175
514.47, 4075
514.4725, 4177
514.475, 4188
514.4775, 4190
514.48, 4185
514.4825, 4179
514.485, 4159
514.4875, 4075
514.49, 4179
514.4925, 4153
514.495, 4161
514.4975, 4164
514.5, 4161
514.5025, 4172
514.505, 4104
514.5075, 4168
514.51, 4186
514.5125, 4168
514.515, 4149
514.5175, 4155
514.52, 4141
514.5225, 4063
514.525, 4162
514.5275, 4181
514.53, 4158
514.5325, 4133
514.535, 4151
514.5375, 4140
514.54, 4005
514.5425, 4183
514.545, 4190
514.5475, 4169
514.55, 4161
514.5525, 4165
514.555, 4148
514.5575, 4068
514.56, 4173
514.5625, 4162
514.565, 4149
514.5675, 4168
514.57, 4159
514.5725, 4166
514.575, 4069
514.5775, 4180
514.58, 4174
514.5825, 4185
514.585, 4165
514.5875, 4158
514.59, 4171
514.5925, 4053
514.595, 4168
514.5975, 4165
514.6, 4156
514.6025, 4163
514.605, 4178
514.6075, 4173
514.61, 4043
514.6125, 4171
514.615, 4182
514.6175, 4157
514.62, 4138
514.6225, 4165
514.625, 4170
514.6275, 4124
514.63, 4138
514.6325, 4169
514.635, 4149
514.6375, 4150
514.64, 4145
514.6425, 4157
514.645, 4067
514.6475, 4181
514.65, 4183
514.6525, 4166
514.655, 4146
514.6575, 4177
514.66, 4189
514.6625, 4054
514.665, 4160
514.6675, 4140
514.67, 4127
514.6725, 4100
514.675, 4127
514.6775, 4123
514.68, 4081
514.6825, 4168
514.685, 4141
514.6875, 4139
514.69, 4119
514.6925, 4127
514.695, 4123
514.6975, 4028
514.7, 4136
514.7025, 4114
514.705, 4126
514.7075, 4130
514.71, 4184
514.7125, 4178
514.715, 4089
514.7175, 4198
514.72, 4194
514.7225, 4179
514.725, 4174
514.7275, 4178
514.73, 4189
514.7325, 4081
514.735, 4160
514.7375, 4160
514.74, 4143
514.7425, 4162
514.745, 4161
514.7475, 4179
514.75, 4047
514.7525, 4165
514.755, 4182
514.7575, 4203
514.76, 4175
514.7625, 4189
514.765, 4178
514.7675, 4083
514.77, 4197
514.7725, 4169
514.775, 4194
514.7775, 4218
514.78, 4309
514.7825, 4408
514.785, 4308
514.7875, 4461
514.79, 4502
514.7925, 4503
514.795, 4378
514.7975, 4187
514.8, 3940
514.8025, 3537
514.805, 3291
514.8075, 2907
514.81, 2467
514.8125, 1882
514.815, 1577
514.8175, 1470
514.82, 1538
514.8225, 2106
514.825, 3008
514.8275, 4036
514.83, 4689
514.8325, 5048
514.835, 5048
514.8375, 4826
514.84, 4804
514.8425, 4655
514.845, 4585
514.8475, 4580
514.85, 4534
514.8525, 4527
514.855, 4414
514.8575, 4535
514.86, 4527
514.8625, 4524
514.865, 4536
514.8675, 4532
514.87, 4515
514.8725, 4398
514.875, 4484
514.8775, 4483
514.88, 4477
514.8825, 4440
514.885, 4462
514.8875, 4464
514.89, 4349
514.8925, 4425
514.895, 4432
514.8975, 4400
514.9, 4397
514.9025, 4409
514.905, 4395
514.9075, 4297
514.91, 4375
514.9125, 4361
514.915, 4347
514.9175, 4332
514.92, 4329
514.9225, 4335
514.925, 4249
514.9275, 4351
514.93, 4343
514.9325, 4292
514.935, 4237
514.9375, 4288
514.94, 4284
514.9425, 4167
514.945, 4263
514.9475, 4245
514.95, 4261
514.9525, 4244
514.955, 4262
514.9575, 4240
514.96, 4116
514.9625, 4223
514.965, 4218
514.9675, 4233
514.97, 4227
514.9725, 4242
514.975, 4240
514.9775, 4194
514.98, 4236
514.9825, 4246
514.985, 4231
514.9875, 4200
514.99, 4205
514.9925, 4215
514.995, 4115
514.9975, 4230
515.0, 4220
515.0025, 4210
515.005, 4218
515.0075, 4197
515.01, 4204
515.0125, 4097
515.015, 4196
515.0175, 4193
515.02, 4210
515.0225, 4171
515.025, 4209
515.0275, 4185
515.03, 4158
515.0325, 4197
515.035, 4211
515.0375, 4214
515.04, 4191
515.0425, 4238
515.045, 4200
515.0475, 4097
515.05, 4212
515.0525, 4182
515.055, 4185
515.0575, 4196
515.06, 4224
515.0625, 4202
515.065, 4109
515.0675, 4236
515.07, 4213
515.0725, 4222
515.075, 4191
515.0775, 4197
515.08, 4212
515.0825, 4174
515.085, 4197
515.0875, 4200
515.09, 4208
515.0925, 4177
515.095, 4197
515.0975, 4173
515.1, 4052
515.1025, 4173
515.105, 4138
515.1075, 4132
515.11, 4109
515.1125, 4102
515.115, 4095
515.1175, 3997
515.12, 4096
515.1225, 4092
515.125, 4096
515.1275, 4083
515.13, 4126
515.1325, 4137
515.135, 4056
515.1375, 4160
515.14, 4180
515.1425, 4152
515.145, 4151
515.1475, 4158
515.15, 4137
515.1525, 4063
515.155, 4179
515.1575, 4189
515.16, 4188
515.1625, 4187
515.165, 4191
515.1675, 4194
515.17, 4099
515.1725, 4191
515.175, 4218
515.1775, 4210
515.18, 4205
515.1825, 4211
515.185, 4190
515.1875, 4096
515.19, 4202
515.1925, 4213
515.195, 4206
515.1975, 4202
515.2, 4208
515.2025, 4195
515.205, 4082
515.2075, 4161
515.21, 4154
515.2125, 4157
515.215, 4162
515.2175, 4171
515.22, 4179
515.2225, 4095
515.225, 4183
515.2275, 4190
515.23, 4180
515.2325, 4181
515.235, 4202
515.2375, 4197
515.24, 4070
515.2425, 4209
515.245, 4187
515.2475, 4163
515.25, 4198
515.2525, 4167
515.255, 4170
515.2575, 4104
515.26, 4167
515.2625, 4189
515.265, 4185
515.2675, 4175
515.27, 4194
515.2725, 4187
515.275, 4098
515.2775, 4228
515.28, 4190
515.2825, 4220
515.285, 4191
515.2875, 4229
515.29, 4196
515.2925, 4101
515.295, 4201
515.2975, 4162
515.3, 4192
515.3025, 4192
515.305, 4164
515.3075, 4175
515.31, 4098
515.3125, 4203
515.315, 4226
515.3175, 4203
515.32, 4195
515.3225, 4209
515.325, 4203
515.3275, 4083
515.33, 4208
515.3325, 4203
515.335, 4179
515.3375, 4187
515.34, 4194
515.3425, 4188
515.345, 4096
515.3475, 4230
515.35, 4187
515.3525, 4187
515.355, 4191
515.3575, 4199
515.36, 4198
515.3625, 4111
515.365, 4196
515.3675, 4195
515.37, 4187
515.3725, 4179
515.375, 4183
515.3775, 4169
515.38, 4082
515.3825, 4161
515.385, 4190
515.3875, 4179
515.39, 4165
515.3925, 4193
515.395, 4181
515.3975, 4078
515.4, 4168
515.4025, 4174
515.405, 4172
515.4075, 4186
515.41, 4186
515.4125, 4193
515.415, 4093
515.4175, 4186
515.42, 4158
515.4225, 4166
515.425, 4133
515.4275, 4155
515.43, 4162
515.4325, 4063
515.435, 4169
515.4375, 4159
515.44, 4173
515.4425, 4118
515.445, 4137
515.4475, 4142
515.45, 4052
515.4525, 4155
515.455, 4159
515.4575, 4145
515.46, 4135
515.4625, 4163
515.465, 4149
515.4675, 4052
515.47, 4142
515.4725, 4136
515.475, 4149
515.4775, 4136
515.48, 4152
515.4825, 4133
515.485, 4068
515.4875, 4126
515.49, 4111
515.4925, 4103
515.495, 4114
515.4975, 4144
515.5, 4116
515.5025, 4023
515.505, 4142
515.5075, 4133
515.51, 4115
515.5125, 4122
515.515, 4129
515.5175, 4130
515.52, 4000
515.5225, 4131
515.525, 4139
515.5275, 4129
515.53, 4115
515.5325, 4166
515.535, 4148
515.5375, 4097
515.54, 4152
515.5425, 4148
515.545, 4142
515.5475, 4168
515.55, 4188
515.5525, 4136
515.555, 4050
515.5575, 4145
515.56, 4158
515.5625, 4160
515.565, 4158
515.5675, 4157
515.57, 4158
515.5725, 4060
515.575, 4174
515.5775, 4163
515.58, 4145
515.5825, 4137
515.585, 4152
515.5875, 4177
515.59, 4146
515.5925, 4154
515.595, 4170
515.5975, 4180
515.6, 4168
515.6025, 4185
515.605, 4184
515.6075, 4071
515.61, 4177
515.6125, 4175
515.615, 4172
515.6175, 4149
515.62, 4201
515.6225, 4177
515.625, 4071
515.6275, 4165
515.63, 4157
515.6325, 4142
515.635, 4103
515.6375, 4172
515.64, 4169
515.6425, 4055
515.645, 4153
515.6475, 4180
515.65, 4181
515.6525, 4167
515.655, 4171
515.6575, 4181
515.66, 4064
515.6625, 4194
515.665, 4179
515.6675, 4184
515.67, 4139
515.6725, 4196
515.675, 4184
515.6775, 4072
515.68, 4190
515.6825, 4181
515.685, 4171
515.6875, 4152
515.69, 4181
515.6925, 4169
515.695, 4049
515.6975, 4178
515.7, 4180
515.7025, 4166
515.705, 4166
515.7075, 4184
515.71, 4170
515.7125, 4056
515.715, 4175
515.7175, 4184
515.72, 4156
515.7225, 4142
515.725, 4137
515.7275, 4146
515.73, 4056
515.7325, 4181
515.735, 4165
515.7375, 4162
515.74, 4168
515.7425, 4159
515.745, 4147
515.7475, 4048
515.75, 4168
515.7525, 4144
515.755, 4126
515.7575, 4120
515.76, 4134
515.7625, 4126
515.765, 4088
515.7675, 4158
515.77, 4147
515.7725, 4174
515.775, 4164
515.7775, 4177
515.78, 4198
515.7825, 4084
515.785, 4164
515.7875, 4145
515.79, 4146
515.7925, 4113
515.795, 4123
515.7975, 4116
515.8, 4013
515.8025, 4131
515.805, 4140
515.8075, 4171
515.81, 4143
515.8125, 4147
515.815, 4147
515.8175, 4121
515.82, 4168
515.8225, 4155
515.825, 4144
515.8275, 4149
515.83, 4179
515.8325, 4185
515.835, 4060
515.8375, 4205
515.84, 4203
515.8425, 4216
515.845, 4164
515.8475, 4196
515.85, 4182
515.8525, 4081
515.855, 4183
515.8575, 4200
515.86, 4185
515.8625, 4164
515.865, 4192
515.8675, 4183
515.87, 4090
515.8725, 4167
515.875, 4182
515.8775, 4183
515.88, 4183
515.8825, 4180
515.885, 4191
515.8875, 4144
515.89, 4327
515.8925, 4395
515.895, 4438
515.8975, 4491
515.9, 4523
515.9025, 4473
515.905, 4191
515.9075, 4100
515.91, 3846
515.9125, 3534
515.915, 3221
515.9175, 2807
515.92, 2325
515.9225, 1735
515.925, 1636
515.9275, 1647
515.93, 1887
515.9325, 2458
515.935, 3438
515.9375, 4353
515.94, 4821
515.9425, 5098
515.945, 5098
515.9475, 4959
515.95, 4795
515.9525, 4669
515.955, 4583
515.9575, 4485
515.96, 4557
515.9625, 4555
515.965, 4541
515.9675, 4529
515.97, 4549
515.9725, 4546
515.975, 4430
515.9775, 4520
515.98, 4507
515.9825, 4499
515.985, 4506
515.9875, 4482
515.99, 4480
515.9925, 4352
515.995, 4434
515.9975, 4429
516.0, 4433
516.0025, 4421
516.005, 4421
516.0075, 4411
516.01, 4275
516.0125, 4386
516.015, 4363
516.0175, 4372
516.02, 4340
516.0225, 4349
516.025, 4325
516.0275, 4238
516.03, 4358
516.0325, 4346
516.035, 4316
516.0375, 4336
516.04, 4328
516.0425, 4313
516.045, 4265
516.0475, 4279
516.05, 4279
516.0525, 4280
516.055, 4243
516.0575, 4238
516.06, 4246
516.0625, 4134
516.065, 4247
516.0675, 4268
516.07, 4266
516.0725, 4246
516.075, 4263
516.0775, 4246
516.08, 4144
516.0825, 4257
516.085, 4249
516.0875, 4216
516.09, 4215
516.0925, 4246
516.095, 4237
516.0975, 4125
516.1, 4221
516.1025, 4227
516.105, 4212
516.1075, 4191
516.11, 4207
516.1125, 4205
516.115, 4145
516.1175, 4183
516.12, 4195
516.1225, 4203
516.125, 4194
516.1275, 4204
516.13, 4203
516.1325, 4090
516.135, 4192
516.1375, 4180
516.14, 4163
516.1425, 4160
516.145, 4180
516.1475, 4180
516.15, 4092
516.1525, 4184
516.155, 4174
516.1575, 4162
516.16, 4197
516.1625, 4211
516.165, 4225
516.1675, 4158
516.17, 4196
516.1725, 4185
516.175, 4198
516.1775, 4209
516.18, 4207
516.1825, 4229
516.185, 4131
516.1875, 4235
516.19, 4215
516.1925, 4229
516.195, 4220
516.1975, 4223
516.2, 4200
516.2025, 4070
516.205, 4197
516.2075, 4192
516.21, 4177
516.2125, 4154
516.215, 4161
516.2175, 4147
516.22, 4049
516.2225, 4128
516.225, 4139
516.2275, 4137
516.23, 4172
516.2325, 4166
516.235, 4191
516.2375, 4071
516.24, 4189
516.2425, 4195
516.245, 4191
516.2475, 4206
516.25, 4184
516.2525, 4202
516.255, 4074
516.2575, 4203
516.26, 4196
516.2625, 4190
516.265, 4206
516.2675, 4218
516.27, 4220
516.2725, 4113
516.275, 4253
516.2775, 4245
516.28, 4244
516.2825, 4236
516.285, 4244
516.2875, 4240
516.29, 4179
516.2925, 4251
516.295, 4247
516.2975, 4243
516.3, 4224
516.3025, 4238
516.305, 4216
516.3075, 4136
516.31, 4242
516.3125, 4245
516.315, 4233
516.3175, 4116
516.32, 4278
516.3225, 4247
516.325, 4106
516.3275, 4220
516.33, 4243
516.3325, 4228
516.335, 4172
516.3375, 4222
516.34, 4197
516.3425, 4122
516.345, 4175
516.3475, 4192
516.35, 4196
516.3525, 4186
516.355, 4185
516.3575, 4172
516.36, 4079
516.3625, 4199
516.365, 4168
516.3675, 4163
516.37, 4140
516.3725, 4172
516.375, 4173
516.3775, 4062
516.38, 4166
516.3825, 4172
516.385, 4178
516.3875, 4160
516.39, 4187
516.3925, 4162
516.395, 4092
516.3975, 4168
516.4, 4177
516.4025, 4146
516.405, 4177
516.4075, 4183
516.41, 4177
516.4125, 4056
516.415, 4160
516.4175, 4192
516.42, 4181
516.4225, 4190
516.425, 4175
516.4275, 4169
516.43, 4052
516.4325, 4154
516.435, 4144
516.4375, 4191
516.44, 4160
516.4425, 4192
516.445, 4182
516.4475, 4089
516.45, 4190
516.4525, 4200
516.455, 4193
516.4575, 4205
516.46, 4182
516.4625, 4177
516.465, 4180
516.4675, 4200
516.47, 4198
516.4725, 4185
516.475, 4148
516.4775, 4207
516.48, 4206
516.4825, 4090
516.485, 4201
516.4875, 4194
516.49, 4185
516.4925, 4185
516.495, 4179
516.4975, 4186
516.5, 4036
516.5025, 4195
516.505, 4199
516.5075, 4176
516.51, 4176
516.5125, 4190
516.515, 4204
516.5175, 4143
516.52, 4199
516.5225, 4192
516.525, 4197
516.5275, 4167
516.53, 4191
516.5325, 4185
516.535, 4068
516.5375, 4176
516.54, 4166
516.5425, 4186
516.545, 4162
516.5475, 4180
516.55, 4190
516.5525, 4046
516.555, 4188
516.5575, 4187
516.56, 4180
516.5625, 4165
516.565, 4179
516.5675, 4179
516.57, 4082
516.5725, 4173
516.575, 4172
516.5775, 4172
516.58, 4187
516.5825, 4173
516.585, 4177
516.5875, 4072
516.59, 4193
516.5925, 4197
516.595, 4191
516.5975, 4168
516.6, 4190
516.6025, 4200
516.605, 4068
516.6075, 4199
516.61, 4171
516.6125, 4178
516.615, 4189
516.6175, 4185
516.62, 4160
516.6225, 4077
516.625, 4180
516.6275, 4179
516.63, 4180
516.6325, 4189
516.635, 4192
516.6375, 4174
516.64, 4050
516.6425, 4182
516.645, 4187
516.6475, 4170
516.65, 4158
516.6525, 4159
516.655, 4159
516.6575, 4063
516.66, 4166
516.6625, 4178
516.665, 4165
516.6675, 4182
516.67, 4201
516.6725, 4205
516.675, 4100
516.6775, 4181
516.68, 4178
516.6825, 4171
516.685, 4180
516.6875, 4194
516.69, 4188
516.6925, 4066
516.695, 4176
516.6975, 4171
516.7, 4159
516.7025, 4146
516.705, 4192
516.7075, 4184
516.71, 4083
516.7125, 4174
516.715, 4175
516.7175, 4168
516.72, 4146
516.7225, 4185
516.725, 4188
516.7275, 4070
516.73, 4185
516.7325, 4210
516.735, 4206
516.7375, 4161
516.74, 4172
516.7425, 4188
516.745, 4075
516.7475, 4173
516.75, 4160
516.7525, 4148
516.755, 4130
516.7575, 4117
516.76, 4070
516.7625, 3976
516.765, 4102
516.7675, 4071
516.77, 4073
516.7725, 4075
516.775, 4108
516.7775, 4139
516.78, 4036
516.7825, 4143
516.785, 4155
516.7875, 4164
516.79, 4155
516.7925, 4178
516.795, 4178
516.7975, 4071
516.8, 4176
516.8025, 4193
516.805, 4183
516.8075, 4207
516.81, 4180
516.8125, 4170
516.815, 4089
516.8175, 4197
516.82, 4186
516.8225, 4177
516.825, 4165
516.8275, 4187
516.83, 4163
516.8325, 4048
516.835, 4168
516.8375, 4169
516.84, 4159
516.8425, 4166
516.845, 4179
516.8475, 4179
516.85, 4063
516.8525, 4160
516.855, 4163
516.8575, 4174
516.86, 4187
516.8625, 4297
516.865, 4379
516.8675, 4350
516.87, 4427
516.8725, 4446
516.875, 4453
516.8775, 4337
516.88, 4163
516.8825, 3889
516.885, 3518
516.8875, 3308
516.89, 2983
516.8925, 2538
516.895, 1926
516.8975, 1663
516.9, 1477
516.9025, 1578
516.905, 2022
516.9075, 2805
516.91, 3848
516.9125, 4721
516.915, 5070
516.9175, 5126
516.92, 4935
516.9225, 4911
516.925, 4750
516.9275, 4649
516.93, 4594
516.9325, 4554
516.935, 4509
516.9375, 4394
516.94, 4496
516.9425, 4492
516.945, 4491
516.9475, 4510
516.95, 4521
516.9525, 4510
516.955, 4390
516.9575, 4503
516.96, 4455
516.9625, 4454
516.965, 4437
516.9675, 4456
516.97, 4450
516.9725, 4314
516.975, 4414
516.9775, 4388
516.98, 4373
516.9825, 4356
516.985, 4377
516.9875, 4361
516.99, 4324
516.9925, 4368
516.995, 4366
516.9975, 4321
517.0, 4337
517.0025, 4323
517.005, 4307
517.0075, 4181
517.01, 4334
517.0125, 4301
517.015, 4286
517.0175, 4303
517.02, 4287
517.0225, 4284
517.025, 4175
517.0275, 4253
517.03, 4272
517.0325, 4262
517.035, 4232
517.0375, 4257
517.04, 4231
517.0425, 4203
517.045, 4243
517.0475, 4244
517.05, 4236
517.0525, 4231
517.055, 4256
517.0575, 4238
517.06, 4145
517.0625, 4223
517.065, 4248
517.0675, 4222
517.07, 4227
517.0725, 4209
517.075, 4195
517.0775, 4099
517.08, 4212
517.0825, 4223
517.085, 4202
517.0875, 4208
517.09, 4210
517.0925, 4226
517.095, 4194
517.0975, 4250
517.1, 4209
517.1025, 4232
517.105, 4219
517.1075, 4225
517.11, 4251
517.1125, 4113
517.115, 4236
517.1175, 4225
517.12, 4215
517.1225, 4192
517.125, 4207
517.1275, 4199
517.13, 4118
517.1325, 4223
517.135, 4217
517.1375, 4233
517.14, 4202
517.1425, 4214
517.145, 4181
517.1475, 4113
517.15, 4217
517.1525, 4243
517.155, 4217
517.1575, 4221
517.16, 4227
517.1625, 4220
517.165, 4095
517.1675, 4228
517.17, 4235
517.1725, 4207
517.175, 4198
517.1775, 4202
517.18, 4198
517.1825, 4082
517.185, 4191
517.1875, 4163
517.19, 4157
517.1925, 4128
517.195, 4138
517.1975, 4150
517.2, 4042
517.2025, 4184
517.205, 4175
517.2075, 4186
517.21, 4181
517.2125, 4201
517.215, 4191
517.2175, 4133
517.22, 4170
517.2225, 4192
517.225, 4178
517.2275, 4156
517.23, 4201
517.2325, 4191
517.235, 4096
517.2375, 4213
517.24, 4194
517.2425, 4200
517.245, 4194
517.2475, 4236
517.25, 4247
517.2525, 4124
517.255, 4228
517.2575, 4225
517.26, 4201
517.2625, 4221
517.265, 4216
517.2675, 4201
517.27, 4120
517.2725, 4235
517.275, 4236
517.2775, 4216
517.28, 4211
517.2825, 4225
517.285, 4222
517.2875, 4116
517.29, 4230
517.2925, 4186
517.295, 4204
517.2975, 4180
517.3, 4215
517.3025, 4184
517.305, 4087
517.3075, 4183
517.31, 4202
517.3125, 4170
517.315, 4167
517.3175, 4171
517.32, 4158
517.3225, 4096
517.325, 4148
517.3275, 4154
517.33, 4157
517.3325, 4145
517.335, 4157
517.3375, 4142
517.34, 4030
517.3425, 4145
517.345, 4153
517.3475, 4131
517.35, 4154
517.3525, 4145
517.355, 4108
517.3575, 4032
517.36, 4134
517.3625, 4133
517.365, 4122
517.3675, 4125
517.37, 4149
517.3725, 4140
517.375, 4044
517.3775, 4154
517.38, 4135
517.3825, 4144
517.385, 4143
517.3875, 4169
517.39, 4165
517.3925, 4065
517.395, 4190
517.3975, 4179
517.4, 4171
517.4025, 4166
517.405, 4171
517.4075, 4151
517.41, 4062
517.4125, 4171
517.415, 4162
517.4175, 4122
517.42, 4140
517.4225, 4140
517.425, 4135
517.4275, 4049
517.43, 4173
517.4325, 4164
517.435, 4154
517.4375, 4162
517.44, 4175
517.4425, 4158
517.445, 4096
517.4475, 4172
517.45, 4160
517.4525, 4159
517.455, 4157
517.4575, 4172
517.46, 4178
517.4625, 4062
517.465, 4172
517.4675, 4170
517.47, 4140
517.4725, 4127
517.475, 4162
517.4775, 4171
517.48, 4056
517.4825, 4191
517.485, 4187
517.4875, 4167
517.49, 4181
517.4925, 4199
517.495, 4166
517.4975, 4070
517.5, 4174
517.5025, 4185
517.505, 4173
517.5075, 4169
517.51, 4165
517.5125, 4129
517.515, 4041
517.5175, 4168
517.52, 4156
517.5225, 4170
517.525, 4164
517.5275, 4190
517.53, 4202
517.5325, 4079
517.535, 4165
517.5375, 4157
517.54, 4156
517.5425, 4160
517.545, 4180
517.5475, 4169
517.55, 4053
517.5525, 4170
517.555, 4175
517.5575, 4157
517.56, 4153
517.5625, 4156
517.565, 4173
517.5675, 4084
517.57, 4178
517.5725, 4172
517.575, 4178
517.5775, 4186
517.58, 4187
517.5825, 4155
517.585, 4055
517.5875, 4172
517.59, 4175
517.5925, 4177
517.595, 4129
517.5975, 4179
517.6, 4180
517.6025, 4074
517.605, 4204
517.6075, 4196
517.61, 4185
517.6125, 4173
517.615, 4183
517.6175, 4175
517.62, 4065
517.6225, 4188
517.625, 4193
517.6275, 4201
517.63, 4183
517.6325, 4196
517.635, 4178
517.6375, 4063
517.64, 4197
517.6425, 4175
517.645, 4183
517.6475, 4176
517.65, 4190
517.6525, 4182
517.655, 4074
517.6575, 4178
517.66, 4213
517.6625, 4187
517.665, 4167
517.6675, 4177
517.67, 4182
517.6725, 4149
517.675, 4149
517.6775, 4164
517.68, 4164
517.6825, 4170
517.685, 4185
517.6875, 4181
517.69, 4070
517.6925, 4180
517.695, 4172
517.6975, 4163
517.7, 4161
517.7025, 4169
517.705, 4169
517.7075, 4053
517.71, 4146
517.7125, 4154
517.715, 4164
517.7175, 4132
517.72, 4137
517.7225, 4135
517.725, 4037
517.7275, 4164
517.73, 4153
517.7325, 4142
517.735, 4143
517.7375, 4139
517.74, 4138
517.7425, 4050
517.745, 4158
517.7475, 4163
517.75, 4145
517.7525, 4151
517.755, 4155
517.7575, 4154
517.76, 4044
517.7625, 4155
517.765, 4170
517.7675, 4168
517.77, 4170
517.7725, 4180
517.775, 4165
517.7775, 4042
517.78, 4175
517.7825, 4170
517.785, 4177
517.7875, 4152
517.79, 4176
517.7925, 4155
517.795, 4108
517.7975, 4166
517.8, 4146
517.8025, 4166
517.805, 4142
517.8075, 4183
517.81, 4146
517.8125, 4049
517.815, 4157
517.8175, 4158
517.82, 4135
517.8225, 4118
517.825, 4122
517.8275, 4113
517.83, 4026
517.8325, 4103
517.835, 4120
517.8375, 4090
517.84, 4115
517.8425, 4164
517.845, 4149
517.8475, 4029
517.85, 4171
517.8525, 4185
517.855, 4163
517.8575, 4176
517.86, 4179
517.8625, 4186
517.865, 4094
517.8675, 4217
517.87, 4201
517.8725, 4196
517.875, 4189
517.8775, 4178
517.88, 4169
517.8825, 4070
517.885, 4177
517.8875, 4172
517.89, 4174
517.8925, 4126
517.895, 4200
517.8975, 4182
517.9, 4073
517.9025, 4180
517.905, 4186
517.9075, 4164
517.91, 4185
517.9125, 4183
517.915, 4192
517.9175, 4148
517.92, 4206
517.9225, 4229
517.925, 4313
517.9275, 4388
517.93, 4455
517.9325, 4493
517.935, 4415
517.9375, 4523
517.94, 4372
517.9425, 4192
517.945, 3942
517.9475, 3638
517.95, 3280
517.9525, 2761
517.955, 2401
517.9575, 1822
517.96, 1503
517.9625, 1474
517.965, 1615
517.9675, 2213
517.97, 3063
517.9725, 4064
517.975, 4666
517.9775, 4956
517.98, 4976
517.9825, 4897
517.985, 4716
517.9875, 4499
517.99, 4592
517.9925, 4568
517.995, 4522
517.9975, 4524
518.0, 4538
518.0025, 4540
518.005, 4414
518.0075, 4537
518.01, 4552
518.0125, 4546
518.015, 4509
518.0175, 4527
518.02, 4512
518.0225, 4397
518.025, 4519
518.0275, 4472
518.03, 4469
518.0325, 4460
518.035, 4462
518.0375, 4443
518.04, 4345
518.0425, 4447
518.045, 4447
518.0475, 4408
518.05, 4392
518.0525, 4401
518.055, 4388
518.0575, 4276
518.06, 4372
518.0625, 4358
518.065, 4358
518.0675, 4334
518.07, 4331
518.0725, 4347
518.075, 4221
518.0775, 4324
518.08, 4304
518.0825, 4324
518.085, 4305
518.0875, 4302
518.09, 4281
518.0925, 4221
518.095, 4277
518.0975, 4296
518.1, 4277
518.1025, 4278
518.105, 4282
518.1075, 4271
518.11, 4143
518.1125, 4267
518.115, 4254
518.1175, 4234
518.12, 4230
518.1225, 4226
518.125, 4211
518.1275, 4100
518.13, 4208
518.1325, 4211
518.135, 4209
518.1375, 4187
518.14, 4198
518.1425, 4195
518.145, 4121
518.1475, 4186
518.15, 4172
518.1525, 4188
518.155, 4188
518.1575, 4198
518.16, 4200
518.1625, 4085
518.165, 4206
518.1675, 4198
518.17, 4201
518.1725, 4202
518.175, 4221
518.1775, 4218
518.18, 4128
518.1825, 4259
518.185, 4262
518.1875, 4238
518.19, 4220
518.1925, 4231
518.195, 4218
518.1975, 4115
518.2, 4218
518.2025, 4224
518.205, 4202
518.2075, 4191
518.21, 4211
518.2125, 4224
518.215, 4079
518.2175, 4207
518.22, 4211
518.2225, 4219
518.225, 4225
518.2275, 4219
518.23, 4207
518.2325, 4107
518.235, 4195
518.2375, 4204
518.24, 4190
518.2425, 4160
518.245, 4176
518.2475, 4147
518.25, 4031
518.2525, 4093
518.255, 4069
518.2575, 4075
518.26, 4054
518.2625, 4080
518.265, 4089
518.2675, 4004
518.27, 4104
518.2725, 4088
518.275, 4070
518.2775, 4068
518.28, 4106
518.2825, 4130
518.285, 4016
518.2875, 4118
518.29, 4135
518.2925, 4149
518.295, 4162
518.2975, 4171
518.3, 4191
518.3025, 4083
518.305, 4187
518.3075, 4199
518.31, 4188
518.3125, 4182
518.315, 4178
518.3175, 4173
518.32, 4137
518.3225, 4196
518.325, 4181
518.3275, 4177
518.33, 4204
518.3325, 4215
518.335, 4186
518.3375, 4094
518.34, 4209
518.3425, 4219
518.345, 4208
518.3475, 4199
518.35, 4223
518.3525, 4208
518.355, 4089
518.3575, 4198
518.36, 4210
518.3625, 4223
518.365, 4203
518.3675, 4228
518.37, 4185
518.3725, 4068
518.375, 4199
518.3775, 4199
518.38, 4190
518.3825, 4181
518.385, 4168
518.3875, 4189
518.39, 4077
518.3925, 4182
518.395, 4164
518.3975, 4161
518.4, 4151
518.4025, 4173
518.405, 4158
518.4075, 4058
518.41, 4184
518.4125, 4153
518.415, 4171
518.4175, 4163
518.42, 4187
518.4225, 4172
518.425, 4082
518.4275, 4177
518.43, 4172
518.4325, 4162
518.435, 4171
518.4375, 4154
518.44, 4176
518.4425, 4051
518.445, 4162
518.4475, 4163
518.45, 4150
518.4525, 4150
518.455, 4141
518.4575, 4151
518.46, 4048
518.4625, 4165
518.465, 4164
518.4675, 4173
518.47, 4187
518.4725, 4197
518.475, 4207
518.4775, 4100
518.48, 4190
518.4825, 4196
518.485, 4202
518.4875, 4184
518.49, 4189
518.4925, 4207
518.495, 4154
518.4975, 4168
518.5, 4186
518.5025, 4158
518.505, 4160
518.5075, 4166
518.51, 4158
518.5125, 4027
518.515, 4178
518.5175, 4177
518.52, 4145
518.5225, 4176
518.525, 4201
518.5275, 4174
518.53, 4044
518.5325, 4168
518.535, 4177
518.5375, 4162
518.54, 4142
518.5425, 4179
518.545, 4166
518.5475, 4065
518.55, 4181
518.5525, 4191
518.555, 4162
518.5575, 4181
518.56, 4165
518.5625, 4157
518.565, 4068
518.5675, 4177
518.57, 4185
518.5725, 4185
518.575, 4183
518.5775, 4169
518.58, 4184
518.5825, 4065
518.585, 4167
518.5875, 4203
518.59, 4203
518.5925, 4201
518.595, 4197
518.5975, 4186
518.6, 4087
518.6025, 4198
518.605, 4192
518.6075, 4184
518.61, 4179
518.6125, 4194
518.615, 4176
518.6175, 4058
518.62, 4148
518.6225, 4175
518.625, 4191
518.6275, 4168
518.63, 4201
518.6325, 4174
518.635, 4075
518.6375, 4185
518.64, 4184
518.6425, 4179
518.645, 4160
518.6475, 4178
518.65, 4176
518.6525, 4056
518.655, 4172
518.6575, 4182
518.66, 4194
518.6625, 4190
518.665, 4200
518.6675, 4173
518.67, 4126
518.6725, 4166
518.675, 4192
518.6775, 4186
518.68, 4192
518.6825, 4224
518.685, 4222
518.6875, 4094
518.69, 4191
518.6925, 4191
518.695, 4177
518.6975, 4162
518.7, 4173
518.7025, 4177
518.705, 4062
518.7075, 4182
518.71, 4180
518.7125, 4165
518.715, 4168
518.7175, 4175
518.72, 4162
518.7225, 4082
518.725, 4185
518.7275, 4191
518.73, 4189
518.7325, 4162
518.735, 4156
518.7375, 4153
518.74, 4049
518.7425, 4140
518.745, 4159
518.7475, 4141
518.75, 4147
518.7525, 4155
518.755, 4153
518.7575, 4059
518.76, 4166
518.7625, 4161
518.765, 4159
518.7675, 4147
518.77, 4161
518.7725, 4145
518.775, 4036
518.7775, 4157
518.78, 4150
518.7825, 4147
518.785, 4157
518.7875, 4173
518.79, 4173
518.7925, 4045
518.795, 4161
518.7975, 4179
518.8, 4156
518.8025, 4159
518.805, 4166
518.8075, 4170
518.81, 4080
518.8125, 4176
518.815, 4166
518.8175, 4156
518.82, 4150
518.8225, 4174
518.825, 4166
518.8275, 4049
518.83, 4177
518.8325, 4179
518.835, 4185
518.8375, 4170
518.84, 4175
518.8425, 4179
518.845, 4102
518.8475, 4166
518.85, 4181
518.8525, 4176
518.855, 4181
518.8575, 4167
518.86, 4161
518.8625, 4061
518.865, 4152
518.8675, 4153
518.87, 4159
518.8725, 4169
518.875, 4156
518.8775, 4155
518.88, 4048
518.8825, 4155
518.885, 4146
518.8875, 4142
518.89, 4131
518.8925, 4155
518.895, 4170
518.8975, 4113
518.9, 4148
518.9025, 4157
518.905, 4149
518.9075, 4121
518.91, 4134
518.9125, 4114
518.915, 3957
518.9175, 4081
518.92, 4103
518.9225, 4113
518.925, 4145
518.9275, 4150
518.93, 4132
518.9325, 4055
518.935, 4175
518.9375, 4200
518.94, 4196
518.9425, 4198
518.945, 4220
518.9475, 4201
518.95, 4139
518.9525, 4187
518.955, 4192
518.9575, 4188
518.96, 4183
518.9625, 4165
518.965, 4158
518.9675, 4062
518.97, 4175
518.9725, 4206
518.975, 4193
518.9775, 4186
518.98, 4201
518.9825, 4197
518.985, 4077
518.9875, 4212
518.99, 4213
518.9925, 4194
518.995, 4179
518.9975, 4198
519.0, 4180
519.0025, 4086
519.005, 4223
519.0075, 4281
519.01, 4342
519.0125, 4397
519.015, 4410
519.0175, 4447
519.02, 4350
519.0225, 4370
519.025, 4171
519.0275, 3922
519.03, 3661
519.0325, 3336
519.035, 3055
519.0375, 2532
519.04, 2074
519.0425, 1764
519.045, 1571
519.0475, 1677
519.05, 2051
519.0525, 2774
519.055, 3711
519.0575, 4717
519.06, 5062
519.0625, 5174
519.065, 5124
519.0675, 4964
519.07, 4806
519.0725, 4580
519.075, 4611
519.0775, 4570
519.08, 4508
519.0825, 4512
519.085, 4526
519.0875, 4516
519.09, 4421
519.0925, 4506
519.095, 4508
519.0975, 4504
519.1, 4439
519.1025, 4492
519.105, 4466
519.1075, 4342
519.11, 4463
519.1125, 4449
519.115, 4435
519.1175, 4407
519.12, 4416
519.1225, 4395
519.125, 4329
519.1275, 4369
519.13, 4382
519.1325, 4351
519.135, 4344
519.1375, 4360
519.14, 4362
519.1425, 4252
519.145, 4349
519.1475, 4312
519.15, 4305
519.1525, 4284
519.155, 4292
519.1575, 4297
519.16, 4187
519.1625, 4279
519.165, 4296
519.1675, 4264
519.17, 4259
519.1725, 4286
519.175, 4253
519.1775, 4132
519.18, 4225
519.1825, 4246
519.185, 4230
519.1875, 4220
519.19, 4238
519.1925, 4226
519.195, 4112
519.1975, 4230
519.2, 4215
519.2025, 4213
519.205, 4208
519.2075, 4238
519.21, 4233
519.2125, 4093
519.215, 4206
519.2175, 4196
519.22, 4173
519.2225, 4183
519.225, 4188
519.2275, 4183
519.23, 4079
519.2325, 4194
519.235, 4202
519.2375, 4183
519.24, 4190
519.2425, 4199
519.245, 4176
519.2475, 4059
519.25, 4200
519.2525, 4189
519.255, 4220
519.2575, 4190
519.26, 4191
519.2625, 4190
519.265, 4058
519.2675, 4195
519.27, 4185
519.2725, 4176
519.275, 4161
519.2775, 4208
519.28, 4199
519.2825, 4084
519.285, 4203
519.2875, 4198
519.29, 4218
519.2925, 4175
519.295, 4214
519.2975, 4215
519.3, 4166
519.3025, 4232
519.305, 4229
519.3075, 4195
519.31, 4197
519.3125, 4227
519.315, 4216
519.3175, 4127
519.32, 4221
519.3225, 4235
519.325, 4222
519.3275, 4209
519.33, 4174
519.3325, 4188
519.335, 4097
519.3375, 4202
519.34, 4208
519.3425, 4199
519.345, 4178
519.3475, 4208
519.35, 4218
519.3525, 4116
519.355, 4233
519.3575, 4210
519.36, 4209
519.3625, 4222
519.365, 4217
519.3675, 4220
519.37, 4123
519.3725, 4226
519.375, 4212
519.3775, 4199
519.38, 4186
519.3825, 4231
519.385, 4213
519.3875, 4123
519.39, 4233
519.3925, 4241
519.395, 4236
519.3975, 4207
519.4, 4221
519.4025, 4239
519.405, 4118
519.4075, 4231
519.41, 4238
519.4125, 4243
519.415, 4219
519.4175, 4238
519.42, 4210
519.4225, 4110
519.425, 4213
519.4275, 4206
519.43, 4198
519.4325, 4176
519.435, 4182
519.4375, 4175
519.44, 4070
519.4425, 4215
519.445, 4208
519.4475, 4204
519.45, 4207
519.4525, 4231
519.455, 4206
519.4575, 4092
519.46, 4180
519.4625, 4189
519.465, 4180
519.4675, 4170
519.47, 4170
519.4725, 4158
519.475, 4109
519.4775, 4173
519.48, 4168
519.4825, 4184
519.485, 4167
519.4875, 4171
519.49, 4177
519.4925, 4068
519.495, 4187
519.4975, 4178
519.5, 4176
519.5025, 4182
519.505, 4193
519.5075, 4181
519.51, 4060
519.5125, 4169
519.515, 4190
519.5175, 4146
519.52, 4139
519.5225, 4160
519.525, 4155
519.5275, 4047
519.53, 4155
519.5325, 4153
519.535, 4165
519.5375, 4166
519.54, 4155
519.5425, 4145
519.545, 4057
519.5475, 4168
519.55, 4150
519.5525, 4148
519.555, 4126
519.5575, 4160
519.56, 4122
519.5625, 4043
519.565, 4148
519.5675, 4167
519.57, 4164
519.5725, 4166
519.575, 4190
519.5775, 4174
519.58, 4044
519.5825, 4174
519.585, 4178
519.5875, 4172
519.59, 4184
519.5925, 4193
519.595, 4185
519.5975, 4069
519.6, 4183
519.6025, 4170
519.605, 4166
519.6075, 4156
519.61, 4169
519.6125, 4159
519.615, 4053
519.6175, 4175
519.62, 4170
519.6225, 4163
519.625, 4138
519.6275, 4194
519.63, 4185
519.6325, 4061
519.635, 4186
519.6375, 4176
519.64, 4154
519.6425, 4133
519.645, 4155
519.6475, 4150
519.65, 4081
519.6525, 4161
519.655, 4146
519.6575, 4157
519.66, 4151
519.6625, 4184
519.665, 4180
519.6675, 4070
519.67, 4182
519.6725, 4180
519.675, 4163
519.6775, 4154
519.68, 4133
519.6825, 4170
519.685, 4053
519.6875, 4164
519.69, 4160
519.6925, 4178
519.695, 4169
519.6975, 4178
519.7, 4163
519.7025, 4052
519.705, 4164
519.7075, 4167
519.71, 4156
519.7125, 4145
519.715, 4159
519.7175, 4162
519.72, 4040
519.7225, 4146
519.725, 4153
519.7275, 4158
519.73, 4152
519.7325, 4183
519.735, 4160
519.7375, 4027
519.74, 4160
519.7425, 4147
519.745, 4151
519.7475, 4121
519.75, 4163
519.7525, 4139
519.755, 4050
519.7575, 4163
519.76, 4162
519.7625, 4154
519.765, 4159
519.7675, 4157
519.77, 4137
519.7725, 4043
519.775, 4160
519.7775, 4173
519.78, 4156
519.7825, 4125
519.785, 4175
519.7875, 4158
519.79, 4039
519.7925, 4158
519.795, 4157
519.7975, 4164
519.8, 4150
519.8025, 4147
519.805, 4144
519.8075, 4050
519.81, 4158
519.8125, 4142
519.815, 4146
519.8175, 4132
519.82, 4154
519.8225, 4167
519.825, 4113
519.8275, 4158
519.83, 4164
519.8325, 4172
519.835, 4158
519.8375, 4179
519.84, 4146
519.8425, 4060
519.845, 4176
519.8475, 4157
519.85, 4162
519.8525, 4140
519.855, 4152
519.8575, 4148
519.86, 4059
519.8625, 4173
519.865, 4163
519.8675, 4168
519.87, 4154
519.8725, 4155
519.875, 4158
519.8775, 4103
519.88, 4142
519.8825, 4146
519.885, 4153
519.8875, 4145
519.89, 4159
519.8925, 4151
519.895, 4055
519.8975, 4173
519.9, 4156
519.9025, 4157
519.905, 4139
519.9075, 4159
519.91, 4155
519.9125, 4053
519.915, 4163
519.9175, 4153
519.92, 4114
519.9225, 4136
519.925, 4148
519.9275, 4157
519.93, 4126
519.9325, 4126
519.935, 4135
519.9375, 4145
519.94, 4143
519.9425, 4155
519.945, 4133
519.9475, 4031
519.95, 4153
519.9525, 4138
519.955, 4136
519.9575, 4139
519.96, 4157
519.9625, 4149
519.965, 4043
519.9675, 4150
519.97, 4151
519.9725, 4152
519.975, 4141
519.9775, 4155
519.98, 4163
519.9825, 4049
519.985, 4181
519.9875, 4172
519.99, 4152
519.9925, 4162
519.995, 4147
519.9975, 4157
520.0, 4019
520.0025, 4148
520.005, 4169
520.0075, 4162
520.01, 4135
520.0125, 4132
520.015, 4093
520.0175, 3994
520.02, 4077
520.0225, 4063
520.025, 4056
520.0275, 4082
520.03, 4126
520.0325, 4125
520.035, 4045
520.0375, 4167
520.04, 4162
520.0425, 4135
520.045, 4141
520.0475, 4149
520.05, 4166
520.0525, 4109
520.055, 4167
520.0575, 4162
520.06, 4148
520.0625, 4156
520.065, 4155
520.0675, 4169
520.07, 4090
520.0725, 4182
520.075, 4161
520.0775, 4150
520.08, 4150
520.0825, 4161
520.085, 4152
520.0875, 4054
520.09, 4174
520.0925, 4173
520.095, 4158
520.0975, 4137
520.1, 4168
520.1025, 4138
520.105, 4036
520.1075, 4161
520.11, 4163
520.1125, 4160
520.115, 4188
520.1175, 4280
520.12, 4333
520.1225, 4275
520.125, 4445
520.1275, 4475
520.13, 4496
520.1325, 4367
520.135, 4201
520.1375, 3949
520.14, 3524
520.1425, 3293
520.145, 2876
520.1475, 2428
520.15, 1845
520.1525, 1513
520.155, 1429
520.1575, 1451
520.16, 2095
520.1625, 3046
520.165, 3983
520.1675, 4660
520.17, 4988
520.1725, 5005
520.175, 4828
520.1775, 4729
520.18, 4577
520.1825, 4559
520.185, 4562
520.1875, 4552
520.19, 4551
520.1925, 4442
520.195, 4575
520.1975, 4564
520.2, 4566
520.2025, 4566
520.205, 4557
520.2075, 4528
520.21, 4411
520.2125, 4510
520.215, 4478
520.2175, 4461
520.22, 4468
520.2225, 4478
520.225, 4449
520.2275, 4395
520.23, 4438
520.2325, 4451
520.235, 4422
520.2375, 4398
520.24, 4414
520.2425, 4402
520.245, 4286
520.2475, 4398
520.25, 4394
520.2525, 4383
520.255, 4367
520.2575, 4350
520.26, 4378
520.2625, 4268
520.265, 4365
520.2675, 4340
520.27, 4332
520.2725, 4297
520.275, 4325
520.2775, 4314
520.28, 4208
520.2825, 4301
520.285, 4272
520.2875, 4260
520.29, 4273
520.2925, 4235
520.295, 4246
520.2975, 4128
520.3, 4250
520.3025, 4251
520.305, 4238
520.3075, 4242
520.31, 4263
520.3125, 4246
520.315, 4164
520.3175, 4265
520.32, 4259
520.3225, 4253
520.325, 4247
520.3275, 4248
520.33, 4245
520.3325, 4212
520.335, 4236
520.3375, 4221
520.34, 4190
520.3425, 4164
520.345, 4265
520.3475, 4238
520.35, 4130
520.3525, 4244
520.355, 4244
520.3575, 4238
520.36, 4221
520.3625, 4225
520.365, 4216
520.3675, 4100
520.37, 4217
520.3725, 4219
520.375, 4222
520.3775, 4212
520.38, 4224
520.3825, 4213
520.385, 4094
520.3875, 4206
520.39, 4214
520.3925, 4191
520.395, 4193
520.3975, 4228
520.4, 4205
520.4025, 4159
520.405, 4192
520.4075, 4200
520.41, 4196
520.4125, 4188
520.415, 4195
520.4175, 4223
520.42, 4079
520.4225, 4188
520.425, 4185
520.4275, 4165
520.43, 4130
520.4325, 4192
520.435, 4164
520.4375, 4043
520.44, 4139
520.4425, 4141
520.445, 4118
520.4475, 4103
520.45, 4111
520.4525, 4108
520.455, 4011
520.4575, 4132
520.46, 4131
520.4625, 4153
520.465, 4119
520.4675, 4146
520.47, 4135
520.4725, 4039
520.475, 4138
520.4775, 4128
520.48, 4128
520.4825, 4138
520.485, 4169
520.4875, 4184
520.49, 4089
520.4925, 4202
520.495, 4189
520.4975, 4180
520.5, 4197
520.5025, 4208
520.505, 4196
520.5075, 4104
520.51, 4232
520.5125, 4221
520.515, 4215
520.5175, 4217
520.52, 4234
520.5225, 4237
520.525, 4193
520.5275, 4238
520.53, 4225
520.5325, 4210
520.535, 4205
520.5375, 4227
520.54, 4210
520.5425, 4113
520.545, 4222
520.5475, 4221
520.55, 4201
520.5525, 4183
520.555, 4180
520.5575, 4169
520.56, 4074
520.5625, 4185
520.565, 4195
520.5675, 4181
520.57, 4148
520.5725, 4162
520.575, 4176
520.5775, 4048
520.58, 4143
520.5825, 4168
520.585, 4152
520.5875, 4173
520.59, 4179
520.5925, 4166
520.595, 4051
520.5975, 4166
520.6, 4183
520.6025, 4167
520.605, 4137
520.6075, 4148
520.61, 4163
520.6125, 4038
520.615, 4152
520.6175, 4166
520.62, 4147
520.6225, 4134
520.625, 4168
520.6275, 4179
520.63, 4064
520.6325, 4181
520.635, 4176
520.6375, 4158
520.64, 4146
520.6425, 4167
520.645, 4160
520.6475, 4042
520.65, 4164
520.6525, 4163
520.655, 4144
520.6575, 4160
520.66, 4140
520.6625, 4146
520.665, 4037
520.6675, 4159
520.67, 4168
520.6725, 4175
520.675, 4133
520.6775, 4147
520.68, 4130
520.6825, 4033
520.685, 4167
520.6875, 4162
520.69, 4162
520.6925, 4139
520.695, 4160
520.6975, 4175
520.7, 4062
520.7025, 4182
520.705, 4165
520.7075, 4149
520.71, 4159
520.7125, 4180
520.715, 4198
520.7175, 4075
520.72, 4185
520.7225, 4191
520.725, 4166
520.7275, 4166
520.73, 4177
520.7325, 4188
520.735, 4062
520.7375, 4174
520.74, 4172
520.7425, 4184
520.745, 4177
520.7475, 4179
520.75, 4192
520.7525, 4087
520.755, 4206
520.7575, 4197
520.76, 4185
520.7625, 4160
520.765, 4184
520.7675, 4190
520.77, 4087
520.7725, 4198
520.775, 4216
520.7775, 4209
520.78, 4199
520.7825, 4198
520.785, 4193
520.7875, 4049
520.79, 4167
520.7925, 4159
520.795, 4178
520.7975, 4172
520.8, 4158
520.8025, 4170
520.805, 4052
520.8075, 4149
520.81, 4162
520.8125, 4171
520.815, 4146
520.8175, 4155
520.82, 4151
520.8225, 4119
520.825, 4177
520.8275, 4187
520.83, 4162
520.8325, 4173
520.835, 4187
520.8375, 4170
520.84, 4059
520.8425, 4185
520.845, 4169
520.8475, 4186
520.85, 4166
520.8525, 4190
520.855, 4174
520.8575, 4057
520.86, 4182
520.8625, 4148
520.865, 4156
520.8675, 4161
520.87, 4191
520.8725, 4180
520.875, 4059
520.8775, 4183
520.88, 4168
520.8825, 4170
520.885, 4176
520.8875, 4179
520.89, 4184
520.8925, 4080
520.895, 4213
520.8975, 4220
520.9, 4194
520.9025, 4163
520.905, 4179
520.9075, 4176
520.91, 4064
520.9125, 4166
520.915, 4153
520.9175, 4129
520.92, 4123
520.9225, 4143
520.925, 4145
520.9275, 4039
520.93, 4189
520.9325, 4168
520.935, 4146
520.9375, 4138
520.94, 4177
520.9425, 4165
520.945, 4097
520.9475, 4150
520.95, 4148
520.9525, 4147
520.955, 4149
520.9575, 4163
520.96, 4155
520.9625, 4052
520.965, 4180
520.9675, 4185
520.97, 4180
520.9725, 4171
520.975, 4201
520.9775, 4168
520.98, 4053
520.9825, 4168
520.985, 4187
520.9875, 4186
520.99, 4170
520.9925, 4183
520.995, 4186
520.9975, 4072
521.0, 4173
521.0025, 4194
521.005, 4186
521.0075, 4175
521.01, 4209
521.0125, 4179
521.015, 4051
521.0175, 4184
521.02, 4191
521.0225, 4204
521.025, 4196
521.0275, 4198
521.03, 4179
521.0325, 4071
521.035, 4199
521.0375, 4204
521.04, 4187
521.0425, 4185
521.045, 4210
521.0475, 4195
521.05, 4153
521.0525, 4202
521.055, 4208
521.0575, 4199
521.06, 4181
521.0625, 4166
521.065, 4155
521.0675, 4061
521.07, 4171
521.0725, 4160
521.075, 4161
521.0775, 4159
521.08, 4195
521.0825, 4199
521.085, 4070
521.0875, 4181
521.09, 4184
521.0925, 4191
521.095, 4155
521.0975, 4187
521.1, 4173
521.1025, 4092
521.105, 4178
521.1075, 4145
521.11, 4146
521.1125, 4147
521.115, 4161
521.1175, 4177
521.12, 4121
521.1225, 4180
521.125, 4163
521.1275, 4165
521.13, 4160
521.1325, 4188
521.135, 4175
521.1375, 4065
521.14, 4182
521.1425, 4174
521.145, 4180
521.1475, 4155
521.15, 4185
521.1525, 4180
521.155, 4072
521.1575, 4203
521.16, 4189
521.1625, 4190
521.165, 4187
521.1675, 4178
521.17, 4184
521.1725, 4074
521.175, 4192
521.1775, 4218
521.18, 4188
521.1825, 4179
521.185, 4164
521.1875, 4130
521.19, 4005
521.1925, 4127
521.195, 4087
521.1975, 4091
521.2, 4102
521.2025, 4134
521.205, 4140
521.2075, 4015
521.21, 4174
521.2125, 4168
521.215, 4168
521.2175, 4171
521.22, 4185
521.2225, 4230
521.225, 4101
521.2275, 4212
521.23, 4198
521.2325, 4195
