17:55:39.836172 279.56 -7680 -2048 12604 1483 833 310
17:55:39.860115 279.57 -7716 -2008 12524 1715 1090 591
17:55:39.862068 279.58 -7624 -1936 12424 1689 1122 677
17:55:39.885471 279.59 -7572 -2096 12440 1432 886 727
17:55:39.899332 279.6 -7804 -1980 12620 1278 718 692
17:55:39.899455 279.61 -7800 -1844 12492 984 503 527
17:55:39.899549 279.62 -7808 -1740 12760 1054 531 389
17:55:39.920353 279.63 -7744 -1852 12920 1275 812 307
17:55:39.931259 279.64 -7856 -1896 12728 1854 1386 478
17:55:39.934171 279.65 -7712 -1720 12620 1890 1535 456
17:55:40.003612 279.66 -7652 -1776 12372 1550 1242 363
17:55:40.009611 279.67 -7676 -1808 12128 837 585 178
17:55:40.009826 279.68 -7760 -1768 12448 562 390 176
17:55:40.009929 279.69 -7756 -1664 12468 428 411 100
17:55:40.010025 279.7 -7876 -1732 12440 407 317 238
17:55:40.010730 279.71 -7872 -1604 12748 443 506 451
17:55:40.013848 279.72 -7952 -1704 12768 608 468 603
17:55:40.016168 279.73 -7808 -1816 12744 734 580 652
17:55:40.017591 279.74 -7904 -1556 12660 1076 894 800
17:55:40.033480 279.75 -7988 -1572 12532 1198 994 862
17:55:40.042856 279.76 -8016 -1624 12632 1142 1001 976
17:55:40.056645 279.77 -7796 -1572 12280 649 457 935
17:55:40.082981 279.78 -7856 -1520 12276 425 261 971
17:55:40.083144 279.79 -7868 -1508 12480 536 576 932
17:55:40.083369 279.8 -7852 -1568 12312 466 569 1064
17:55:40.083681 279.81 -7928 -1616 12448 371 475 1049
17:55:40.097822 279.82 -7944 -1332 12592 306 524 941
17:55:40.112905 279.83 -7992 -1568 12468 147 267 698
17:55:40.113051 279.84 -7868 -1588 12608 381 510 720
17:55:40.120567 279.85 -8016 -1200 12304 130 362 469
17:55:40.144066 279.86 -7940 -1468 12288 -57 120 434
17:55:40.144207 279.87 -7968 -1352 12608 137 504 563
17:55:40.150742 279.88 -8052 -1432 12536 243 516 525
17:55:40.165293 279.89 -8048 -1340 12684 177 431 524
17:55:40.175004 279.9 -7936 -1440 12488 121 340 522
17:55:40.180309 279.91 -8060 -1584 12816 212 335 733
17:55:40.199991 279.92 -8120 -1232 12656 268 367 748
17:55:40.210534 279.93 -8108 -1208 12456 68 -18 693
17:55:40.210682 279.94 -7960 -1220 12660 108 73 815
17:55:40.238441 279.95 -8084 -1144 12636 535 618 856
17:55:40.261069 279.96 -7948 -1240 12404 455 603 748
17:55:40.261629 279.97 -7884 -1192 12480 279 488 746
17:55:40.262003 279.98 -8016 -1260 12584 237 519 702
17:55:40.263393 279.99 -8008 -1224 12476 275 585 610
17:55:40.279276 280.0 -8112 -1308 12568 246 555 626
17:55:40.295009 280.01 -8076 -1184 12544 150 431 603
17:55:40.304228 280.02 -8056 -1284 12436 115 319 555
17:55:40.329903 280.03 -8036 -1028 12556 196 584 625
17:55:40.333717 280.04 -8020 -1184 12276 -40 343 458
17:55:40.333797 280.05 -7924 -1260 12460 -195 179 424
17:55:40.334447 280.06 -8020 -1116 12736 -70 430 553
17:55:40.355605 280.07 -7980 -1188 12636 73 509 572
17:55:40.363613 280.08 -8064 -1280 12580 50 493 543
17:55:40.389538 280.09 -8164 -1232 12740 26 403 470
17:55:40.396709 280.1 -7992 -1364 12628 82 379 461
17:55:40.396842 280.11 -8064 -1076 12488 -225 181 243
17:55:40.397022 280.12 -8104 -1156 12472 -317 -39 208
17:55:40.416060 280.13 -8232 -1236 12524 -252 182 306
17:55:40.431833 280.14 -8256 -1292 12688 -78 262 356
17:55:40.431980 280.15 -8072 -1136 12772 -89 280 356
17:55:40.435723 280.16 -8128 -1028 12428 -134 199 358
17:55:40.442979 280.17 -8184 -1240 12724 22 213 306
17:55:40.463398 280.18 -8068 -1296 12688 236 489 409
17:55:40.465553 280.19 -8120 -1192 12776 549 694 458
17:55:40.474086 280.2 -8220 -1068 12616 687 750 512
17:55:40.490849 280.21 -8128 -924 12332 512 563 323
17:55:40.499027 280.22 -8160 -1044 12252 334 457 295
17:55:40.502965 280.23 -8068 -1012 12352 55 247 196
17:55:40.521686 280.24 -8040 -960 12488 -133 71 145
17:55:40.535200 280.25 -8076 -1144 12404 142 460 267
17:55:40.537119 280.26 -8072 -980 12640 389 759 304
17:55:40.540521 280.27 -8132 -924 12396 236 582 147
17:55:40.567209 280.28 -8044 -1008 12304 -47 263 127
17:55:40.567432 280.29 -8056 -816 12476 -87 363 174
17:55:40.570490 280.3 -8144 -876 12312 -173 212 174
17:55:40.585402 280.31 -8240 -1004 12748 -23 382 284
17:55:40.597222 280.32 -8264 -836 12628 27 522 214
17:55:40.600443 280.33 -8152 -1040 12468 -79 339 121
17:55:40.620018 280.34 -8080 -1128 12400 -182 217 97
17:55:40.633107 280.35 -8180 -1076 12540 -209 146 35
17:55:40.636065 280.36 -8100 -1044 12704 -118 134 153
17:55:40.675357 280.37 -8136 -972 12668 95 401 299
17:55:40.675800 280.38 -8204 -896 12600 111 352 220
17:55:40.676517 280.39 -8164 -920 12596 -55 247 231
17:55:40.691642 280.4 -8208 -868 12308 -387 -76 13
17:55:40.700211 280.41 -8072 -1068 12608 -384 -69 -23
17:55:40.701784 280.42 -8068 -1004 12604 -128 214 98
17:55:40.715029 280.43 -8004 -1008 12516 39 390 138
17:55:40.735840 280.44 -7996 -1080 12336 -148 88 211
17:55:40.736044 280.45 -8280 -872 12500 -162 208 196
17:55:40.752470 280.46 -8064 -992 12588 4 340 276
17:55:40.767513 280.47 -8108 -836 12528 -132 324 246
17:55:40.767652 280.48 -8068 -972 12540 -118 293 244
17:55:40.773789 280.49 -8052 -932 12660 -37 382 291
17:55:40.788356 280.5 -8104 -1004 12572 -39 377 307
17:55:40.798354 280.51 -8136 -836 12408 -232 138 251
17:55:40.823100 280.52 -8168 -708 12548 -424 -94 146
17:55:40.833173 280.53 -8184 -864 12584 -358 58 290
17:55:40.833347 280.54 -8232 -824 12556 -108 335 333
17:55:40.833594 280.55 -8228 -820 12552 -118 342 207
17:55:40.855101 280.56 -8196 -880 12184 -461 -35 93
17:55:40.864608 280.57 -8228 -872 12600 -539 -96 317
17:55:40.873043 280.58 -8284 -624 12808 -194 417 324
17:55:40.874425 280.59 -8048 -880 12316 136 658 344
17:55:40.887223 280.6 -8000 -1144 12384 71 590 567
17:55:40.910310 280.61 -8088 -1264 12396 -49 504 444
17:55:40.954125 280.62 -8188 -1212 12456 -21 519 373
17:55:40.965176 280.63 -8252 -1160 12556 -53 417 393
17:55:40.965373 280.64 -8272 -964 12576 -53 294 344
17:55:40.965574 280.65 -8300 -1020 12676 11 323 338
17:55:40.965955 280.66 -8288 -1056 12488 54 420 357
17:55:40.973732 280.67 -8244 -920 12412 -57 444 289
17:55:40.974779 280.68 -8164 -1064 12512 -88 417 153
17:55:40.977640 280.69 -8132 -1196 12456 -106 407 236
17:55:40.999706 280.7 -8340 -980 12744 21 293 387
17:55:40.999892 280.71 -8348 -976 12904 508 731 499
17:55:41.005403 280.72 -8372 -768 12600 562 764 307
17:55:41.030411 280.73 -8028 -1108 12224 321 457 0
17:55:41.033663 280.74 -8132 -1180 12264 -167 29 48
17:55:41.035582 280.75 -8116 -880 12708 -158 -34 106
17:55:41.054383 280.76 -8432 -868 12592 403 777 35
17:55:41.069234 280.77 -8344 -980 12568 452 498 81
17:55:41.069379 280.78 -8296 -940 12852 554 369 149
17:55:41.073094 280.79 -8280 -764 12708 878 792 346
17:55:41.087906 280.8 -8184 -824 12368 991 910 265
17:55:41.133290 280.81 -8344 -908 12116 712 700 157
17:55:41.134461 280.82 -8460 -824 12456 -41 -288 -133
17:55:41.135586 280.83 -8592 -800 12992 26 -427 -26
17:55:41.138209 280.84 -8524 -688 13012 634 258 209
17:55:41.156485 280.85 -8584 -508 12468 861 643 106
17:55:41.164023 280.86 -8352 -712 12452 480 -41 103
17:55:41.164209 280.87 -8556 -796 13120 406 -336 264
17:55:41.164378 280.88 -8520 -864 13280 1032 284 349
17:55:41.170443 280.89 -8636 -652 13084 1512 455 551
17:55:41.187216 280.9 -8512 -604 12836 1290 61 410
17:55:41.201830 280.91 -8156 -860 12564 1024 -466 284
17:55:41.208070 280.92 -8204 -656 12584 786 -837 264
17:55:41.221963 280.93 -8232 -652 12600 881 -715 190
17:55:41.233933 280.94 -8216 -532 12500 951 -713 404
17:55:41.234190 280.95 -8316 -572 12652 1141 -383 641
17:55:41.254634 280.96 -8244 -356 12444 1346 -24 579
17:55:41.265288 280.97 -8196 -616 12400 1226 -229 457
17:55:41.267881 280.98 -8200 -652 12508 1370 -40 205
17:55:41.276926 280.99 -8256 -656 12340 1163 -326 111
17:55:41.292137 281.0 -8256 -460 12468 869 -927 129
17:55:41.299736 281.01 -8648 -164 12608 1237 -837 303
17:55:41.305461 281.02 -8696 96 12664 1585 -815 275
17:55:41.324540 281.03 -8480 8 12460 1942 -599 438
17:55:41.333008 281.04 -8472 24 12284 2195 -472 516
17:55:41.357601 281.05 -8292 212 12116 2155 -365 473
17:55:41.365457 281.06 -7988 188 11884 1979 -337 348
17:55:41.365613 281.07 -7988 272 11772 1678 -195 99
17:55:41.365727 281.08 -8004 144 12000 1060 -624 -43
17:55:41.390279 281.09 -8128 196 12368 738 -822 -172
17:55:41.400606 281.1 -8052 24 12716 1089 -365 -182
17:55:41.405118 281.11 -8152 168 12592 1261 -138 -212
17:55:41.407039 281.12 -8188 360 12844 913 -677 -427
17:55:41.410606 281.13 -8164 276 13032 952 -864 -456
17:55:41.425910 281.14 -8440 348 13264 1014 -1080 -213
17:55:41.433750 281.15 -8540 600 13460 1354 -1057 -180
17:55:41.440400 281.16 -8368 596 13284 1723 -812 99
17:55:41.465270 281.17 -8324 540 12988 1951 -688 205
17:55:41.467252 281.18 -7992 268 12744 1868 -963 167
17:55:41.470723 281.19 -7948 108 12720 1974 -779 235
17:55:41.485952 281.2 -7924 256 12652 1800 -928 124
17:55:41.504029 281.21 -7992 232 12828 1732 -1271 19
17:55:41.504222 281.22 -7964 296 13120 2140 -895 150
17:55:41.526280 281.23 -7892 484 12936 2448 -592 381
17:55:41.537612 281.24 -8020 868 12668 2241 -816 213
17:55:41.537960 281.25 -7860 708 12668 2117 -839 -11
17:55:41.545730 281.26 -7688 648 12268 1858 -1002 -63
17:55:41.566956 281.27 -7792 636 12528 1275 -1717 -140
17:55:41.567278 281.28 -7856 656 13092 1592 -1384 -126
17:55:41.575954 281.29 -7844 952 12656 1802 -1058 -166
17:55:41.591802 281.3 -7776 840 12740 1625 -1471 -228
17:55:41.601022 281.31 -7588 924 12708 1585 -1365 -136
17:55:41.605999 281.32 -7472 840 12676 1927 -814 -88
17:55:41.625419 281.33 -7340 972 12444 1916 -642 -119
17:55:41.634700 281.34 -7392 976 12760 1622 -895 -255
17:55:41.635484 281.35 -7512 1076 12676 1579 -829 -307
17:55:41.643091 281.36 -7428 1048 12744 1458 -1005 -399
17:55:41.664367 281.37 -7432 1300 12796 1361 -969 -399
17:55:41.674614 281.38 -7296 912 12472 1540 -723 -508
17:55:41.674754 281.39 -7216 1068 12584 1436 -857 -395
17:55:41.681109 281.4 -7288 1256 13012 1160 -1206 -465
17:55:41.697384 281.41 -7256 1304 12880 1206 -1123 -518
17:55:41.705421 281.42 -7232 1388 12736 1457 -720 -333
17:55:41.710650 281.43 -7208 1388 12612 1555 -438 -354
17:55:41.728400 281.44 -7144 1292 12680 1324 -594 -348
17:55:41.738279 281.45 -7008 1360 12620 1234 -504 -302
17:55:41.740335 281.46 -7244 1428 12572 1194 -461 -354
17:55:41.762542 281.47 -6952 1140 12672 1271 -62 -561
17:55:41.772394 281.48 -7020 1140 12532 808 -460 -679
17:55:41.773630 281.49 -7100 1264 12664 75 -1107 -717
17:55:41.796824 281.5 -7180 1304 12900 172 -885 -769
17:55:41.805630 281.51 -7164 1164 13056 405 -500 -814
17:55:41.807973 281.52 -7068 944 12868 605 -232 -802
17:55:41.822396 281.53 -7148 800 12868 540 -235 -896
17:55:41.839773 281.54 -7108 708 13032 390 -480 -991
17:55:41.840092 281.55 -7196 732 13336 397 -552 -1119
17:55:41.845996 281.56 -7280 768 13328 468 -681 -1120
17:55:41.870792 281.57 -7376 756 13392 561 -825 -1129
17:55:41.870982 281.58 -7316 904 13556 814 -787 -1035
17:55:41.875337 281.59 -7396 932 13372 1114 -415 -1092
17:55:41.892581 281.6 -7352 680 13412 1159 -399 -1179
17:55:41.905702 281.61 -7320 684 13204 962 -321 -1224
17:55:41.905996 281.62 -7544 656 13140 497 -799 -1500
17:55:41.914403 281.63 -7544 520 13560 409 -850 -1785
17:55:41.935350 281.64 -7576 360 13708 671 -557 -1923
17:55:41.935520 281.65 -7660 128 13912 863 -533 -2172
17:55:41.942931 281.66 -7672 144 13952 511 -1321 -2376
17:55:41.961469 281.67 -7864 104 14096 526 -1736 -2479
17:55:41.970097 281.68 -7852 324 14204 1145 -1383 -2590
17:55:41.972983 281.69 -7860 288 14008 1481 -1516 -2669
17:55:41.980675 281.7 -7752 444 13816 1717 -1440 -2802
17:55:42.007739 281.71 -7980 684 13768 1777 -1313 -2933
17:55:42.007902 281.72 -7928 624 13572 1456 -1585 -3342
17:55:42.010685 281.73 -7824 332 13416 1199 -1591 -3559
17:55:42.025236 281.74 -7792 112 13636 1114 -1762 -3973
17:55:42.042619 281.75 -7880 -228 14112 1204 -1942 -4158
17:55:42.043814 281.76 -7960 -216 14232 1794 -1647 -4279
17:55:42.058123 281.77 -7816 -92 14336 2383 -1837 -4363
17:55:42.068599 281.78 -7808 -76 14264 2661 -2312 -4293
17:55:42.070364 281.79 -7508 4 13792 3078 -2443 -4305
17:55:42.097576 281.8 -7204 -16 13168 3686 -1941 -4208
17:55:42.106217 281.81 -7104 172 12756 3822 -1742 -4400
17:55:42.107989 281.82 -6984 464 12756 3473 -1832 -4924
17:55:42.115740 281.83 -7048 428 12568 2646 -2114 -5423
17:55:42.135828 281.84 -7116 488 12780 2016 -2315 -5638
17:55:42.136024 281.85 -7208 524 12992 2000 -2034 -5924
17:55:42.145956 281.86 -7264 468 13544 2257 -1959 -6087
17:55:42.165464 281.87 -7092 360 13920 2799 -1989 -5837
17:55:42.172601 281.88 -6868 436 14132 3578 -2012 -5383
17:55:42.175259 281.89 -6640 820 13608 4492 -1633 -4990
17:55:42.195811 281.9 -6220 1184 12916 4981 -1805 -5004
17:55:42.204134 281.91 -5852 1460 12448 4780 -2623 -5001
17:55:42.205234 281.92 -5508 1628 12440 4647 -2900 -4536
17:55:42.213319 281.93 -5464 2572 12000 4855 -2610 -4595
17:55:42.228807 281.94 -5264 2564 11704 5144 -2262 -4476
17:55:42.236904 281.95 -4992 3144 11684 4655 -2564 -4022
17:55:42.243057 281.96 -4832 3340 11496 4070 -3169 -3700
17:55:42.263915 281.97 -4680 3384 11404 4231 -2701 -2921
17:55:42.275781 281.98 -4456 3788 11416 4730 -1919 -2237
17:55:42.279231 281.99 -4208 3884 11736 5140 -1243 -1889
17:55:42.325127 282.0 -3996 3748 11664 5407 -704 -1515
17:55:42.338155 282.01 -3976 3948 11672 5357 -535 -1567
17:55:42.338294 282.02 -3852 3912 11676 5317 -185 -1416
17:55:42.338397 282.03 -3928 4600 11404 4819 -174 -1528
17:55:42.342096 282.04 -3940 4844 11516 3806 -757 -1928
17:55:42.381874 282.05 -4104 5080 11776 3238 -706 -1755
17:55:42.384248 282.06 -4340 5584 11736 2692 -428 -1637
17:55:42.402544 282.07 -4504 5632 12084 2186 -282 -1546
17:55:42.402713 282.08 -4456 5752 12340 1734 117 -1403
17:55:42.402855 282.09 -4584 5492 12224 1237 283 -1128
17:55:42.413844 282.1 -4852 5420 12552 663 283 -900
17:55:42.414830 282.11 -5016 5400 12700 301 489 -813
17:55:42.416646 282.12 -5040 4872 13136 222 625 -455
17:55:42.438746 282.13 -4960 4424 13504 400 1027 -27
17:55:42.438967 282.14 -5104 4268 13580 642 1320 327
17:55:42.439117 282.15 -5148 4148 13672 754 1445 604
17:55:42.503196 282.16 -5132 4168 13464 486 981 837
17:55:42.510442 282.17 -5284 4236 13428 -44 443 860
17:55:42.510728 282.18 -5168 4084 13348 -382 327 1062
17:55:42.511047 282.19 -5452 3836 13288 -510 434 1193
17:55:42.511319 282.2 -5508 3712 13492 -621 592 1197
17:55:42.516173 282.21 -5472 3360 13564 -711 722 1042
17:55:42.519731 282.22 -5652 3032 13504 -1027 252 1005
17:55:42.545020 282.23 -5764 2884 13968 -931 194 1056
17:55:42.545177 282.24 -5856 2660 13960 -523 487 1208
17:55:42.545314 282.25 -5824 2588 13940 -339 528 1249
17:55:42.547058 282.26 -5816 2556 13752 -222 466 1101
17:55:42.550731 282.27 -5880 2376 13928 -167 304 1074
17:55:42.575101 282.28 -5964 2492 13876 -137 185 1213
17:55:42.576193 282.29 -6012 2488 13668 37 197 828
17:55:42.580827 282.3 -5904 2372 13500 313 411 749
17:55:42.597623 282.31 -6008 2412 13372 185 268 666
17:55:42.612632 282.32 -5924 2552 13336 -227 -304 464
17:55:42.614490 282.33 -5928 2492 13360 -275 -342 422
17:55:42.634612 282.34 -6064 2728 13344 -216 -229 342
17:55:42.645224 282.35 -6056 2880 13444 -129 -129 165
17:55:42.647924 282.36 -6024 2884 13264 -55 -106 225
17:55:42.701037 282.37 -6028 2980 13760 38 -151 363
17:55:42.719018 282.38 -6016 3084 13904 458 92 557
17:55:42.721450 282.39 -5848 3100 13780 1174 632 831
17:55:42.739807 282.4 -5792 3040 13488 1704 1016 990
17:55:42.739965 282.41 -5736 3152 13428 1622 617 1174
17:55:42.740198 282.42 -5812 3604 13452 1456 348 975
17:55:42.777063 282.43 -5648 3548 13240 1300 -91 1095
17:55:42.778098 282.44 -5656 3920 13568 1549 160 1085
17:55:42.781247 282.45 -5624 4084 13388 1889 705 762
17:55:42.783612 282.46 -5340 3936 13444 1686 543 763
17:55:42.785199 282.47 -5408 4196 13600 1443 565 739
17:55:42.808045 282.48 -5324 4388 13064 708 316 500
17:55:42.808244 282.49 -5308 4316 13060 -64 -122 535
17:55:42.808401 282.5 -5464 4476 13444 -427 159 478
17:55:42.808551 282.51 -5648 4256 13700 -382 523 325
17:55:42.808701 282.52 -5792 4072 13640 -319 992 494
17:55:42.820649 282.53 -5864 4052 13876 -295 977 441
17:55:42.839580 282.54 -6100 3772 14148 -498 719 398
17:55:42.845164 282.55 -6060 3776 14144 -454 450 533
17:55:42.846805 282.56 -6076 3724 14296 -268 197 710
17:55:42.863464 282.57 -6016 3464 14424 100 29 865
17:55:42.872585 282.58 -6036 3340 14196 175 -400 998
17:55:42.872869 282.59 -6020 3332 14632 266 -1012 1382
17:55:42.889842 282.6 -6168 3508 14948 486 -1244 1751
17:55:42.912104 282.61 -6100 3320 14932 447 -1889 2035
17:55:42.912397 282.62 -6284 3536 15204 524 -2186 2133
17:55:42.917920 282.63 -6528 3688 15396 854 -2084 2258
17:55:42.931934 282.64 -6552 3616 15460 1172 -1845 2322
17:55:42.939348 282.65 -6572 3764 15600 1468 -1907 2051
17:55:42.947852 282.66 -6380 3456 15084 1212 -2420 1733
17:55:42.965412 282.67 -6288 3236 15116 1219 -2671 1836
17:55:42.974214 282.68 -6264 3416 15068 1251 -2730 1815
17:55:42.977899 282.69 -6056 3496 14620 1161 -3104 1585
17:55:42.985831 282.7 -5936 3352 14320 1150 -3481 1440
17:55:43.007348 282.71 -5840 3500 14468 1404 -3485 1542
17:55:43.007802 282.72 -5640 3692 14144 1954 -3178 1644
17:55:43.016048 282.73 -5476 3796 13260 2379 -2732 1554
17:55:43.032153 282.74 -5156 4012 12560 2023 -2817 1298
17:55:43.040436 282.75 -4908 4032 11756 1290 -3040 885
17:55:43.068146 282.76 -4712 4152 11552 855 -2985 630
17:55:43.077183 282.77 -4628 4172 11404 448 -2811 449
17:55:43.077327 282.78 -4408 4020 11204 243 -2640 123
17:55:43.077438 282.79 -4320 3816 10896 -1 -2498 -94
17:55:43.083310 282.8 -4264 3576 10808 -322 -2655 -179
17:55:43.101387 282.81 -4284 3836 10700 -202 -2221 -411
17:55:43.109833 282.82 -4108 3656 10352 -242 -1857 -543
17:55:43.112876 282.83 -4144 3752 10180 -421 -1731 -736
17:55:43.131380 282.84 -4212 3456 10312 -584 -1802 -1069
17:55:43.142422 282.85 -4388 3468 10732 -601 -1782 -1020
17:55:43.142762 282.86 -4416 3700 10944 -350 -1506 -918
17:55:43.164086 282.87 -4284 3628 10564 139 -1026 -1041
17:55:43.173734 282.88 -4300 3376 10368 262 -884 -1154
17:55:43.173922 282.89 -4320 3400 10584 -92 -1089 -1225
17:55:43.188005 282.9 -4560 3436 11144 118 -1008 -1398
17:55:43.212601 282.91 -4592 3408 11324 358 -565 -1497
17:55:43.212969 282.92 -4460 3132 11260 202 -713 -1713
17:55:43.218140 282.93 -4632 2884 11288 -129 -934 -1909
17:55:43.235200 282.94 -4736 2912 11756 120 -543 -1996
17:55:43.246776 282.95 -4888 2620 12252 581 -180 -2144
17:55:43.247905 282.96 -4972 2552 12728 1042 71 -2162
17:55:43.267357 282.97 -5100 2524 12896 1527 487 -2182
17:55:43.279835 282.98 -5012 2468 12828 1950 755 -2316
17:55:43.279953 282.99 -5060 2348 12936 1778 523 -2959
17:55:43.285533 283.0 -5268 2556 13276 1108 -368 -3251
17:55:43.299084 283.01 -5768 2952 13836 701 -963 -3830
17:55:43.315486 283.02 -5968 3052 14328 907 -942 -3763
17:55:43.315643 283.03 -6088 3376 14628 1302 -743 -3802
17:55:43.328938 283.04 -6212 3364 14932 1627 -746 -4000
17:55:43.347935 283.05 -6116 3372 14968 1597 -1110 -4081
17:55:43.348087 283.06 -6048 3460 14936 1615 -1502 -4134
17:55:43.366435 283.07 -5648 3288 14952 2028 -1431 -4172
17:55:43.377534 283.08 -5576 3596 14548 2306 -1240 -4086
17:55:43.378773 283.09 -5348 3508 14564 2342 -1455 -4209
17:55:43.402162 283.1 -5180 3576 14624 2181 -1469 -4503
17:55:43.410479 283.11 -5208 3640 14224 1591 -2062 -4749
17:55:43.412917 283.12 -5176 3872 14724 1279 -2481 -5034
17:55:43.421198 283.13 -5124 3980 14936 1377 -2298 -5037
17:55:43.445137 283.14 -5272 4404 14904 1461 -2367 -5030
17:55:43.445452 283.15 -5028 4264 14888 1480 -2729 -5135
17:55:43.450559 283.16 -4808 4152 14912 1821 -2665 -4811
17:55:43.463842 283.17 -4856 4388 14792 1903 -2782 -4802
17:55:43.477404 283.18 -4536 4288 14552 1832 -3109 -4871
17:55:43.480364 283.19 -4624 4500 14592 1741 -3308 -4974
17:55:43.488236 283.2 -4540 4620 14788 1589 -3441 -5232
17:55:43.503547 283.21 -4380 4856 14544 1095 -3885 -5569
17:55:43.510369 283.22 -4348 4816 14568 913 -4131 -5695
17:55:43.518373 283.23 -4396 4972 14708 679 -4342 -5860
17:55:43.535309 283.24 -4228 5004 14496 535 -4420 -5731
17:55:43.543894 283.25 -4104 5036 14500 491 -4352 -5825
17:55:43.547825 283.26 -4024 5164 14416 263 -4527 -5959
17:55:43.568606 283.27 -3852 5072 14480 81 -4725 -6266
17:55:43.580325 283.28 -3628 5012 14148 -181 -4896 -6422
17:55:43.580511 283.29 -3492 5068 13944 -498 -5312 -6357
17:55:43.603839 283.3 -3352 5348 14048 -496 -5187 -6389
17:55:43.615284 283.31 -3012 5416 13844 -531 -5034 -6285
17:55:43.615394 283.32 -2980 5472 13704 -512 -4814 -6335
17:55:43.623303 283.33 -2848 5540 13596 -953 -4855 -6696
17:55:43.633257 283.34 -2640 5268 13364 -1156 -4707 -6850
17:55:43.644376 283.35 -2480 5204 13472 -1385 -4625 -7011
17:55:43.653188 283.36 -2388 5048 13504 -1674 -4786 -7094
17:55:43.667769 283.37 -2480 5020 13716 -1860 -4896 -7066
17:55:43.682366 283.38 -2516 5224 13488 -2160 -4903 -7022
17:55:43.682984 283.39 -2348 5448 13296 -2170 -4686 -7051
17:55:43.690356 283.4 -2312 5540 13320 -2436 -4641 -7217
17:55:43.703220 283.41 -2324 5532 13276 -2670 -5045 -7205
17:55:43.714372 283.42 -2140 5380 13540 -2279 -4671 -6709
17:55:43.720575 283.43 -1872 5320 13380 -1623 -4109 -6007
17:55:43.738145 283.44 -1868 5284 12924 -1065 -3803 -5265
17:55:43.748816 283.45 -1620 5528 12736 -926 -3671 -4836
17:55:43.750474 283.46 -1512 5564 12352 -872 -3389 -4697
17:55:43.769611 283.47 -1180 5412 12192 -1015 -3055 -4606
17:55:43.781165 283.48 -1184 5104 12132 -1037 -2778 -4474
17:55:43.781353 283.49 -980 4992 12512 -1006 -2572 -4373
17:55:43.788354 283.5 -884 4680 12416 -900 -2542 -4165
17:55:43.803070 283.51 -908 4804 12360 -831 -2552 -3843
17:55:43.813471 283.52 -848 4736 12276 -591 -2341 -3484
17:55:43.817816 283.53 -888 5056 12268 -593 -2268 -3143
17:55:43.832983 283.54 -852 5188 11976 -646 -2275 -2798
17:55:43.843454 283.55 -908 5188 12412 -86 -1663 -2187
17:55:43.855784 283.56 -1028 5172 12368 395 -912 -1531
17:55:43.874578 283.57 -1116 5176 12196 458 -777 -1078
17:55:43.887083 283.58 -1040 5168 12336 577 -504 -722
17:55:43.887482 283.59 -1044 5076 12424 600 -46 -442
17:55:43.900285 283.6 -768 4668 12008 236 -172 -454
17:55:43.909105 283.61 -976 4584 12600 -250 -613 -560
17:55:43.919386 283.62 -1168 4484 13276 -195 -283 -588
17:55:43.930470 283.63 -1176 4528 12868 12 -16 -428
17:55:43.930798 283.64 -1444 4664 13012 -141 5 -294
17:55:43.955266 283.65 -1480 4568 13044 -40 196 -225
17:55:43.963627 283.66 -1464 4436 13264 123 443 80
17:55:43.963819 283.67 -1556 4256 13352 110 470 297
17:55:43.988597 283.68 -1728 4292 13768 258 585 583
17:55:43.998475 283.69 -1724 4160 13824 406 776 610
17:55:43.998680 283.7 -1644 3780 13864 460 963 738
17:55:44.005874 283.71 -1772 3704 13888 405 1076 634
17:55:44.021883 283.72 -1764 3424 14248 -62 410 227
17:55:44.030198 283.73 -1840 3200 14320 -100 319 109
17:55:44.035236 283.74 -1956 3356 14436 -87 334 16
17:55:44.043161 283.75 -2012 3100 14576 31 182 -34
17:55:44.063910 283.76 -2020 3012 14800 119 -76 -96
17:55:44.065636 283.77 -2012 2980 14700 554 41 66
17:55:44.073218 283.78 -1872 3148 14472 729 91 111
17:55:44.089195 283.79 -1828 3064 14316 416 -385 -6
17:55:44.098225 283.8 -1764 3260 14404 175 -715 -340
17:55:44.102957 283.81 -1904 3324 14184 -48 -774 -600
17:55:44.122523 283.82 -1860 3400 14428 -24 -655 -573
17:55:44.131521 283.83 -1876 3428 14384 -6 -645 -536
17:55:44.132767 283.84 -1988 3344 14796 196 -686 -488
17:55:44.140434 283.85 -1684 3232 14488 624 -254 -278
17:55:44.155697 283.86 -1688 3472 14064 515 -410 -202
17:55:44.167382 283.87 -1788 3768 14208 143 -716 -307
17:55:44.170273 283.88 -1696 3524 14084 -6 -766 -486
17:55:44.185421 283.89 -1728 3472 14300 127 -526 -416
17:55:44.200379 283.9 -1652 3536 14172 6 -681 -530
17:55:44.200532 283.91 -1708 3548 14176 -19 -710 -691
17:55:44.219563 283.92 -1488 3400 13992 27 -787 -496
17:55:44.231877 283.93 -1352 3644 13796 207 -611 -317
17:55:44.232260 283.94 -1404 4052 13572 331 -435 -174
17:55:44.255917 283.95 -1380 4104 13276 350 -109 -35
17:55:44.263442 283.96 -1376 4152 13384 325 227 240
17:55:44.263565 283.97 -1524 4368 13456 62 304 44
17:55:44.275367 283.98 -1580 3844 13380 -518 -89 -342
17:55:44.299453 283.99 -1508 3644 13960 -818 -114 -432
17:55:44.299546 284.0 -1580 3528 13792 -709 176 -539
17:55:44.305872 284.01 -1708 3312 14044 -747 -155 -510
17:55:44.323789 284.02 -1836 3388 14492 -428 -98 -507
17:55:44.333663 284.03 -1700 3148 14352 211 305 -302
17:55:44.335245 284.04 -1588 3272 13808 120 60 -246
17:55:44.343234 284.05 -1616 3384 14032 -115 -302 -494
17:55:44.367713 284.06 -1532 3304 13980 -148 -214 -681
17:55:44.367906 284.07 -1624 3460 14044 -298 -170 -793
17:55:44.373344 284.08 -1644 3488 13860 -490 -427 -1069
17:55:44.380446 284.09 -1688 3340 14224 -386 -300 -996
17:55:44.401713 284.1 -1748 3372 14148 -621 -448 -1064
17:55:44.403066 284.11 -1572 3388 13988 -721 -591 -1084
17:55:44.411813 284.12 -1740 3344 14340 -765 -772 -1427
17:55:44.434845 284.13 -1592 3016 14400 -545 -667 -1696
17:55:44.435003 284.14 -1484 3208 14428 -693 -972 -1803
17:55:44.440697 284.15 -1764 3412 14344 -734 -1166 -2029
17:55:44.463210 284.16 -1732 3576 14264 -863 -1289 -2009
17:55:44.471511 284.17 -1760 3724 14400 -1114 -1676 -2089
17:55:44.471670 284.18 -1656 3748 14396 -1016 -1670 -2079
17:55:44.494126 284.19 -1892 3956 14144 -1255 -1955 -2163
17:55:44.502244 284.2 -1568 3768 14656 -746 -1581 -1851
17:55:44.502404 284.21 -1480 3656 14220 -686 -1617 -1914
17:55:44.522312 284.22 -1360 3324 14252 -904 -2191 -2036
17:55:44.533122 284.23 -1292 3204 14376 -1147 -2475 -2416
17:55:44.533393 284.24 -1060 3188 14168 -1460 -2819 -2798
17:55:44.555245 284.25 -1128 3344 13924 -2182 -3221 -3355
17:55:44.567649 284.26 -984 3120 13856 -2304 -3136 -3555
17:55:44.567821 284.27 -1156 3352 14044 -2631 -3181 -3617
17:55:44.575823 284.28 -1176 3552 14376 -2946 -3452 -4002
17:55:44.591426 284.29 -1208 3388 14312 -2885 -3468 -4058
17:55:44.599248 284.3 -1164 3352 14456 -2575 -3112 -3798
17:55:44.605200 284.31 -1080 3784 14264 -2559 -3096 -3748
17:55:44.624637 284.32 -992 3540 14232 -2318 -3161 -3848
17:55:44.632057 284.33 -800 3308 14428 -2009 -2590 -3686
17:55:44.635198 284.34 -544 3416 13592 -2279 -2695 -3699
17:55:44.643483 284.35 -708 3368 13828 -2929 -3129 -3897
17:55:44.662190 284.36 -416 3124 13964 -3253 -3057 -3943
17:55:44.670203 284.37 -312 3132 13620 -3551 -2873 -3926
17:55:44.672824 284.38 -208 3044 13664 -3826 -2907 -4135
17:55:44.688025 284.39 -388 2928 13996 -3806 -2834 -4019
17:55:44.699351 284.4 -484 2964 14268 -3508 -2496 -3684
17:55:44.702958 284.41 -552 2740 14272 -2984 -2090 -3471
17:55:44.710397 284.42 -540 2796 14384 -2481 -1779 -3229
17:55:44.725407 284.43 -304 2328 14436 -2278 -1437 -2959
17:55:44.733112 284.44 -68 2184 14104 -2743 -1968 -3224
17:55:44.740384 284.45 -80 2044 14092 -3377 -2716 -3599
17:55:44.761080 284.46 -84 1872 14424 -3180 -2361 -3471
17:55:44.769025 284.47 -184 1964 14824 -2783 -2274 -3289
17:55:44.770202 284.48 -76 2184 14392 -2504 -1960 -3236
17:55:44.792203 284.49 -188 1928 14292 -2115 -1894 -2989
17:55:44.799722 284.5 -64 1964 14748 -2071 -2170 -2883
17:55:44.800394 284.51 -64 2012 14668 -1797 -2245 -2690
17:55:44.830016 284.52 128 2024 14480 -1103 -2138 -2318
17:55:44.836708 284.53 304 1784 14208 30 -1302 -1690
17:55:44.836885 284.54 516 1880 13864 764 -900 -987
17:55:44.846802 284.55 640 2000 14044 1572 -112 -649
17:55:44.870433 284.56 828 1892 13292 1992 601 -551
17:55:44.870664 284.57 860 1768 13340 1850 595 -527
17:55:44.875649 284.58 820 1928 13492 1677 489 -627
17:55:44.891017 284.59 712 2036 13388 1767 480 -616
17:55:44.900409 284.6 952 1792 13212 2023 735 -387
17:55:44.905192 284.61 628 1660 13468 1703 182 60
17:55:44.913056 284.62 404 1872 13940 1703 -82 80
17:55:44.934890 284.63 312 1660 13896 2333 398 264
17:55:44.935179 284.64 220 1968 14088 2474 584 361
17:55:44.942917 284.65 80 2420 13516 1966 138 -88
17:55:44.960133 284.66 160 2524 14064 1218 -506 -65
17:55:44.969238 284.67 16 2640 14024 1639 195 249
17:55:44.972845 284.68 -196 2804 14376 1985 322 495
17:55:44.991145 284.69 40 2696 14672 2309 669 611
17:55:45.002446 284.7 196 2492 14116 2626 1034 513
17:55:45.002833 284.71 452 2432 13704 2473 967 233
17:55:45.010577 284.72 232 2932 13804 1637 73 23
17:55:45.025507 284.73 372 3216 13952 1708 324 90
17:55:45.037986 284.74 420 3436 13620 1969 573 434
17:55:45.040561 284.75 336 3496 13992 1990 638 658
17:55:45.059047 284.76 224 3548 13952 2060 952 1007
17:55:45.068029 284.77 224 3620 13872 2199 1321 1187
17:55:45.070237 284.78 160 3684 14084 1966 1269 1101
17:55:45.093726 284.79 92 3608 14192 1426 1208 828
17:55:45.102782 284.8 188 3572 13876 556 723 803
17:55:45.103001 284.81 -28 3604 14080 58 381 496
17:55:45.121819 284.82 -444 3492 14728 237 694 309
17:55:45.141396 284.83 -316 3156 15008 149 716 46
17:55:45.141557 284.84 -348 3132 14784 -174 225 94
17:55:45.145598 284.85 -244 3160 14868 25 260 280
17:55:45.156404 284.86 -280 3444 14632 591 773 530
17:55:45.170395 284.87 -32 3224 14520 1034 1028 738
17:55:45.175212 284.88 144 3160 14056 875 956 806
17:55:45.191431 284.89 244 3000 13968 379 397 411
17:55:45.203266 284.9 152 3036 13984 96 194 392
17:55:45.205331 284.91 -60 3152 14308 202 294 435
17:55:45.213339 284.92 -84 2764 14456 612 578 332
17:55:45.230063 284.93 52 2604 14244 672 572 212
17:55:45.237524 284.94 0 2656 13996 256 133 -237
17:55:45.242891 284.95 156 3020 13992 -270 -405 -506
17:55:45.261324 284.96 44 3160 13872 -329 -542 -463
17:55:45.271976 284.97 -52 2796 14616 251 -17 -111
17:55:45.272871 284.98 -200 2996 14292 134 -56 -300
17:55:45.280701 284.99 128 3068 13860 36 -451 -380
17:55:45.307520 285.0 -36 3060 14020 422 -91 -104
17:55:45.307663 285.01 -24 3428 13952 572 111 143
17:55:45.310458 285.02 88 3296 13932 830 253 282
17:55:45.325343 285.03 260 3072 13736 1378 786 555
17:55:45.340015 285.04 64 3100 13728 1220 677 681
17:55:45.340452 285.05 200 3360 13656 845 400 416
17:55:45.360631 285.06 196 3308 13484 375 -73 356
17:55:45.372947 285.07 -20 3276 14116 229 -117 176
17:55:45.373088 285.08 -148 3396 14260 309 -63 31
17:55:45.386169 285.09 -116 3284 14412 975 503 276
17:55:45.409444 285.1 36 3148 14212 1596 1044 715
17:55:45.409580 285.11 116 3256 14200 1777 969 806
17:55:45.416426 285.12 228 3308 14188 1766 933 727
17:55:45.442204 285.13 236 3384 13688 1730 906 792
17:55:45.442352 285.14 184 3680 13788 1412 641 494
17:55:45.445624 285.15 348 3404 13720 1154 579 437
17:55:45.467659 285.16 56 3612 14164 994 498 491
17:55:45.475407 285.17 -144 3960 14200 906 612 359
17:55:45.475547 285.18 -164 3832 14216 982 707 126
17:55:45.482876 285.19 96 3604 14104 814 641 180
17:55:45.507589 285.2 -120 3816 14040 491 204 145
17:55:45.507720 285.21 -264 3852 14512 600 78 283
17:55:45.513140 285.22 -156 3872 14512 1369 793 650
17:55:45.532418 285.23 -168 3840 14284 2053 1406 964
17:55:45.540559 285.24 32 3648 13844 1871 1140 885
17:55:45.543012 285.25 8 3908 13912 1362 717 702
17:55:45.552181 285.26 -88 4420 13764 998 543 783
17:55:45.574814 285.27 56 4604 13900 883 755 854
17:55:45.574916 285.28 4 4064 13888 876 828 850
17:55:45.580383 285.29 128 3752 13828 787 973 604
17:55:45.599929 285.3 152 3632 13632 328 448 28
17:55:45.609855 285.31 44 3752 14052 261 241 60
17:55:45.610388 285.32 -124 3924 14312 737 569 357
17:55:45.625421 285.33 -236 4164 14168 1243 983 546
17:55:45.641286 285.34 -244 4116 13980 1477 1128 712
17:55:45.641589 285.35 -180 4168 14232 1363 986 821
17:55:45.660006 285.36 -256 4148 14056 1364 996 794
17:55:45.673201 285.37 -196 4256 13828 1240 1010 606
17:55:45.673362 285.38 -160 3988 13764 1118 997 511
17:55:45.697041 285.39 -180 4076 13812 554 374 223
17:55:45.704640 285.4 -232 3992 14144 461 80 249
17:55:45.704738 285.41 -168 4192 14008 820 548 449
17:55:45.715998 285.42 -196 4396 13888 757 426 470
17:55:45.738366 285.43 -228 4416 13828 771 564 313
17:55:45.738498 285.44 -200 3896 14096 941 462 356
17:55:45.745197 285.45 -312 4388 14196 1219 679 642
17:55:45.757753 285.46 -292 4436 13752 1893 1267 570
17:55:45.775858 285.47 -256 4296 13680 2089 1545 780
17:55:45.775947 285.48 -212 4400 13564 1295 856 375
17:55:45.792555 285.49 -384 4220 13724 842 420 253
17:55:45.807432 285.5 -412 4436 14040 1170 1044 339
17:55:45.807555 285.51 -388 4500 13776 1101 974 198
17:55:45.813278 285.52 -396 4464 13828 774 690 66
17:55:45.827863 285.53 -600 4712 14248 938 696 176
17:55:45.841000 285.54 -556 4740 14140 1452 1295 279
17:55:45.842902 285.55 -456 4832 13700 1433 1193 403
17:55:45.863085 285.56 -340 4580 13960 1743 1525 661
17:55:45.872958 285.57 -236 4476 14016 1922 1625 922
17:55:45.873043 285.58 -480 4792 13872 2072 1808 887
17:55:45.898861 285.59 -364 5120 13356 1317 1202 423
17:55:45.907171 285.6 -236 4592 13400 696 360 213
17:55:45.907427 285.61 -492 4632 14024 563 239 354
17:55:45.930835 285.62 -516 4888 13880 965 711 361
17:55:45.941815 285.63 -364 4768 13668 957 580 238
17:55:45.942076 285.64 -468 4676 13600 983 576 352
17:55:45.948139 285.65 -376 4888 13668 904 523 509
17:55:45.961114 285.66 -396 4996 13552 970 500 535
17:55:45.973714 285.67 -400 4776 13652 1166 765 569
17:55:45.978059 285.68 -320 4888 13444 1248 864 670
17:55:45.985640 285.69 -292 4768 13416 1175 924 742
17:55:46.007606 285.7 -472 5040 13376 752 459 641
17:55:46.007879 285.71 -464 5128 13660 401 84 171
17:55:46.015923 285.72 -568 4976 13780 618 400 379
17:55:46.032264 285.73 -660 5208 13564 859 713 464
17:55:46.041584 285.74 -440 5068 13744 673 470 206
17:55:46.045367 285.75 -596 5076 13508 467 346 180
17:55:46.064052 285.76 -640 5036 13848 683 594 241
17:55:46.071936 285.77 -512 5240 13660 757 789 244
17:55:46.075250 285.78 -484 5176 13416 544 543 166
17:55:46.083150 285.79 -432 5144 13472 367 424 88
17:55:46.098334 285.8 -504 5028 13492 235 259 141
17:55:46.110041 285.81 -452 5016 13708 585 614 124
17:55:46.112671 285.82 -556 4868 13860 850 676 411
17:55:46.127776 285.83 -644 5016 13964 1065 716 398
17:55:46.142699 285.84 -624 5272 13992 1187 713 327
17:55:46.142923 285.85 -520 5304 13596 1153 583 278
17:55:46.163674 285.86 -468 5388 13504 905 338 253
17:55:46.173345 285.87 -568 5724 13572 877 257 219
17:55:46.173527 285.88 -568 5736 13300 1066 694 138
17:55:46.187980 285.89 -360 5732 12652 413 68 82
17:55:46.205861 285.9 -280 5656 12832 57 -51 -19
17:55:46.205995 285.91 -556 6076 13068 -94 100 223
17:55:46.217978 285.92 -524 6512 12872 -320 348 86
17:55:46.229845 285.93 -268 6068 12788 -497 519 132
17:55:46.243265 285.94 -376 6040 12688 -971 388 271
17:55:46.247763 285.95 -340 5908 12932 -1153 215 462
17:55:46.261606 285.96 -404 5972 13036 -1070 557 986
17:55:46.279570 285.97 -588 5848 12896 -1252 483 979
17:55:46.279671 285.98 -404 5540 13044 -1703 178 702
17:55:46.285414 285.99 -592 5548 12928 -2225 -187 605
17:55:46.309399 286.0 -652 5496 13580 -2125 -170 427
17:55:46.309770 286.01 -800 5560 13540 -1714 234 686
17:55:46.315237 286.02 -1040 5780 13672 -1286 301 968
17:55:46.333041 286.03 -1156 6000 13916 -888 344 1213
17:55:46.342760 286.04 -784 6088 13320 -778 583 1356
17:55:46.345504 286.05 -688 6348 13324 -802 613 1777
17:55:46.368209 286.06 -760 6492 13396 -460 1305 2167
17:55:46.377891 286.07 -532 6180 13272 264 2440 2453
17:55:46.377991 286.08 -592 6012 13024 357 2673 2632
17:55:46.397662 286.09 -620 6184 13160 -225 2081 2409
17:55:46.411664 286.1 -840 5956 13648 -483 1541 2216
17:55:46.411795 286.11 -824 6256 13296 -46 2107 2210
17:55:46.430021 286.12 -732 6180 13000 -69 2051 2354
17:55:46.444265 286.13 -856 6564 13280 -553 1801 2558
17:55:46.444480 286.14 -820 6592 13020 -497 2210 2453
17:55:46.451082 286.15 -636 5968 12968 -349 2746 2690
17:55:46.457969 286.16 -908 6044 13292 -535 2862 2790
17:55:46.477170 286.17 -1156 5792 13476 -822 2495 2482
17:55:46.480331 286.18 -1232 5560 13708 -706 2610 2445
17:55:46.488095 286.19 -1304 5616 13716 -349 2657 2461
17:55:46.508803 286.2 -1536 5788 13700 -658 1918 2065
17:55:46.510876 286.21 -1480 5772 13988 -462 1731 2430
17:55:46.518162 286.22 -1588 6332 13608 571 2718 2569
17:55:46.537074 286.23 -1236 6036 13112 1347 3115 2403
17:55:46.545100 286.24 -800 4192 11968 1801 5588 2656
17:55:46.547749 286.25 -1952 6696 13048 -209 971 1595
17:55:46.565841 286.26 -2360 5944 13584 -936 -13 3060
17:55:46.578633 286.27 -1808 5848 12952 1306 3306 3792
17:55:46.578820 286.28 -2116 5676 12916 1546 4068 4183
17:55:46.585583 286.29 -1932 5292 13360 409 4035 4367
17:55:46.600353 286.3 -1800 4944 14256 331 4476 4493
17:55:46.613021 286.31 -2932 5032 14140 -204 4380 3487
17:55:46.615208 286.32 -3160 4756 15220 -256 3625 2744
17:55:46.630831 286.33 -3240 5452 15544 2043 5621 2300
17:55:46.644554 286.34 -3188 5548 15648 3753 7501 2688
17:55:46.645515 286.35 -2520 4332 16148 1385 4326 3553
17:55:46.666670 286.36 -2232 3524 14900 -2354 -274 3184
17:55:46.675373 286.37 -2592 4200 14876 -2159 102 2211
17:55:46.675653 286.38 -2752 5300 15436 -199 1787 1849
17:55:46.703361 286.39 -2516 4900 14848 -240 928 535
17:55:46.711944 286.4 -2064 4700 14832 -1474 22 1384
17:55:46.712192 286.41 -2304 5200 14260 -1439 -44 1549
17:55:46.720555 286.42 -2332 4800 14752 -1887 -622 1101
17:55:46.737550 286.43 -2464 4820 14588 -1883 -689 1422
17:55:46.746560 286.44 -2268 4916 14644 -1152 -132 1658
17:55:46.750204 286.45 -2324 4840 14276 -1234 -746 1677
17:55:46.767350 286.46 -2284 5116 14244 -1302 -1270 1870
17:55:46.776249 286.47 -2148 5224 14260 -657 -884 2309
17:55:46.780386 286.48 -2348 5600 13820 -282 -620 2559
17:55:46.788259 286.49 -2112 5536 13468 -74 -370 2759
17:55:46.812130 286.5 -2048 5724 13600 -41 7 3012
17:55:46.812491 286.51 -2240 5928 13432 -425 -1 2905
17:55:46.818536 286.52 -1964 5920 13112 -849 -187 2613
17:55:46.835413 286.53 -2640 7680 5892 13622 -12914 -4075
17:55:46.843448 286.54 -384 3032 10460 16793 -19264 339
17:55:46.847827 286.55 -472 5776 12564 20334 -22183 4140
17:55:46.870680 286.56 -576 6528 13512 16152 -18775 6123
17:55:46.880487 286.57 260 6256 14144 14736 -15912 6255
17:55:46.880644 286.58 648 9156 15992 4779 -9427 5322
17:55:46.898850 286.59 -804 4592 12640 -5428 1142 5297
17:55:46.917678 286.6 -592 6504 13748 -8714 7489 5848
17:55:46.917775 286.61 -560 6480 12792 -7770 8106 6273
17:55:46.931556 286.62 364 6020 11244 -4015 3155 7598
17:55:46.950983 286.63 380 6584 12228 -3017 1424 7035
17:55:46.951083 286.64 656 6464 11916 -2393 705 6170
17:55:46.953421 286.65 -5532 4552 13996 5640 -9521 -4337
17:55:46.966565 286.66 1764 5492 14824 -692 -10839 -7346
17:55:46.982255 286.67 160 5336 15524 2811 -13338 317
17:55:46.982958 286.68 -584 7672 16220 7206 -3588 2116
17:55:46.990466 286.69 -236 6740 15168 7568 1113 1471
17:55:47.012755 286.7 580 6348 13908 3627 879 1961
17:55:47.022691 286.71 764 6772 13532 1290 2163 2145
17:55:47.047223 286.72 1436 6716 13644 -579 5562 1697
17:55:47.047339 286.73 1856 5428 12652 -3067 6841 2779
17:55:47.047424 286.74 1676 4732 12448 -4549 6751 5007
17:55:47.050180 286.75 1788 4648 12496 -4199 7343 5798
17:55:47.068483 286.76 1476 5416 10960 -1054 2178 4215
17:55:47.081648 286.77 264 6520 10300 1730 -2688 1207
17:55:47.081821 286.78 1576 6528 12080 2841 -3732 295
17:55:47.088246 286.79 1932 5344 11588 5580 -4435 1387
17:55:47.103206 286.8 1980 5872 12204 5010 -6020 2751
17:55:47.116667 286.81 1412 5804 10376 6070 -9428 2529
17:55:47.117836 286.82 2516 6760 11260 8057 -8981 1269
17:55:47.133603 286.83 3124 7648 11988 7972 -7942 -911
17:55:47.144740 286.84 3232 8012 11420 5631 -4865 -2155
17:55:47.147806 286.85 2592 7356 11700 2682 -822 -1576
17:55:47.173155 286.86 2236 6820 11736 -125 1928 650
17:55:47.181759 286.87 1964 7244 12572 -2308 3817 3158
17:55:47.181928 286.88 1640 8588 13516 -5035 6376 2268
17:55:47.204376 286.89 1360 9468 13980 -7458 8839 -833
17:55:47.213475 286.9 980 9168 14296 -9846 9560 -4176
17:55:47.215181 286.91 1152 8236 14116 -9979 10780 -4286
17:55:47.223657 286.92 872 6996 14292 -7301 10913 -2264
17:55:47.250532 286.93 1204 7572 14160 -6891 10852 -2859
17:55:47.250684 286.94 156 5576 13756 -3539 8934 -1318
17:55:47.252697 286.95 372 5496 13500 -1619 6555 -237
17:55:47.268562 286.96 664 5384 13600 -693 4765 573
17:55:47.280369 286.97 1852 5444 13228 -1253 4221 2216
17:55:47.282807 286.98 1220 6308 13196 -2860 3203 1802
17:55:47.290476 286.99 1060 6936 14008 -5048 3511 429
17:55:47.312337 287.0 1208 7832 14080 -6152 4221 -1784
17:55:47.312679 287.01 1308 4104 17592 -10676 6740 -7878
17:55:47.320339 287.02 1952 7136 16616 -11384 8506 -15896
17:55:47.334531 287.03 1096 7632 16884 -8398 8670 -18174
17:55:47.346805 287.04 264 4312 14524 -5495 13428 -18137
17:55:47.367947 287.05 -1204 1504 12716 -3937 10356 -12568
17:55:47.381529 287.06 -1372 2100 12280 -2109 8667 -11235
17:55:47.382458 287.07 -756 1972 11832 128 6783 -5383
17:55:47.384319 287.08 -1308 3188 12408 1733 3850 2310
17:55:47.388069 287.09 -2052 4704 12900 2891 1786 7026
17:55:47.402715 287.1 -1916 5488 14868 2914 1294 7419
17:55:47.415933 287.11 -1220 5720 14220 3238 2337 5622
17:55:47.417682 287.12 -1452 5364 13816 3561 2880 4909
17:55:47.434150 287.13 -1520 5992 13012 3514 3206 4797
17:55:47.446885 287.14 -840 5240 13268 2380 4433 4544
17:55:47.447668 287.15 -1228 4444 13084 2596 3906 4399
17:55:47.469575 287.16 -1464 5116 13372 2815 3342 3613
17:55:47.480181 287.17 -1488 5172 13512 3005 3141 2418
17:55:47.480386 287.18 -1684 6004 13984 2852 3327 142
17:55:47.492942 287.19 -1436 6168 14140 2879 3716 -780
17:55:47.514496 287.2 -1748 6212 14244 3243 3938 -1440
17:55:47.514689 287.21 -1556 6352 14160 3206 4394 -2600
17:55:47.522784 287.22 -1620 5908 13880 2967 4933 -4049
17:55:47.538702 287.23 -1080 5568 13760 2792 5280 -3724
17:55:47.547281 287.24 -1160 5140 13532 2768 5535 -1753
17:55:47.552712 287.25 -1184 4412 13088 3247 4762 893
17:55:47.568739 287.26 -1500 4492 12824 3960 3865 4584
17:55:47.582551 287.27 -1840 5176 13000 3919 3739 6091
17:55:47.583019 287.28 -1936 5280 12800 3323 4284 6663
17:55:47.590435 287.29 -2064 5264 13284 3005 4922 7375
17:55:47.602417 287.3 -2320 5568 13340 3020 5001 7323
17:55:47.615453 287.31 -2304 6040 13756 3266 5139 6624
17:55:47.620673 287.32 -2136 6128 13664 3180 5163 4108
17:55:47.637331 287.33 -1856 6296 13500 2257 5512 -1785
17:55:47.647067 287.34 -1688 5736 12940 1276 5684 -6286
17:55:47.650542 287.35 -1820 4660 12668 1502 4657 -5906
17:55:47.658039 287.36 -1660 4716 12608 2409 3722 -2664
17:55:47.675613 287.37 -1912 4984 12604 2820 3068 -382
17:55:47.685764 287.38 -2420 5152 12592 2827 2794 1097
17:55:47.687997 287.39 -2460 5220 12584 2937 2425 2995
17:55:47.704464 287.4 -2368 5520 12560 3044 2354 4370
17:55:47.718601 287.41 -2356 5692 12604 2420 2849 5774
17:55:47.718776 287.42 -3024 5548 12588 2238 3117 7199
17:55:47.735939 287.43 -3048 5868 12640 2257 3330 7363
17:55:47.750424 287.44 -3268 5968 12740 2174 3414 6529
17:55:47.750580 287.45 -2380 6096 12580 2276 3218 5185
17:55:47.772118 287.46 -2504 5788 12280 2246 2625 2924
17:55:47.780654 287.47 -2288 6152 12488 1722 2230 -1091
17:55:47.780766 287.48 -2428 6584 12628 657 2521 -3701
17:55:47.793488 287.49 -3124 6368 12548 489 2739 -3352
17:55:47.809068 287.5 -3180 6364 12600 1069 2497 -1771
17:55:47.817983 287.51 -3032 6832 12800 1012 2638 -1563
17:55:47.823012 287.52 -3408 6672 12576 567 2984 -2319
17:55:47.841147 287.53 -3512 6472 12416 251 3371 -2808
17:55:47.850065 287.54 -3800 6596 12396 43 3810 -2883
17:55:47.852707 287.55 -3904 6704 12492 -215 4075 -2850
17:55:47.860719 287.56 -4032 6736 12532 -155 4505 -2237
17:55:47.883847 287.57 -4192 6784 12448 62 4361 -1561
17:55:47.884015 287.58 -3720 6676 12616 504 4074 -421
17:55:47.890542 287.59 -3868 6908 12592 734 3930 154
17:55:47.905454 287.6 -4012 6812 12352 810 3327 -64
17:55:47.918528 287.61 -3488 6608 12324 1220 2370 264
17:55:47.920312 287.62 -3524 6744 12304 1523 1591 424
17:55:47.928281 287.63 -3760 7296 12508 1472 1393 -498
17:55:47.942940 287.64 -4056 7532 12352 1319 1442 -1487
17:55:47.951117 287.65 -3992 7344 12388 1334 1543 -1933
17:55:47.959556 287.66 -4260 7316 12268 1628 1466 -2072
17:55:47.974308 287.67 -4200 7468 12128 1634 1578 -2682
17:55:47.982703 287.68 -4376 7316 11944 1578 1555 -3766
17:55:47.987923 287.69 -4272 7072 11892 1658 1480 -4513
17:55:48.008835 287.7 -4272 6968 11616 1447 1411 -4979
17:55:48.016147 287.71 -3772 6848 11568 1009 1428 -4525
17:55:48.017849 287.72 -4184 7004 11464 924 1304 -3859
17:55:48.036952 287.73 -4628 7080 11568 805 1067 -3404
17:55:48.053977 287.74 -4692 7192 11532 626 990 -3422
17:55:48.054349 287.75 -5472 6936 11376 865 566 -3898
17:55:48.063263 287.76 -5480 7580 11488 1013 442 -4853
17:55:48.091027 287.77 -5300 7740 11508 707 667 -5384
17:55:48.091167 287.78 -5200 7240 11224 730 621 -5350
17:55:48.093111 287.79 -5404 7232 11152 878 346 -5329
17:55:48.107505 287.8 -5656 7256 11152 689 337 -5126
17:55:48.117571 287.81 -5600 7344 11184 579 341 -4677
17:55:48.122827 287.82 -5600 7012 11076 567 74 -3677
17:55:48.132220 287.83 -5780 6828 10988 696 -273 -2853
17:55:48.159483 287.84 -6016 7036 11056 529 -431 -2484
17:55:48.159691 287.85 -6384 7148 10996 311 -481 -2465
17:55:48.160419 287.86 -6192 7072 11148 -8 -492 -2585
17:55:48.171586 287.87 -6356 6924 10900 -308 -410 -1845
17:55:48.183858 287.88 -6348 7168 11120 -493 -389 -1249
17:55:48.197925 287.89 -6272 7560 11164 -801 -213 -1009
17:55:48.206775 287.9 -6552 7680 11336 -868 -236 -1198
17:55:48.212732 287.91 -6448 8052 11648 -489 -415 -1165
17:55:48.225221 287.92 -6448 8292 11784 -368 -413 -1508
17:55:48.236500 287.93 -6532 8324 11556 -287 -381 -2234
17:55:48.243171 287.94 -6508 8116 11680 -225 -270 -2677
17:55:48.258168 287.95 -6896 8072 11540 21 -174 -2905
17:55:48.266127 287.96 -6968 7788 11452 -63 89 -3386
17:55:48.272958 287.97 -6872 7692 11252 -336 319 -3727
17:55:48.288834 287.98 -6960 7276 11144 -477 491 -3414
17:55:48.303641 287.99 -7056 7056 11128 -596 540 -2889
17:55:48.303807 288.0 -6960 6944 10996 -880 640 -2537
17:55:48.310651 288.01 -7516 7012 11056 -984 604 -2212
17:55:48.323001 288.02 -7760 7140 11216 -878 513 -2199
17:55:48.335983 288.03 -7532 7316 11224 -1112 693 -2591
17:55:48.340381 288.04 -7540 7168 11328 -1341 882 -2494
17:55:48.348407 288.05 -7492 6908 11056 -1441 875 -2374
17:55:48.374322 288.06 -7764 6704 11156 -1799 971 -2044
17:55:48.374480 288.07 -7780 6704 11080 -1895 1022 -1736
17:55:48.377934 288.08 -7808 6760 11028 -2167 1066 -1550
17:55:48.396427 288.09 -7636 6684 10960 -2428 1061 -1105
17:55:48.407704 288.1 -7852 6440 10928 -2549 847 -159
17:55:48.407879 288.11 -8132 6660 11096 -2478 597 607
17:55:48.429556 288.12 -8088 6936 11272 -2730 803 819
17:55:48.438772 288.13 -7988 7208 11476 -2997 1102 831
17:55:48.438944 288.14 -7796 7268 11776 -2924 1259 958
17:55:48.461587 288.15 -7440 7484 11848 -2833 1376 753
17:55:48.471653 288.16 -6976 7464 11812 -2769 1484 247
17:55:48.471849 288.17 -6724 7440 11764 -2668 1629 -539
17:55:48.491406 288.18 -6652 7428 11756 -2597 1808 -1524
17:55:48.502605 288.19 -6180 7180 11740 -2680 2287 -2152
17:55:48.502816 288.2 -6268 6976 11368 -2725 2662 -2617
17:55:48.512958 288.21 -6232 6620 11292 -2596 2568 -2689
17:55:48.527150 288.22 -6092 6380 11120 -2107 2063 -1822
17:55:48.535565 288.23 -6092 6584 11104 -1569 1711 -792
17:55:48.542865 288.24 -6268 6760 11140 -1162 1531 -449
17:55:48.559633 288.25 -6308 6688 11220 -931 1432 -953
17:55:48.568286 288.26 -6028 6756 11120 -703 1441 -1373
17:55:48.572872 288.27 -5764 6512 11180 -399 1453 -1197
17:55:48.580480 288.28 -5744 6404 11168 -31 1357 -874
17:55:48.607724 288.29 -6036 6488 11096 154 1327 -1347
17:55:48.607903 288.3 -6212 6292 11132 318 1201 -1987
17:55:48.610205 288.31 -6380 6400 11216 523 1187 -2338
17:55:48.625311 288.32 -6648 6312 11444 595 1375 -2542
17:55:48.639435 288.33 -6852 6248 11268 756 1502 -2655
17:55:48.640373 288.34 -6928 6320 11332 914 1590 -2962
17:55:48.648181 288.35 -7008 6324 11364 909 1698 -3491
17:55:48.670376 288.36 -7164 6080 11240 1294 1421 -3662
17:55:48.670489 288.37 -7044 6364 11308 1600 1193 -3781
17:55:48.678134 288.38 -7276 6324 11448 1501 1234 -3822
17:55:48.695670 288.39 -7656 6364 11552 1601 1236 -3887
17:55:48.704005 288.4 -7768 6528 11432 1559 1355 -4088
17:55:48.707842 288.41 -7992 6424 11496 1457 1539 -4340
17:55:48.729168 288.42 -8176 6296 11356 1550 1562 -4623
17:55:48.739994 288.43 -8300 6624 11476 1518 1761 -4993
17:55:48.740144 288.44 -8040 6612 11676 1358 2109 -5245
17:55:48.762189 288.45 -8060 6236 11556 1300 2162 -5278
17:55:48.770330 288.46 -8224 6204 11640 1623 1873 -4455
17:55:48.770514 288.47 -8336 6468 11800 1899 1743 -4269
17:55:48.782970 288.48 -8404 6804 11836 1617 2054 -4767
17:55:48.805287 288.49 -8204 6888 12044 1302 2331 -5146
17:55:48.805639 288.5 -8172 7032 12140 1062 2458 -4989
17:55:48.813015 288.51 -8100 7268 12048 876 2460 -4680
17:55:48.826404 288.52 -8372 7288 12220 911 2340 -4464
17:55:48.837022 288.53 -8672 7488 12112 934 2137 -4794
17:55:48.842799 288.54 -8516 7496 12188 702 2204 -5241
17:55:48.850497 288.55 -8528 7480 11936 435 2177 -5129
17:55:48.872398 288.56 -8380 7404 11828 305 1953 -4393
17:55:48.872842 288.57 -8548 7540 11776 194 1738 -3334
17:55:48.880797 288.58 -8472 7520 11560 125 1445 -2111
17:55:48.903352 288.59 -8680 7668 11344 90 1128 -1178
17:55:48.912096 288.6 -8720 7800 11300 -128 1000 -718
17:55:48.912243 288.61 -8720 7608 11140 -205 584 -162
17:55:48.931111 288.62 -8944 7556 10724 84 -16 648
17:55:48.941846 288.63 -8960 7792 10836 231 -407 938
17:55:48.942027 288.64 -9052 7788 10712 411 -793 444
17:55:48.947744 288.65 -9272 7368 10400 433 -898 -102
17:55:48.963479 288.66 -10012 7484 10364 787 -1095 -762
17:55:48.974861 288.67 -9940 7044 10224 760 -814 -730
17:55:48.977848 288.68 -9772 6648 9876 725 -702 -595
17:55:48.992871 288.69 -9812 6356 9680 659 -697 -553
17:55:49.004322 288.7 -9748 6244 9580 549 -716 -551
17:55:49.007958 288.71 -9976 6060 9592 319 -592 -431
17:55:49.030553 288.72 -10108 5888 9336 26 -282 -378
17:55:49.039477 288.73 -10496 5820 9272 -268 170 -321
17:55:49.039699 288.74 -10600 5696 9380 -594 734 -471
17:55:49.065027 288.75 -10584 5448 9252 -861 1082 -707
17:55:49.075218 288.76 -10752 4660 8844 -756 766 -722
17:55:49.075370 288.77 -10788 4600 8732 -444 116 -632
17:55:49.082911 288.78 -10564 4684 9000 -532 -226 -827
17:55:49.106829 288.79 -10740 4748 9156 -667 -352 -1141
17:55:49.107059 288.8 -10508 4772 9336 -812 -504 -1402
17:55:49.112836 288.81 -10240 4812 9548 -978 -478 -1036
17:55:49.129179 288.82 -10096 4752 9432 -1221 -401 -190
17:55:49.141332 288.83 -10452 4640 9436 -1220 -438 99
17:55:49.142809 288.84 -10392 4532 9472 -1249 -420 -99
17:55:49.150405 288.85 -10240 4504 9408 -1396 -408 -434
17:55:49.174265 288.86 -9904 4116 9304 -1685 -417 -476
17:55:49.174385 288.87 -9500 3684 9480 -1809 -804 96
17:55:49.180683 288.88 -9700 3420 9640 -1857 -1180 663
17:55:49.200008 288.89 -10024 3272 9848 -2043 -1394 499
17:55:49.213303 288.9 -10308 3176 9904 -2558 -1345 -671
17:55:49.213458 288.91 -10172 3432 10228 -3108 -1221 -1716
17:55:49.219010 288.92 -10048 3944 10688 -3391 -1108 -2360
17:55:49.243849 288.93 -10184 4784 11180 -3315 -1036 -2709
17:55:49.243981 288.94 -10316 5568 11700 -2917 -799 -3318
17:55:49.247882 288.95 -10004 6192 12292 -2695 -241 -3802
17:55:49.262919 288.96 -10012 6292 12288 -2624 469 -4133
17:55:49.276121 288.97 -9712 5628 11704 -2522 1125 -3770
17:55:49.277943 288.98 -9612 4956 11272 -2358 1623 -3167
17:55:49.294288 288.99 -9612 3960 10532 -2466 1437 -2226
17:55:49.307824 289.0 -9284 3704 10288 -2415 1168 -1398
17:55:49.308020 289.01 -8896 3480 10372 -2703 1010 -673
17:55:49.331858 289.02 -9192 3536 10332 -2930 820 -629
17:55:49.340233 289.03 -9040 3792 10688 -3165 765 -817
17:55:49.340426 289.04 -8556 4204 11040 -3551 969 -628
17:55:49.366907 289.05 -8048 4588 11512 -3694 1124 -205
17:55:49.376052 289.06 -7604 4584 11892 -3728 1109 169
17:55:49.376201 289.07 -7468 4720 12200 -3683 1117 454
17:55:49.382954 289.08 -7332 4844 12640 -3494 1133 624
17:55:49.399364 289.09 -6756 4628 13024 -3292 1002 1278
17:55:49.408875 289.1 -6636 4800 13248 -2668 673 1821
17:55:49.412661 289.11 -6524 5160 13720 -2198 672 1642
17:55:49.428699 289.12 -6632 5248 13900 -1934 960 649
17:55:49.443583 289.13 -6532 4980 14108 -1438 1289 -354
17:55:49.443806 289.14 -6220 4940 14152 -795 1545 -1218
17:55:49.450280 289.15 -6036 4724 13976 -325 1965 -2105
17:55:49.462045 289.16 -6040 4160 13544 37 2441 -2796
17:55:49.477589 289.17 -6220 3588 13176 590 2569 -3323
17:55:49.480376 289.18 -6528 3112 12800 1055 2763 -4038
17:55:49.498495 289.19 -6452 2948 12552 1185 3205 -4962
17:55:49.506488 289.2 -6368 2320 12008 1104 3589 -5369
17:55:49.510293 289.21 -6312 1896 11684 1072 3748 -5362
17:55:49.518063 289.22 -6548 1728 11392 1227 3577 -4430
17:55:49.532923 289.23 -6960 1488 11328 1430 3242 -2832
17:55:49.540440 289.24 -7104 1488 11108 1657 2901 -1842
17:55:49.547841 289.25 -7060 1520 11024 1548 2826 -1782
17:55:49.567786 289.26 -7384 1232 10920 1352 2915 -2078
17:55:49.576103 289.27 -7696 976 10492 1642 2495 -2494
17:55:49.577939 289.28 -7768 1116 10268 1666 2543 -2504
17:55:49.595043 289.29 -7404 1196 10036 1233 2946 -3214
17:55:49.609012 289.3 -7600 1232 9924 718 3167 -4853
17:55:49.609355 289.31 -8048 1280 9792 415 3424 -6686
17:55:49.623211 289.32 -8496 1548 9944 240 3683 -7927
17:55:49.643934 289.33 -8436 1584 9896 336 3803 -8054
17:55:49.644124 289.34 -8176 1488 9744 532 3884 -7321
17:55:49.653416 289.35 -8052 1516 9772 727 3917 -6250
17:55:49.677326 289.36 -8560 1472 9752 843 3982 -5380
17:55:49.678408 289.37 -9124 1624 9780 933 4030 -5535
17:55:49.683243 289.38 -9008 1776 9820 887 4208 -6401
17:55:49.698317 289.39 -9136 1564 9732 623 4399 -6666
17:55:49.709556 289.4 -9376 1836 9672 836 4369 -6393
17:55:49.712880 289.41 -9500 1864 9712 1051 4310 -6206
17:55:49.720444 289.42 -9756 1692 9500 1391 4105 -6614
17:55:49.743391 289.43 -9840 1292 9420 1636 3880 -7418
17:55:49.743561 289.44 -9844 1020 9080 1614 3778 -8076
17:55:49.750422 289.45 -9848 872 9164 1485 3775 -8324
17:55:49.764852 289.46 -9772 1112 9288 1323 3778 -8461
17:55:49.776872 289.47 -10268 1184 9736 1343 3787 -8659
17:55:49.780397 289.48 -10784 1608 9796 1679 3832 -9219
17:55:49.797657 289.49 -10928 2268 10340 1956 4351 -10137
17:55:49.809945 289.5 -11256 2696 10520 1996 5092 -11209
17:55:49.810290 289.51 -11460 2424 10456 1834 5951 -11855
17:55:49.818024 289.52 -11768 2024 10200 1889 6520 -12252
17:55:49.842742 289.53 -12272 1716 10088 1763 6933 -12506
17:55:49.843487 289.54 -12600 1016 9624 1452 7003 -12708
17:55:49.870570 289.55 -12676 520 9248 1190 6718 -12419
17:55:49.878929 289.56 -12832 272 8956 1133 6131 -11967
17:55:49.879084 289.57 -13044 420 8608 1061 5550 -11440
17:55:49.879204 289.58 -13592 1084 8772 887 5330 -10901
17:55:49.902414 289.59 -13772 1172 8716 290 5710 -10704
17:55:49.911274 289.6 -13884 332 8344 -332 5725 -10174
17:55:49.911504 289.61 -13356 -500 7992 -742 5121 -8945
17:55:49.932239 289.62 -13260 -872 8148 -1414 4161 -7111
17:55:49.945203 289.63 -13524 -832 8648 -2216 3031 -4723
17:55:49.945423 289.64 -14176 -348 9076 -2883 2114 -2803
17:55:49.953045 289.65 -14812 300 9640 -3274 1618 -1226
17:55:49.967103 289.66 -14992 1504 10324 -3204 1383 -169
17:55:49.976900 289.67 -14736 2532 10920 -3125 1791 -792
17:55:49.983046 289.68 -15008 3284 11360 -2809 2550 -2245
17:55:50.002543 289.69 -14932 3784 11612 -2317 3620 -4157
17:55:50.011634 289.7 -14920 3656 11468 -1736 4710 -5901
17:55:50.012802 289.71 -14908 3572 11308 -648 5395 -7199
17:55:50.020367 289.72 -14816 3328 10800 301 5976 -8515
17:55:50.036826 289.73 -14196 2300 10280 593 6724 -9424
17:55:50.045512 289.74 -14068 1008 9448 660 6847 -9181
17:55:50.050426 289.75 -14100 148 8832 916 6242 -8391
17:55:50.065596 289.76 -14204 8 8700 1089 5403 -6466
17:55:50.081008 289.77 -14592 180 8516 1027 4881 -4979
17:55:50.081364 289.78 -15188 268 8608 952 4709 -4359
17:55:50.097376 289.79 -15720 432 8752 1048 4765 -4632
17:55:50.111190 289.8 -15588 276 8764 950 5068 -4933
17:55:50.111453 289.81 -15260 148 8820 1115 5212 -4468
17:55:50.134135 289.82 -14964 -128 8408 1294 5171 -3919
17:55:50.143475 289.83 -15140 -632 8172 1525 4954 -3621
17:55:50.143696 289.84 -15256 -1080 7964 1702 4662 -3970
17:55:50.155852 289.85 -15112 -1276 7836 1747 4369 -4501
17:55:50.170961 289.86 -15040 -1652 7596 1571 4121 -4419
17:55:50.179952 289.87 -14748 -2216 7344 1424 3722 -3643
17:55:50.185265 289.88 -14428 -2736 6800 1207 3112 -2715
17:55:50.204351 289.89 -14288 -2992 6780 1036 2381 -1366
17:55:50.216508 289.9 -14268 -2976 7032 1093 1747 -518
17:55:50.216665 289.91 -14340 -2592 7288 1039 1394 -174
17:55:50.232843 289.92 -14088 -2616 7504 863 1366 273
17:55:50.247993 289.93 -14208 -2456 7516 769 1361 471
17:55:50.248142 289.94 -13964 -2564 7536 678 1559 134
17:55:50.252988 289.95 -13672 -2592 7384 558 1653 -711
17:55:50.266647 289.96 -13428 -2912 7068 440 1626 -1297
17:55:50.278800 289.97 -13388 -3292 6752 198 1471 -1276
17:55:50.282930 289.98 -13504 -3616 6664 172 1175 -1285
17:55:50.301354 289.99 -13464 -3708 6428 2 980 -1029
17:55:50.310702 290.0 -13708 -3616 6600 -210 696 -853
17:55:50.312728 290.01 -13720 -3340 6644 -129 275 -230
17:55:50.329788 290.02 -13804 -2968 6860 -61 133 344
17:55:50.356154 290.03 -14168 -2596 6964 -348 207 104
17:55:50.356294 290.04 -14240 -2504 6888 -321 183 -599
17:55:50.362817 290.05 -14152 -2216 7032 -298 350 -917
17:55:50.382695 290.06 -14296 -2024 7184 -365 584 -985
17:55:50.383162 290.07 -14400 -2108 7064 -417 796 -1236
17:55:50.395366 290.08 -14488 -2268 6764 -515 1027 -1638
17:55:50.403990 290.09 -14644 -2328 6564 -695 1270 -2062
17:55:50.404342 290.1 -14820 -2464 6516 -731 1303 -2368
17:55:50.418065 290.11 -14572 -2244 6472 -957 1436 -1988
17:55:50.426486 290.12 -14592 -2308 6244 -994 1453 -1222
17:55:50.438353 290.13 -14876 -2172 6300 -822 1365 -613
17:55:50.447835 290.14 -14840 -2168 6260 -710 1447 -301
17:55:50.455808 290.15 -14936 -2064 6108 -657 1699 -471
17:55:50.476283 290.16 -14692 -2232 6048 -738 2061 -1047
17:55:50.484873 290.17 -14476 -2532 6008 -864 2364 -1527
17:55:50.485200 290.18 -14424 -2984 5644 -903 2463 -1711
17:55:50.502090 290.19 -14472 -3340 5448 -768 2204 -1424
17:55:50.521246 290.2 -14224 -3524 5412 -574 1765 -637
17:55:50.521447 290.21 -14368 -3504 5384 -332 1375 -201
17:55:50.523381 290.22 -14656 -3456 5328 -386 1201 -316
17:55:50.538257 290.23 -14588 -3508 5452 -581 1217 -494
17:55:50.547379 290.24 -14672 -3584 5444 -771 1328 -223
17:55:50.559091 290.25 -14628 -3676 5476 -1059 1524 49
17:55:50.567809 290.26 -14368 -3932 5264 -1292 1538 -23
17:55:50.583040 290.27 -14320 -3960 5304 -1472 1377 147
17:55:50.597447 290.28 -14192 -4072 5528 -1483 1016 603
17:55:50.607726 290.29 -14140 -3696 5592 -1417 705 850
17:55:50.608804 290.3 -14152 -3312 6144 -1559 686 666
17:55:50.624429 290.31 -14208 -2896 6376 -1642 676 166
17:55:50.635749 290.32 -14356 -2556 6588 -1637 574 -395
17:55:50.635952 290.33 -14256 -2376 6796 -1496 467 -331
17:55:50.643078 290.34 -14536 -2176 6752 -1260 440 -346
17:55:50.669261 290.35 -14556 -2176 6832 -1195 634 -610
17:55:50.669433 290.36 -14696 -2136 6696 -1060 735 -752
17:55:50.673294 290.37 -14356 -2312 6448 -1009 868 -839
17:55:50.691622 290.38 -14176 -2452 6476 -1012 877 -734
17:55:50.703078 290.39 -14484 -2464 6356 -977 676 -712
17:55:50.703221 290.4 -14828 -2372 6432 -872 459 -716
17:55:50.726464 290.41 -15120 -2284 6568 -608 194 -253
17:55:50.737691 290.42 -15400 -2216 6532 -173 -76 184
17:55:50.737851 290.43 -15300 -2080 6552 137 -118 159
17:55:50.757733 290.44 -15148 -2232 6636 95 91 24
17:55:50.769013 290.45 -14892 -2448 6340 62 211 83
17:55:50.769204 290.46 -14800 -2916 6004 115 116 286
17:55:50.777993 290.47 -14932 -3004 5780 304 24 346
17:55:50.806016 290.48 -14716 -3176 5680 261 70 184
17:55:50.806548 290.49 -14464 -3324 5580 176 137 156
17:55:50.808369 290.5 -14372 -3348 5588 81 154 286
17:55:50.823594 290.51 -14352 -3376 5640 -37 98 459
17:55:50.835981 290.52 -14432 -3512 5392 -143 90 734
17:55:50.838465 290.53 -14396 -3584 5368 -274 32 697
17:55:50.851305 290.54 -14428 -3648 5236 -492 58 536
17:55:50.860265 290.55 -14120 -3684 5424 -717 87 689
17:55:50.877627 290.56 -14264 -3688 5388 -823 -17 869
17:55:50.884771 290.57 -14180 -3524 5708 -790 -241 1266
17:55:50.890305 290.58 -14212 -3444 5764 -799 -340 1839
17:55:50.906243 290.59 -14316 -3352 5728 -905 -318 1812
17:55:50.915776 290.6 -14376 -3428 5824 -1061 -287 1582
17:55:50.920288 290.61 -14352 -3256 5720 -1091 -305 1522
17:55:50.939601 290.62 -14364 -3132 5756 -1260 -202 1116
17:55:50.948059 290.63 -14312 -3020 5988 -1368 -201 681
17:55:50.950317 290.64 -14660 -2836 5956 -1428 -198 474
17:55:50.957999 290.65 -14580 -2752 6136 -1474 -186 451
17:55:50.973001 290.66 -14292 -2816 6100 -1516 -153 510
17:55:50.981095 290.67 -14332 -2760 6092 -1537 -180 611
17:55:50.987897 290.68 -14328 -2776 5992 -1525 -170 742
17:55:51.003040 290.69 -14464 -2684 6192 -1564 -86 589
17:55:51.015369 290.7 -14336 -2636 6156 -1459 -80 519
17:55:51.017836 290.71 -14256 -2552 6364 -1311 -139 621
17:55:51.036932 290.72 -14080 -2544 6352 -1201 -199 718
17:55:51.048370 290.73 -14072 -2552 6260 -1128 -229 475
17:55:51.048667 290.74 -14252 -2768 6060 -1086 -358 320
17:55:51.071251 290.75 -14264 -2656 6104 -836 -553 376
17:55:51.082364 290.76 -14040 -2544 6112 -891 -537 313
17:55:51.082483 290.77 -14060 -2548 5848 -1038 -534 455
17:55:51.093101 290.78 -13980 -2400 5712 -1008 -672 894
17:55:51.112068 290.79 -14204 -2172 5848 -1028 -847 1264
17:55:51.126169 290.8 -14636 -2148 5756 -1120 -962 1474
17:55:51.126482 290.81 -14956 -1852 5968 -1140 -1056 1637
17:55:51.132278 290.82 -15100 -1704 6140 -1218 -1171 1982
17:55:51.145653 290.83 -15356 -1748 6276 -1136 -1444 2581
17:55:51.153911 290.84 -15628 -1356 6500 -846 -1645 3181
17:55:51.168172 290.85 -15808 -1160 6536 -747 -1622 3307
17:55:51.178162 290.86 -15816 -956 6640 -609 -1501 3213
17:55:51.183157 290.87 -15596 -1108 6428 -405 -1346 3154
17:55:51.199251 290.88 -15408 -1380 6376 -519 -1019 3265
17:55:51.205257 290.89 -15464 -1812 6152 -411 -928 3008
17:55:51.221987 290.9 -15284 -1956 6024 -447 -777 2703
17:55:51.231493 290.91 -15148 -2116 5928 -647 -455 2566
17:55:51.231696 290.92 -15132 -2104 5860 -774 -267 2538
17:55:51.243005 290.93 -14876 -2124 5720 -771 -167 2560
17:55:51.250338 290.94 -14516 -2144 5400 -759 -167 2758
17:55:51.258274 290.95 -14524 -2236 4892 -820 -166 2731
17:55:51.277400 290.96 -14960 -2400 4540 -966 -222 2686
17:55:51.280383 290.97 -16168 -2056 4424 -723 -594 2773
17:55:51.290505 290.98 -18244 -1276 4520 -474 -1045 3565
17:55:51.303579 290.99 -20928 192 3980 -116 -1525 3015
17:55:51.317589 291.0 -22308 1540 2972 317 -2063 2451
17:55:51.327274 291.01 -24340 2252 1612 -164 -2054 749
17:55:51.332755 291.02 -27308 2220 40 -546 -2198 -402
17:55:51.348209 291.03 -32384 4064 -2844 -1757 -126 -3791
17:55:51.355165 291.04 -32768 1992 -3128 -4149 1747 -877
17:55:51.373173 291.05 -32768 2064 -4508 -7217 4679 2795
17:55:51.381713 291.06 -32768 828 -5928 -11397 7924 8602
17:55:51.385390 291.07 -32768 -1108 -6252 -15429 9680 20686
17:55:51.402506 291.08 -32768 -400 -4676 -16202 8280 31032
17:55:51.402720 291.09 -32768 4284 -16 -16120 6759 32767
17:55:51.417225 291.1 -32024 9044 4408 -16284 7999 32767
17:55:51.426927 291.11 -30324 10420 6320 -13313 8291 32767
17:55:51.442182 291.12 -28172 10632 6640 -9591 9328 32767
17:55:51.454338 291.13 -26004 9984 5860 -7156 12294 32767
17:55:51.454482 291.14 -23536 7916 5160 -4694 13665 32767
17:55:51.468537 291.15 -20044 5212 3356 -2603 13833 32767
17:55:51.475921 291.16 -15140 1484 912 -1214 12685 32767
17:55:51.495132 291.17 -12112 -880 -1384 203 10213 32767
17:55:51.524385 291.18 -9840 -2088 -2324 2014 7786 32767
17:55:51.534017 291.19 -7404 -2136 -1852 3409 6947 32767
17:55:51.534449 291.2 -4552 -1560 -1208 1625 8543 32767
17:55:51.534809 291.21 -2132 -2716 -1896 -3050 10185 32767
17:55:51.535325 291.22 -380 -5008 -2920 -7173 9181 32767
17:55:51.549277 291.23 1984 -5432 -2844 -12011 7661 22865
17:55:51.559586 291.24 2508 -5548 -1628 -17317 7976 12229
17:55:51.570705 291.25 2692 -6552 248 -19800 8269 6885
17:55:51.583288 291.26 1140 -5768 2064 -21234 5728 6336
17:55:51.588317 291.27 836 -4936 4300 -18364 1159 7839
17:55:51.604617 291.28 1872 -2872 5768 -14879 -3977 10439
17:55:51.604787 291.29 1160 -2388 6096 -12544 -6617 14017
17:55:51.622518 291.3 628 -3820 5696 -11778 -7478 15478
17:55:51.637987 291.31 -2760 -6708 5512 -12861 -7694 14040
17:55:51.638212 291.32 -7732 -8016 6420 -15861 -6658 12967
17:55:51.657574 291.33 -9024 -6792 9500 -17473 -6724 10375
17:55:51.671560 291.34 -8428 -4804 13164 -19095 -7225 8468
17:55:51.671723 291.35 -10212 -2572 16344 -19349 -7695 8028
17:55:51.678003 291.36 -13592 1976 21208 -18228 -7647 3449
17:55:51.694130 291.37 -18824 6500 25960 -18819 -4249 -2142
17:55:51.705159 291.38 -22520 9712 29128 -17470 -322 -7557
17:55:51.707978 291.39 -23404 12356 30940 -13793 2077 -13282
17:55:51.730065 291.4 -24776 12056 30032 -9550 4300 -16820
17:55:51.744254 291.41 -26276 8352 26952 -3867 5371 -14611
17:55:51.744366 291.42 -26636 4344 23232 1870 5035 -9253
17:55:51.747510 291.43 -25412 1404 19484 5867 4718 -4881
17:55:51.760677 291.44 -22732 -1264 16032 8365 3684 -4859
17:55:51.771824 291.45 -20160 -3220 12720 10259 2452 -5306
17:55:51.775249 291.46 -16952 -4576 10092 12021 964 -3269
17:55:51.791121 291.47 -13620 -5072 8160 13313 -359 -782
17:55:51.798328 291.48 -10964 -4776 7212 13291 -1544 -183
17:55:51.819411 291.49 -8040 -4212 6400 12369 -1701 -1600
17:55:51.819616 291.5 -5572 -3912 6064 9954 -1323 -1068
17:55:51.828508 291.51 -6084 -3756 6100 7919 -404 -1222
17:55:51.843164 291.52 -5356 -2820 6460 4664 686 -2408
17:55:51.855251 291.53 -5160 -1844 6060 1650 1050 -4091
17:55:51.857788 291.54 -4312 -2024 5172 517 873 -4022
17:55:51.865801 291.55 -6288 -2056 4608 1285 -580 -3365
17:55:51.887803 291.56 -8492 196 4092 2485 -2305 -8639
17:55:51.897761 291.57 -7276 2280 4152 1367 -2331 -16855
17:55:51.921211 291.58 -6292 3436 3676 -652 -2454 -23257
17:55:51.921374 291.59 -5604 3848 3268 -1073 -4510 -25451
17:55:51.921608 291.6 -6208 5224 3336 -1241 -6665 -25198
17:55:51.925367 291.61 -7740 7572 4116 -1918 -8335 -26405
17:55:51.933373 291.62 -9576 10028 4992 -3436 -8489 -27319
17:55:51.957222 291.63 -10256 12296 6436 -5908 -7521 -26412
17:55:51.957418 291.64 -11356 14708 8132 -7345 -6326 -22032
17:55:51.962905 291.65 -13672 16940 9844 -7871 -5868 -19201
17:55:51.978479 291.66 -16532 18720 11036 -6717 -7624 -17651
17:55:51.991175 291.67 -18464 21428 12392 -4552 -7320 -19856
17:55:51.992798 291.68 -19260 22580 12652 -3595 -5556 -22433
17:55:52.007867 291.69 -19164 21352 12004 -2578 -3303 -21862
17:55:52.025834 291.7 -18652 19380 10492 -950 -2114 -17521
17:55:52.025984 291.71 -17284 17988 9616 624 -1913 -12823
17:55:52.042664 291.72 -16136 16792 8644 1243 -1943 -9888
17:55:52.056109 291.73 -15376 15608 7828 1686 -2023 -8054
17:55:52.056353 291.74 -14796 14436 7164 2233 -2306 -5973
17:55:52.067927 291.75 -14224 13188 6412 2858 -2649 -3083
17:55:52.085884 291.76 -13312 12240 5688 2857 -2519 983
17:55:52.097315 291.77 -12672 10924 5104 2779 -2259 5272
17:55:52.097874 291.78 -12168 10084 4780 2320 -1794 7788
17:55:52.114462 291.79 -12120 9284 4768 1577 -1456 7910
17:55:52.123178 291.8 -12348 9056 4744 1214 -1544 4854
17:55:52.127653 291.81 -12116 9172 5308 821 -1303 -204
17:55:52.135938 291.82 -11476 8812 5960 147 -1107 -4335
17:55:52.145997 291.83 -10948 8268 6292 499 -1457 -4918
17:55:52.161144 291.84 -10796 7912 6680 1340 -2388 -3292
17:55:52.172412 291.85 -10460 8252 7364 2611 -3595 -359
17:55:52.173180 291.86 -10332 8148 7688 3322 -4611 2242
17:55:52.188607 291.87 -10568 7716 7596 3976 -5398 4693
17:55:52.198375 291.88 -10692 7724 7704 4609 -5821 6331
17:55:52.202939 291.89 -10912 7644 7608 4198 -5247 6100
17:55:52.217839 291.9 -11020 6356 6880 3708 -4907 5926
17:55:52.226181 291.91 -11424 5596 6452 3971 -5485 6481
17:55:52.245298 291.92 -11184 5872 6684 3790 -5826 5697
17:55:52.253175 291.93 -11536 6212 7288 3006 -5884 4496
17:55:52.255365 291.94 -12316 7020 8004 2814 -6616 3635
17:55:52.264537 291.95 -12528 8840 9228 2872 -6644 2814
17:55:52.278046 291.96 -12696 9992 10232 2427 -6073 2813
17:55:52.294505 291.97 -13052 10900 10860 1818 -4828 2902
17:55:52.304896 291.98 -13588 10476 10704 2229 -4314 3329
17:55:52.307854 291.99 -13688 10496 10476 2530 -3681 3441
17:55:52.315400 292.0 -13552 10144 10264 2156 -2307 3070
17:55:52.331302 292.01 -13252 9604 9660 1222 -726 3056
17:55:52.339620 292.02 -13468 8400 8956 420 696 2968
17:55:52.345305 292.03 -13072 7044 8372 -239 1585 3598
17:55:52.359587 292.04 -12000 6472 7920 -323 1239 4929
17:55:52.375394 292.05 -11100 6328 7192 -659 968 6125
17:55:52.375579 292.06 -10860 5248 6604 -1261 367 7926
17:55:52.382950 292.07 -10740 4936 6284 -1276 -783 9624
17:55:52.408461 292.08 -12308 6148 7256 -947 -1855 9486
17:55:52.408767 292.09 -13020 8428 8400 -801 -1948 7054
17:55:52.412799 292.1 -12476 8852 8788 -837 -1057 6020
17:55:52.427970 292.11 -11316 8300 8688 -221 -907 7378
17:55:52.440708 292.12 -10492 8092 8568 575 -1040 8631
17:55:52.462426 292.13 -10100 7864 8348 476 -709 7976
17:55:52.472087 292.14 -9600 6792 7400 -254 17 7123
17:55:52.472208 292.15 -8960 5560 6660 -615 314 7083
17:55:52.480434 292.16 -8112 4956 6032 -1106 302 7017
17:55:52.498964 292.17 -7736 3532 5064 -2324 331 7934
17:55:52.508732 292.18 -7600 2672 4492 -3096 -210 8402
17:55:52.532271 292.19 -7264 2628 4588 -3826 -958 7479
17:55:52.540974 292.2 -7884 3032 5612 -4401 -1432 5739
17:55:52.541160 292.21 -8252 3760 6736 -5297 -1873 3797
17:55:52.541289 292.22 -7932 4864 8384 -6071 -1353 3873
17:55:52.559791 292.23 -7456 4816 8732 -6959 -1259 6071
17:55:52.576140 292.24 -7640 4660 10148 -7560 -643 10461
17:55:52.579790 292.25 -9176 6132 11476 -7782 -1125 12204
17:55:52.582898 292.26 -10188 7656 12260 -7812 -1075 9024
17:55:52.595593 292.27 -10348 7724 12652 -7936 -158 5359
17:55:52.610103 292.28 -10156 6524 12492 -6814 669 4192
17:55:52.615449 292.29 -9924 5308 12244 -5103 753 2975
17:55:52.633096 292.3 -10732 5352 11256 -2008 4059 -185
17:55:52.642334 292.31 -9176 4260 11420 -5198 249 1086
17:55:52.645594 292.32 -8284 3644 11520 -4306 -2364 2819
17:55:52.652950 292.33 -8728 3608 11128 -2659 -1789 3426
17:55:52.677141 292.34 -8788 3712 11236 -4024 -2359 3644
17:55:52.677261 292.35 -8692 4020 11132 -4253 -2034 3687
17:55:52.683071 292.36 -8176 4276 11720 -4466 -889 3421
17:55:52.699638 292.37 -7584 4628 11920 -4871 -635 2905
17:55:52.708126 292.38 -7812 4992 12572 -5035 134 846
17:55:52.712823 292.39 -7928 5424 13152 -5576 717 -727
17:55:52.733284 292.4 -7476 5840 14028 -5010 936 -1651
17:55:52.745484 292.41 -6432 6780 15156 -4542 1235 -2133
17:55:52.750370 292.42 -5700 7172 15480 -4269 1773 -3523
17:55:52.766809 292.43 -5944 7440 15792 -3895 1936 -7081
17:55:52.780953 292.44 -6796 7088 15572 -4076 2477 -10296
17:55:52.799158 292.45 -8052 6236 14732 -3755 3185 -12628
17:55:52.809237 292.46 -7704 5276 14452 -3146 3584 -12772
17:55:52.812282 292.47 -8264 4828 13692 -3349 3741 -12848
17:55:52.813565 292.48 -7956 3468 12468 -4095 3869 -12714
17:55:52.916726 292.49 -7316 1272 11344 -4159 2538 -8295
17:55:52.917850 292.5 -7764 972 10912 -3415 1003 -1545
17:55:52.920625 292.51 -8812 1516 10728 -4088 -216 -635
17:55:52.941444 292.52 -8540 1780 10436 -6387 617 -1292
17:55:52.941554 292.53 -9548 1404 10460 -8603 994 -5839
17:55:52.941627 292.54 -11648 1620 10524 -8150 1019 -5834
17:55:52.941699 292.55 -10972 1876 11052 -6743 522 -2745
17:55:52.941768 292.56 -9672 2436 11308 -4603 -833 -538
17:55:52.941838 292.57 -9252 2880 11168 -4374 -1340 10
17:55:52.941907 292.58 -9420 3060 10972 -4493 -1405 -845
17:55:52.941976 292.59 -8320 2748 11060 -4841 -2148 715
17:55:52.947548 292.6 -7308 3048 11304 -4635 -3605 4407
17:55:52.948626 292.61 -6896 3940 11396 -5232 -4340 6322
17:55:52.961251 292.62 -8736 4628 11408 -6467 -4083 2544
17:55:52.987157 292.63 -9240 4940 11800 -7127 -4287 -1530
17:55:52.987552 292.64 -8088 5612 13592 -6676 -4753 2076
17:55:52.990558 292.65 -7080 7516 14636 -3374 -3831 3302
17:55:53.000559 292.66 -6316 8168 14792 -4205 -3641 1125
17:55:53.014273 292.67 -6964 7744 14628 -4256 -3416 -1410
17:55:53.024846 292.68 -6296 6792 13960 -3093 -4150 -1666
17:55:53.032915 292.69 -5524 6096 13580 -1969 -6761 1563
17:55:53.050920 292.7 -5288 7048 13740 -1496 -8638 3393
17:55:53.059593 292.71 -5360 7284 13908 -2608 -9636 2856
17:55:53.059783 292.72 -5700 7420 14384 -3848 -10672 1075
17:55:53.082642 292.73 -5932 7688 12568 -8790 -14216 -608
17:55:53.093940 292.74 -5348 7368 12732 -13658 -17262 -1548
17:55:53.094272 292.75 -4548 6964 14572 -19401 -21210 -3329
17:55:53.103687 292.76 -5224 6776 14392 -13597 -16998 -4048
17:55:53.120173 292.77 -5316 5796 15848 -4591 -7774 -7114
17:55:53.134394 292.78 -5560 5528 15608 -1551 -1869 -8073
17:55:53.135037 292.79 -5312 4712 14508 1646 1864 -5724
17:55:53.140826 292.8 -5248 3932 13116 3132 1159 -4587
17:55:53.165442 292.81 -5388 3868 13468 3098 1755 -6269
17:55:53.167196 292.82 -7076 4128 12996 949 2138 -8554
17:55:53.185458 292.83 -7576 4380 13316 -194 2595 -9692
17:55:53.185578 292.84 -6888 4660 13584 -133 3991 -9362
17:55:53.202647 292.85 -6748 4864 13552 -563 4885 -8787
17:55:53.214634 292.86 -6996 3560 12136 517 3252 -5158
17:55:53.215181 292.87 -6548 3384 11864 3511 638 -417
17:55:53.232469 292.88 -7224 3544 11776 3447 -240 -385
17:55:53.245780 292.89 -8148 3020 11436 3003 -631 -2029
17:55:53.246039 292.9 -8172 2936 11220 2664 -1150 -2869
17:55:53.263680 292.91 -7636 2832 11388 1887 -1584 -3436
17:55:53.276490 292.92 -7796 2732 11524 2097 -1869 -3446
17:55:53.293969 292.93 -7732 2980 11676 1784 -1620 -4591
17:55:53.303129 292.94 -7788 2864 11904 1200 -462 -6580
17:55:53.303301 292.95 -7700 2500 11524 1030 719 -8478
17:55:53.305711 292.96 -7528 1168 10596 2742 -268 -8688
17:55:53.322632 292.97 -6468 772 10588 4523 -1640 -7256
17:55:53.331606 292.98 -6748 844 10460 3444 -2407 -6689
17:55:53.346985 292.99 -7376 1224 10704 919 -2989 -6941
17:55:53.360341 293.0 -7676 1528 11972 -849 -2629 -7164
17:55:53.360444 293.01 -7776 2028 12792 -2145 -2154 -7021
17:55:53.374705 293.02 -7092 1756 13736 -1822 -1803 -4911
17:55:53.390185 293.03 -7840 2688 13988 -1781 -727 -3259
17:55:53.391743 293.04 -7956 2552 13876 -1522 59 -2798
17:55:53.402804 293.05 -8068 2468 13324 -1484 625 -2675
17:55:53.417126 293.06 -7728 2100 12584 -1793 396 -2190
17:55:53.434370 293.07 -7716 1484 12188 -1897 -784 -366
17:55:53.464305 293.08 -8092 1572 12152 -1412 -1781 2093
17:55:53.476274 293.09 -8632 1800 11816 -2431 -2585 2805
17:55:53.476508 293.1 -8784 2028 12844 -4209 -3272 704
17:55:53.476789 293.11 -8652 2764 13004 -6895 -3383 -1516
17:55:53.477150 293.12 -7948 2608 13300 -9409 -2995 -2379
17:55:53.498096 293.13 -7744 1800 12844 -7429 -2760 -920
17:55:53.527480 293.14 -7668 2308 12016 -7704 -4593 187
17:55:53.551539 293.15 -6956 1148 12124 -6738 -3592 2258
17:55:53.564330 293.16 -6832 448 12484 -7029 -5284 3553
17:55:53.564573 293.17 -5988 1000 11500 -6500 -6789 4759
17:55:53.570103 293.18 -4000 -412 14536 -5877 -7403 6646
17:55:53.611614 293.19 -5708 1160 13328 -6365 -7217 6157
17:55:53.620157 293.2 -5356 1776 15012 -3118 -4270 6482
17:55:53.620308 293.21 -3836 2016 14208 -1638 -2722 6376
17:55:53.620832 293.22 -3348 1644 13100 -1387 -3423 6396
17:55:53.621213 293.23 -3224 1064 13492 -1626 -4513 7005
17:55:53.625537 293.24 -3572 636 12992 -3254 -6091 7668
17:55:53.627052 293.25 -3824 260 13764 -2576 -6757 9354
17:55:53.666343 293.26 -3196 584 15200 -2254 -6956 9685
17:55:53.674135 293.27 -2944 276 14428 -2380 -8653 10277
17:55:53.697736 293.28 -2608 872 14516 -1627 -12527 10916
17:55:53.700950 293.29 -2308 876 16384 -1296 -13448 11574
17:55:53.701692 293.3 -2500 1392 15540 667 -10340 10305
17:55:53.703256 293.31 -2124 960 15384 -1147 -9623 6137
17:55:53.704187 293.32 -2292 392 15000 805 -8260 2490
17:55:53.706182 293.33 -2348 268 14600 1878 -8917 1515
17:55:53.707015 293.34 -3156 1712 15096 9075 348 1919
17:55:53.733918 293.35 -476 -104 15908 11127 5288 -1690
17:55:53.734298 293.36 -616 808 14644 5114 -273 -7267
17:55:53.753793 293.37 -1868 20 14248 3578 799 -6469
17:55:53.765770 293.38 -2652 -120 13220 3109 123 -5338
17:55:53.765954 293.39 -2856 -1248 12528 3183 -834 -2466
17:55:53.832393 293.4 -4440 -856 12628 3667 -2436 3434
17:55:53.858296 293.41 -4836 -236 13468 2914 -2427 4502
17:55:53.869986 293.42 -4640 488 14392 1498 -1707 3701
17:55:53.870088 293.43 -3900 1164 15320 775 -1307 2521
17:55:53.870651 293.44 -3520 1340 15952 531 -1716 2698
17:55:53.871285 293.45 -3424 1532 16212 989 -1964 3377
17:55:53.871729 293.46 -3212 1396 15912 1471 -2429 3169
17:55:53.907972 293.47 -2924 888 15132 1440 -2397 5309
17:55:54.290888 293.48 -2924 304 13932 585 -2274 7208
17:55:54.293612 293.49 -2820 -644 12900 930 -2878 7985
17:55:54.409778 293.5 -2296 -952 12756 1035 -3217 9282
17:55:54.424291 293.51 -1108 -744 12396 373 -3955 11808
17:55:54.484013 293.52 -760 -1012 12260 709 -4716 12184
17:55:54.486469 293.53 -280 -1008 12148 959 -5643 12616
17:55:54.486579 293.54 -872 -488 12488 -152 -5186 12099
17:55:54.487758 293.55 -472 -1000 12452 -983 -4158 8810
17:55:54.488998 293.56 24 -420 12924 -1430 -3791 6287
17:55:54.490121 293.57 1160 -676 12800 -1754 -4285 4648
17:55:54.491707 293.58 -656 -2040 12184 -3594 -160 -3084
17:55:54.492805 293.59 1248 -2472 11956 285 -624 2308
17:55:54.494792 293.6 1280 1396 14360 351 1537 -155
17:55:54.496913 293.61 1156 964 14184 1245 547 30
17:55:54.525051 293.62 1436 1104 14172 1325 557 -58
17:55:54.525756 293.63 1428 1388 14368 2028 429 44
17:55:54.526436 293.64 1616 1508 14344 1776 210 -265
17:55:54.527217 293.65 1592 1408 14280 1789 639 -188
17:55:54.527479 293.66 1376 1516 14608 1887 648 -211
17:55:54.527844 293.67 1232 1688 14224 1506 341 -120
17:55:54.528509 293.68 1360 1660 14160 1063 308 -101
17:55:54.535617 293.69 1300 1616 14212 1027 326 -119
17:55:54.558780 293.7 1344 1576 14216 1204 42 -71
17:55:54.559193 293.71 1520 1660 14356 1417 80 -128
17:55:54.573317 293.72 1332 1772 14368 1358 206 -129
17:55:54.580423 293.73 1248 1724 14200 1232 188 -104
17:55:54.593171 293.74 1324 1812 14112 1433 171 -121
17:55:54.602729 293.75 1360 1796 14168 1432 138 -143
17:55:54.611328 293.76 1400 1804 14204 1592 128 -168
17:55:54.632465 293.77 1520 1972 14320 1696 169 -180
17:55:54.632649 293.78 1460 2060 14080 1704 282 -132
17:55:54.640403 293.79 1420 2020 14248 1597 232 -171
17:55:54.648166 293.8 1388 1952 14252 1582 308 -161
17:55:54.672696 293.81 1368 1964 14312 1396 280 -142
17:55:54.674611 293.82 1344 2068 14444 1299 292 -152
17:55:54.678735 293.83 1200 2108 14148 1286 295 -145
17:55:54.700592 293.84 1340 2128 14064 1259 313 -143
17:55:54.711721 293.85 1472 2084 14136 1272 269 -179
17:55:54.715305 293.86 1408 2240 14100 1387 327 -177
17:55:54.729302 293.87 1436 2108 14228 1315 288 -188
17:55:54.740486 293.88 1340 2232 14072 1279 206 -141
17:55:54.745362 293.89 1308 2396 14044 1312 107 -158
17:55:54.766235 293.9 1476 2352 14296 1317 149 -139
17:55:54.768237 293.91 1436 2352 14276 1192 239 -146
17:55:54.781127 293.92 1476 2432 14144 1102 293 -156
17:55:54.792999 293.93 1344 2456 14356 992 314 -112
17:55:54.793577 293.94 1252 2504 14168 945 299 -126
17:55:54.810002 293.95 1332 2356 14004 932 285 -103
17:55:54.822732 293.96 1356 2484 14260 983 289 -88
17:55:54.828040 293.97 1260 2508 13996 899 282 -95
17:55:54.850494 293.98 1408 2540 14136 896 244 -98
17:55:54.852654 293.99 1380 2624 14176 808 231 -109
17:55:54.854142 294.0 1348 2476 14184 856 226 -66
17:55:54.875365 294.01 1280 2512 14124 1001 239 -115
17:55:54.881211 294.02 1452 2444 13988 1143 171 -125
17:55:54.887961 294.03 1388 2640 14160 1282 234 -158
17:55:54.907419 294.04 1284 2692 14260 1260 236 -133
17:55:54.912610 294.05 1324 2748 13992 1181 344 -178
17:55:54.934040 294.06 1324 2860 14156 1042 238 -138
17:55:54.934498 294.07 1376 2696 13784 985 247 -123
17:55:54.934889 294.08 1300 2700 13972 1047 229 -148
17:55:54.948730 294.09 1264 2824 14336 1290 222 -183
17:55:54.956403 294.1 1292 2912 14232 1465 241 -169
17:55:54.963104 294.11 1396 2932 14376 1232 315 -176
17:55:54.988105 294.12 1304 2980 14172 778 399 -185
17:55:54.988623 294.13 1164 2876 13908 525 374 -124
17:55:54.992767 294.14 1240 2960 14060 726 182 -126
17:55:55.007713 294.15 1408 3008 14272 900 82 -78
17:55:55.025191 294.16 1268 3096 14004 344 450 -14
17:55:55.027304 294.17 1364 2880 13664 -194 341 -35
17:55:55.047677 294.18 1540 2968 14548 854 406 -186
17:55:55.055121 294.19 1500 3076 14296 1546 165 -185
17:55:55.060725 294.2 1440 3208 14200 683 216 -167
17:55:55.079598 294.21 1328 3240 13996 263 556 -65
17:55:55.093086 294.22 1108 3080 13660 -306 254 11
17:55:55.095647 294.23 1168 2844 13676 -86 83 72
17:55:55.114408 294.24 1432 2828 14176 724 -222 -8
17:55:55.129363 294.25 1352 3016 14376 973 -353 1
17:55:55.149736 294.26 1288 3140 14324 772 -84 -43
17:55:55.157241 294.27 1276 3152 14212 604 40 -45
17:55:55.157450 294.28 1136 3104 13880 457 111 -57
17:55:55.175346 294.29 1272 3356 14132 564 128 -98
17:55:55.188267 294.3 1280 3268 14168 768 103 -88
17:55:55.188405 294.31 1276 3200 14172 778 276 -109
17:55:55.188523 294.32 1300 3248 13980 571 388 -147
17:55:55.212813 294.33 1252 3224 13988 630 353 -154
17:55:55.246534 294.34 1248 3264 13932 839 166 -140
17:55:55.253903 294.35 1396 3272 14008 846 84 -107
17:55:55.254076 294.36 1504 3360 14040 712 138 -93
17:55:55.254290 294.37 1416 3284 14180 693 125 -69
17:55:55.254463 294.38 1388 3320 14184 577 226 -88
17:55:55.265331 294.39 1432 3268 14016 431 258 -100
17:55:55.289234 294.4 1396 3372 13988 458 221 -77
17:55:55.289378 294.41 1416 3472 13972 488 218 -77
17:55:55.290497 294.42 1332 3456 13960 369 255 -90
17:55:55.310705 294.43 1220 3472 14048 311 301 -89
17:55:55.322172 294.44 1408 3636 14112 348 243 -97
17:55:55.322753 294.45 1244 3472 13972 302 256 -48
17:55:55.330834 294.46 1296 3340 13960 358 242 -80
17:55:55.347709 294.47 1380 3448 13928 398 210 -69
17:55:55.354142 294.48 1380 3488 13984 427 228 -91
17:55:55.360980 294.49 1272 3628 13952 428 261 -91
17:55:55.385192 294.5 1396 3532 14128 521 280 -129
17:55:55.387007 294.51 1256 3568 14044 379 475 -117
17:55:55.390371 294.52 1228 3456 13552 -169 271 -32
17:55:55.414784 294.53 1400 3432 13908 149 330 -75
17:55:55.430216 294.54 1364 3556 14040 395 162 -85
17:55:55.431658 294.55 1328 3592 14060 283 138 -55
17:55:55.447818 294.56 1336 3436 13904 3 213 -53
17:55:55.456290 294.57 1352 3648 13916 -161 208 -57
17:55:55.467604 294.58 1228 3612 13952 -105 127 -13
17:55:55.491229 294.59 1272 3520 13968 -78 63 -26
17:55:55.491347 294.6 1408 3520 14116 -68 120 -11
17:55:55.491418 294.61 1356 3496 14144 62 131 -42
17:55:55.510880 294.62 1400 3684 14156 -28 232 -61
17:55:55.522621 294.63 1392 3628 14072 -225 305 -46
17:55:55.523020 294.64 1244 3548 14036 -385 269 -36
17:55:55.525746 294.65 1284 3632 14100 -522 284 -33
17:55:55.533319 294.66 1352 3528 14176 -500 293 -37
17:55:55.548548 294.67 1276 3500 14068 -687 194 -6
17:55:55.565292 294.68 1416 3520 13936 -851 107 25
17:55:55.567094 294.69 1432 3420 13972 -838 187 -7
17:55:55.591727 294.7 1236 3492 13948 -1001 132 6
17:55:55.591899 294.71 1336 3424 14008 -1123 193 32
17:55:55.611014 294.72 1324 3464 13908 -1119 167 55
17:55:55.625470 294.73 1376 3448 14216 -1202 233 59
17:55:55.625778 294.74 1196 3548 14080 -1413 345 36
17:55:55.651190 294.75 1376 3284 14048 -1534 288 71
17:55:55.656677 294.76 1260 3316 13980 -1464 233 76
17:55:55.656922 294.77 1352 3292 14032 -1461 251 69
17:55:55.660891 294.78 1196 3332 13928 -1524 197 88
17:55:55.685455 294.79 1300 3288 14036 -1569 200 102
17:55:55.688771 294.8 1360 3376 14072 -1454 238 115
17:55:55.697838 294.81 1312 3176 14148 -1470 256 99
17:55:55.729171 294.82 1224 3208 13988 -1717 362 122
17:55:55.749879 294.83 1292 3156 14008 -1835 310 113
17:55:55.759349 294.84 1184 3116 13972 -1762 226 129
17:55:55.759442 294.85 1256 3012 14076 -1704 216 113
17:55:55.781327 294.86 1344 2940 14080 -1670 232 118
17:55:55.789680 294.87 1228 2924 14104 -1559 209 120
17:55:55.789864 294.88 1224 2936 14148 -1590 282 93
17:55:55.790146 294.89 1360 2944 14032 -1670 304 94
17:55:55.812912 294.9 1344 2868 14020 -1680 228 96
17:55:55.823551 294.91 1360 2856 14124 -1724 235 108
17:55:55.823757 294.92 1444 2816 14192 -1695 241 116
17:55:55.828076 294.93 1340 2712 14048 -1795 250 88
17:55:55.830426 294.94 1264 2704 14212 -1879 307 118
17:55:55.882523 294.95 1228 2704 13984 -1949 279 104
17:55:55.890970 294.96 1332 2668 14232 -1940 263 103
17:55:55.891177 294.97 1320 2644 14172 -1941 279 128
17:55:55.891465 294.98 1372 2536 14284 -1970 342 126
17:55:55.891779 294.99 1200 2520 14264 -2034 354 128
17:55:55.902542 295.0 1308 2536 13972 -2231 324 181
17:55:55.926262 295.01 1236 2468 13944 -2478 230 167
17:55:55.980539 295.02 1236 2264 13944 -2434 36 210
17:55:55.997950 295.03 1172 2212 14164 -2117 86 187
17:55:55.998163 295.04 1288 2128 14464 -1678 176 174
17:55:55.998552 295.05 1408 2288 14412 -1475 287 88
17:55:55.999080 295.06 1328 2224 14320 -1619 281 83
17:55:55.999892 295.07 1168 2200 14100 -1758 246 89
17:55:56.000715 295.08 1204 2016 14124 -1790 83 108
17:55:56.001572 295.09 1268 2032 14344 -1594 25 145
17:55:56.002256 295.1 1252 2096 14440 -1604 224 170
17:55:56.003030 295.11 1336 2092 13788 -2424 502 162
17:55:56.082602 295.12 1280 1984 13980 -2598 -9 138
17:55:56.092914 295.13 1496 1788 14748 -1612 193 29
17:55:56.093140 295.14 1148 1896 13940 -1161 -258 66
17:55:56.093395 295.15 1240 1908 13764 -2034 -286 168
17:55:56.093631 295.16 1368 1796 14072 -1913 72 121
17:55:56.093858 295.17 1160 1760 13808 -1800 -229 189
17:55:56.098388 295.18 1272 1556 13896 -1633 -258 183
17:55:56.101475 295.19 1512 1644 14576 -1026 6 99
17:55:56.119875 295.2 1380 1800 14892 -704 122 23
17:55:56.185778 295.21 1232 1808 14528 -1254 228 32
17:55:56.219282 295.22 1224 1980 14476 -1753 384 31
17:55:56.254337 295.23 1044 1792 14388 -2021 345 102
17:55:56.326796 295.24 1292 1624 14284 -1929 134 115
17:55:56.327850 295.25 1344 1676 14352 -1942 35 103
17:55:56.329068 295.26 1392 1548 14048 -2060 97 80
17:55:56.330308 295.27 1312 1456 14088 -2027 97 58
17:55:56.332074 295.28 1236 1272 13968 -1763 -15 46
17:55:56.334584 295.29 1372 1300 14084 -1469 -79 30
17:55:56.352346 295.3 1420 1260 14252 -1154 -273 35
17:55:56.399199 295.31 1448 1272 14372 -806 -237 31
17:55:56.401730 295.32 1452 1208 14456 -991 -34 31
17:55:56.423658 295.33 1512 1344 14288 -1279 -23 -12
17:55:56.430604 295.34 1440 1128 14444 -989 -27 27
17:55:56.430748 295.35 1400 1280 14268 -940 -19 17
17:55:56.430966 295.36 1336 1064 14488 -772 145 -25
17:55:56.431072 295.37 1404 1048 14172 -835 -15 63
17:55:56.435089 295.38 1452 1020 14232 -997 -65 45
17:55:56.448632 295.39 1468 1032 14092 -876 -111 30
17:55:56.459324 295.4 1540 964 14420 -671 -229 0
17:55:56.459415 295.41 1496 972 14252 -697 -50 0
17:55:56.459484 295.42 1428 944 14204 -771 -101 11
17:55:56.459551 295.43 1452 972 14344 -681 -89 9
17:55:56.459616 295.44 1492 1044 14436 -724 -31 -13
17:55:56.459681 295.45 1456 948 14396 -548 34 -30
17:55:56.472551 295.46 1536 892 14212 -370 66 -29
17:55:56.499092 295.47 1520 940 14220 -295 153 -34
17:55:56.499234 295.48 1568 944 14168 -291 139 -44
17:55:56.499332 295.49 1488 888 14104 -196 172 -9
17:55:56.536342 295.5 1572 852 14028 37 197 -11
17:55:56.537230 295.51 1516 900 14248 388 189 -41
17:55:56.539600 295.52 1528 912 14208 497 261 -22
17:55:56.569238 295.53 1496 844 14104 708 291 -94
17:55:56.712966 295.54 1440 852 14260 1036 306 -81
17:55:56.726243 295.55 1592 836 14320 1149 326 -118
17:55:56.726351 295.56 1508 1060 14212 1129 370 -111
17:55:56.726414 295.57 1496 976 14272 1163 366 -101
17:55:56.726474 295.58 1408 1076 14252 1160 396 -69
17:55:56.726532 295.59 1476 1128 14296 1233 438 -117
17:55:56.726590 295.6 1480 1216 14364 1291 434 -94
17:55:56.726648 295.61 1492 1084 14172 1338 377 -93
17:55:56.726705 295.62 1400 1224 14244 1264 345 -129
17:55:56.726763 295.63 1452 1264 14264 1282 310 -93
17:55:56.727152 295.64 1508 1484 14264 1493 380 -117
17:55:56.728493 295.65 1368 1552 14328 1496 419 -123
17:55:56.732376 295.66 1376 1464 14100 1417 366 -141
17:55:56.735982 295.67 1472 1476 14208 1486 379 -128
17:55:56.738640 295.68 1540 1516 14252 1572 406 -159
17:55:56.758596 295.69 1444 1620 14240 1635 354 -158
17:55:56.765243 295.7 1452 1664 14332 1628 310 -182
17:55:56.770581 295.71 1520 1700 14424 1571 382 -142
17:55:56.786232 295.72 1448 1784 14348 1464 354 -146
17:55:56.794037 295.73 1408 1932 13968 1308 247 -151
17:55:56.800391 295.74 1368 1772 14080 1276 202 -145
17:55:56.819868 295.75 1428 1704 14204 1416 244 -116
17:55:56.827317 295.76 1420 1840 14388 1597 414 -158
17:55:56.830785 295.77 1452 1868 14428 1713 396 -171
17:55:56.838026 295.78 1560 2000 14356 1666 342 -169
17:55:56.855115 295.79 1428 2064 14432 1378 428 -130
17:55:56.862319 295.8 1260 2044 14132 1049 310 -95
17:55:56.867910 295.81 1340 1988 14088 1229 172 -94
17:55:56.882609 295.82 1416 2024 14440 1515 180 -106
17:55:56.898968 295.83 1344 2216 14008 924 601 -42
17:55:56.899140 295.84 1432 2080 13788 541 313 -85
17:55:56.915680 295.85 1608 1964 14720 1618 385 -195
17:55:56.932480 295.86 1516 2228 14468 2353 247 -190
17:55:56.935134 295.87 1360 2396 14144 1072 257 -129
17:55:56.952464 295.88 1312 2180 14136 785 665 -92
17:55:56.965403 295.89 1092 2268 13832 441 227 0
17:55:56.965647 295.9 1264 2180 13504 299 -46 29
17:55:56.973108 295.91 1416 2056 14160 1237 -103 -14
17:55:56.986210 295.92 1516 2424 14564 1712 -154 -78
17:55:56.996770 295.93 1528 2476 14500 1398 230 -92
17:55:57.002901 295.94 1344 2572 14288 1102 370 -85
17:55:57.020399 295.95 1284 2636 14248 967 394 -103
17:55:57.029047 295.96 1312 2612 14248 976 367 -103
17:55:57.032666 295.97 1332 2576 14332 988 390 -128
17:55:57.049023 295.98 1336 2596 14156 935 445 -139
17:55:57.066689 295.99 1196 2656 13968 892 419 -151
17:55:57.070263 296.0 1352 2532 13948 1055 328 -140
17:55:57.085153 296.01 1408 2564 13960 1235 193 -113
17:55:57.097662 296.02 1380 2584 14084 1310 65 -110
17:55:57.120142 296.03 1540 2636 14268 1357 18 -137
17:55:57.130237 296.04 1460 2728 14128 1438 72 -126
17:55:57.130382 296.05 1464 2772 14192 1323 203 -83
17:55:57.130490 296.06 1400 2796 14260 1183 251 -110
17:55:57.156802 296.07 1464 2760 14168 1138 282 -144
17:55:57.164355 296.08 1332 2780 14220 1116 226 -124
17:55:57.169900 296.09 1336 2872 14056 1056 237 -115
17:55:57.171714 296.1 1296 2900 14184 904 253 -105
17:55:57.189974 296.11 1324 2964 13904 871 217 -98
17:55:57.198724 296.12 1376 2884 14084 883 185 -71
17:55:57.205484 296.13 1384 2912 13964 898 157 -107
17:55:57.233571 296.14 1396 2948 14048 1068 139 -101
17:55:57.234767 296.15 1196 3068 14276 1168 142 -134
17:55:57.235728 296.16 1320 3068 14104 1173 90 -116
17:55:57.252305 296.17 1432 3224 14292 1309 358 -131
17:55:57.266913 296.18 1320 3128 14132 1093 402 -108
17:55:57.267150 296.19 1220 3208 13964 629 300 -77
17:55:57.290235 296.2 1400 3084 13868 613 189 -61
17:55:57.301056 296.21 1392 3096 14240 1080 118 -125
17:55:57.304937 296.22 1376 3232 14240 1207 -10 -118
17:55:57.307894 296.23 1376 3248 13968 854 168 -113
17:55:57.327669 296.24 1212 3220 14008 633 157 -65
17:55:57.338225 296.25 1316 3228 14084 777 14 -104
17:55:57.343126 296.26 1376 3284 14028 837 5 -65
17:55:57.369038 296.27 1476 3360 14020 678 127 -106
17:55:57.369210 296.28 1428 3336 13968 796 94 -117
17:55:57.392138 296.29 1392 3340 14032 872 74 -88
17:55:57.402820 296.3 1448 3332 14192 770 200 -123
17:55:57.402988 296.31 1444 3444 14060 550 308 -117
17:55:57.403078 296.32 1484 3420 14088 591 239 -105
17:55:57.408447 296.33 1408 3440 13912 508 289 -76
17:55:57.423243 296.34 1308 3344 13968 356 227 -94
17:55:57.458648 296.35 1396 3412 13936 432 194 -89
17:55:57.469819 296.36 1412 3396 14032 474 214 -114
17:55:57.469985 296.37 1408 3408 13908 443 174 -96
17:55:57.470507 296.38 1296 3428 14036 489 232 -88
17:55:57.473296 296.39 1280 3388 14060 478 170 -114
17:55:57.494773 296.4 1304 3596 13988 406 178 -86
17:55:57.511172 296.41 1408 3540 13880 334 178 -101
17:55:57.512100 296.42 1420 3600 14120 340 238 -76
17:55:57.513366 296.43 1452 3552 13944 278 244 -89
17:55:57.524458 296.44 1288 3628 14104 295 215 -88
17:55:57.532628 296.45 1328 3676 13988 253 204 -52
17:55:57.542776 296.46 1284 3552 14036 220 246 -47
17:55:57.550326 296.47 1304 3576 14008 205 269 -56
17:55:57.571912 296.48 1284 3680 14052 186 255 -50
17:55:57.588173 296.49 1404 3628 14072 82 211 -72
17:55:57.609244 296.5 1424 3588 13972 68 224 -41
17:55:57.617010 296.51 1428 3600 14088 23 267 -48
17:55:57.617238 296.52 1352 3732 13932 -41 241 -29
17:55:57.617523 296.53 1208 3492 14008 -103 256 -4
17:55:57.625362 296.54 1328 3640 13860 -105 233 -49
17:55:57.642642 296.55 1348 3736 14016 -219 241 -32
17:55:57.650175 296.56 1408 3656 14040 -264 255 -24
17:55:57.670337 296.57 1460 3648 14024 -281 282 -70
17:55:57.682193 296.58 1288 3688 14004 -442 278 -48
17:55:57.682465 296.59 1332 3568 14148 -531 232 -63
17:55:57.685211 296.6 1472 3660 13928 -658 204 -20
17:55:57.706937 296.61 1492 3580 14164 -799 257 -17
17:55:57.728636 296.62 1332 3704 14008 -912 247 -1
17:55:57.749749 296.63 1392 3608 14040 -997 246 -26
17:55:57.749917 296.64 1452 3544 14120 -1103 307 24
17:55:57.750045 296.65 1276 3508 14056 -1284 362 10
17:55:57.762504 296.66 1256 3436 14076 -1462 316 -5
17:55:57.785957 296.67 1256 3468 14044 -1620 252 10
17:55:57.786079 296.68 1304 3332 13860 -1927 297 67
17:55:57.786637 296.69 1324 3324 13792 -2050 251 61
17:55:57.811193 296.7 1320 3160 14036 -1741 289 48
17:55:57.817737 296.71 1364 3292 14152 -1443 295 35
17:55:57.817967 296.72 1276 3200 14172 -1452 257 21
17:55:57.820264 296.73 1300 3252 14088 -1580 309 59
17:55:57.839390 296.74 1300 3224 13932 -1809 342 95
17:55:57.850974 296.75 1132 3168 13872 -1872 199 80
17:55:57.851288 296.76 1368 3172 14312 -1734 131 65
17:55:57.857929 296.77 1328 3072 14084 -1951 418 153
17:55:57.882309 296.78 1252 3100 13508 -2705 500 146
17:55:57.890684 296.79 1448 2880 14052 -2095 155 101
17:55:57.909052 296.8 1520 3000 14640 -854 261 50
17:55:57.919536 296.81 1228 3112 14128 -1423 45 72
17:55:57.919698 296.82 1328 2948 13884 -2157 154 141
17:55:57.919812 296.83 1348 2788 13800 -2066 279 142
17:55:57.925648 296.84 1264 2664 13564 -2215 -61 241
17:55:57.943066 296.85 1260 2624 13900 -1750 -199 208
17:55:57.957398 296.86 1528 2644 14464 -921 -205 135
17:55:57.959929 296.87 1372 2792 14404 -977 -108 92
17:55:57.980723 296.88 1304 2824 14380 -1443 122 122
17:55:57.986229 296.89 1300 2748 14312 -1751 321 136
17:55:58.005851 296.9 1216 2904 14308 -1720 377 134
17:55:58.018676 296.91 1340 2628 14148 -1680 307 91
17:55:58.045957 296.92 1340 2616 13996 -1803 320 126
17:55:58.051261 296.93 1332 2552 13976 -1772 379 99
17:55:58.051392 296.94 1400 2488 13976 -1853 290 107
17:55:58.051499 296.95 1332 2304 13892 -1697 179 116
17:55:58.062576 296.96 1312 2336 13960 -1308 -45 110
17:55:58.090521 296.97 1380 2304 14076 -1059 -56 98
17:55:58.090626 296.98 1432 2356 14200 -1108 15 118
17:55:58.109410 296.99 1396 2292 14368 -1118 207 67
17:55:58.118316 297.0 1312 2204 14176 -1153 255 68
17:55:58.126166 297.01 1280 2332 14264 -1268 157 82
17:55:58.127373 297.02 1292 2256 14132 -1245 170 103
17:55:58.128624 297.03 1396 2152 14280 -1319 188 91
17:55:58.143895 297.04 1384 2196 14160 -1422 97 105
17:55:58.160112 297.05 1312 2004 14196 -1368 58 93
17:55:58.161712 297.06 1412 2128 14196 -1287 98 94
17:55:58.173225 297.07 1464 2092 14104 -1329 177 64
17:55:58.206775 297.08 1444 2008 14140 -1271 192 70
17:55:58.220674 297.09 1276 1988 14308 -1162 218 49
17:55:58.220983 297.1 1416 2016 14248 -1019 194 27
17:55:58.221421 297.11 1236 2088 14352 -1042 152 10
17:55:58.221858 297.12 1348 2004 14448 -969 300 -10
17:55:58.248349 297.13 1308 2004 14100 -1143 204 61
17:55:58.256971 297.14 1196 2080 13964 -1534 141 81
17:55:58.257380 297.15 1312 1924 14136 -1417 -65 98
17:55:58.259279 297.16 1460 1864 14388 -780 -110 37
17:55:58.278401 297.17 1476 1904 14236 -761 -65 43
17:55:58.288333 297.18 1472 1876 14112 -1088 9 70
17:55:58.295307 297.19 1344 1872 14116 -1151 19 53
17:55:58.296566 297.2 1384 1844 14172 -1129 6 66
17:55:58.318172 297.21 1424 1964 14204 -1125 -21 55
17:55:58.326381 297.22 1444 1896 14348 -1132 35 28
17:55:58.345300 297.23 1412 1824 14392 -1116 101 12
17:55:58.357550 297.24 1432 1888 14348 -1052 208 4
17:55:58.357711 297.25 1452 1704 14324 -1190 282 -22
17:55:58.381602 297.26 1404 1720 14184 -1307 175 26
17:55:58.392429 297.27 1380 1636 14368 -1346 135 24
17:55:58.392611 297.28 1432 1584 14208 -1202 20 27
17:55:58.392759 297.29 1388 1632 14128 -1103 -5 57
17:55:58.397934 297.3 1572 1620 14216 -963 15 30
17:55:58.426591 297.31 1476 1528 14240 -788 81 0
17:55:58.429091 297.32 1384 1436 14428 -547 95 4
17:55:58.444880 297.33 1420 1548 14408 -544 128 -10
17:55:58.454536 297.34 1228 1480 14156 -630 132 -17
17:55:58.454705 297.35 1360 1492 14044 -589 79 6
17:55:58.457966 297.36 1440 1588 14100 -586 26 48
17:55:58.483107 297.37 1492 1488 14168 -527 37 57
17:55:58.493691 297.38 1484 1504 14184 -241 81 16
17:55:58.498431 297.39 1508 1376 14244 -153 163 14
17:55:58.499204 297.4 1412 1532 14056 -21 225 16
17:55:58.524771 297.41 1424 1532 14112 183 176 -14
17:55:58.550219 297.42 1488 1536 14096 188 199 4
17:55:58.559947 297.43 1528 1524 14152 271 238 -25
17:55:58.560070 297.44 1484 1548 14216 389 228 -7
17:55:58.560201 297.45 1444 1508 14184 432 178 -26
17:55:58.560460 297.46 1368 1536 14212 566 195 -6
17:55:58.574645 297.47 1396 1680 14124 641 201 -39
17:55:58.593922 297.48 1396 1648 14168 742 235 -43
17:55:58.614338 297.49 1484 1636 14300 934 257 -71
17:55:58.624218 297.5 1444 1760 14160 1022 217 -82
17:55:58.624391 297.51 1412 1656 14068 1101 181 -82
17:55:58.632526 297.52 1456 1704 14048 1284 92 -93
17:55:58.657272 297.53 1552 1784 14040 1385 115 -68
17:55:58.674534 297.54 1456 1784 14128 1429 105 -75
17:55:58.688944 297.55 1552 1764 14048 1681 60 -62
17:55:58.689112 297.56 1440 1780 14292 1801 128 -108
17:55:58.692397 297.57 1424 1856 14456 1895 213 -115
17:55:58.694265 297.58 1496 1864 14260 2032 212 -142
17:55:58.697870 297.59 1468 2076 14392 2120 282 -165
17:55:58.715589 297.6 1468 2132 14384 1960 401 -168
17:55:58.724428 297.61 1480 2080 14276 1806 283 -185
17:55:58.727778 297.62 1540 2084 14092 1542 255 -153
17:55:58.778493 297.63 1540 2112 14024 1459 270 -118
17:55:58.790201 297.64 1464 2172 14140 1740 258 -146
17:55:58.790453 297.65 1552 2216 14380 2068 188 -161
17:55:58.790627 297.66 1512 2332 14292 2086 211 -165
17:55:58.790793 297.67 1440 2428 14168 1788 292 -174
17:55:58.797667 297.68 1252 2440 14004 1483 308 -149
17:55:58.799335 297.69 1344 2360 14116 1507 158 -135
17:55:58.821195 297.7 1452 2432 14508 1619 119 -117
17:55:58.827534 297.71 1320 2576 14084 1070 622 -60
17:55:58.829269 297.72 1436 2608 13672 344 460 -89
17:55:58.851505 297.73 1568 2512 14360 1019 328 -173
17:55:58.856774 297.74 1492 2592 14424 2278 155 -222
17:55:58.888910 297.75 1504 2848 14036 1271 145 -148
17:55:58.891487 297.76 1352 2644 14028 831 627 -143
17:55:58.918879 297.77 1220 2740 13640 502 333 -23
17:55:58.923084 297.78 1332 2540 13608 387 52 -14
17:55:58.923252 297.79 1552 2480 13892 1002 -10 -52
17:55:58.923386 297.8 1524 2636 14204 1564 -201 -83
17:55:58.923688 297.81 1576 2800 14452 1630 -59 -140
17:55:58.948428 297.82 1356 2756 14152 1244 228 -144
17:55:58.961760 297.83 1232 2984 14296 1158 257 -120
17:55:58.983408 297.84 1400 3024 14176 1157 229 -131
17:55:58.992318 297.85 1440 3060 14296 1112 314 -154
17:55:58.992578 297.86 1448 2936 14032 979 408 -164
17:55:58.992798 297.87 1412 2956 14068 885 401 -177
17:55:59.016942 297.88 1380 3068 14000 810 423 -148
17:55:59.027056 297.89 1364 2976 14008 880 286 -102
17:55:59.027196 297.9 1504 2972 13908 1147 148 -155
17:55:59.049804 297.91 1528 3044 14000 1232 27 -156
17:55:59.058536 297.92 1536 3064 14116 1165 105 -80
17:55:59.058701 297.93 1556 3180 14116 1025 194 -114
17:55:59.058856 297.94 1540 3068 14044 972 250 -116
17:55:59.065757 297.95 1344 3180 14184 873 291 -121
17:55:59.078938 297.96 1328 3116 14036 841 318 -126
17:55:59.097240 297.97 1312 3148 14004 874 216 -143
17:55:59.098703 297.98 1404 3188 13984 830 187 -108
17:55:59.114170 297.99 1464 3156 14012 700 216 -115
17:55:59.121730 298.0 1496 3256 14056 788 189 -124
17:55:59.135304 298.01 1424 3268 14088 708 234 -127
17:55:59.155967 298.02 1400 3360 13972 725 275 -119
17:55:59.156134 298.03 1308 3292 14064 858 229 -111
17:55:59.156298 298.04 1456 3400 14024 811 159 -139
17:55:59.170451 298.05 1332 3468 14128 942 311 -174
17:55:59.195453 298.06 1544 3492 13964 715 416 -117
17:55:59.195582 298.07 1340 3424 13828 400 343 -37
17:55:59.219444 298.08 1436 3380 13880 412 346 -92
17:55:59.231212 298.09 1392 3392 13868 584 164 -105
17:55:59.231386 298.1 1464 3388 14124 754 124 -104
17:55:59.231575 298.11 1344 3588 13996 507 170 -67
17:55:59.251728 298.12 1376 3484 14008 368 213 -81
17:55:59.259432 298.13 1224 3480 13964 380 91 -47
17:55:59.267851 298.14 1384 3544 14132 435 97 -73
17:55:59.296131 298.15 1448 3556 13844 436 167 -73
17:55:59.297314 298.16 1368 3560 14032 481 136 -113
17:55:59.298752 298.17 1424 3536 14132 519 161 -102
17:55:59.318142 298.18 1400 3660 13944 408 276 -78
17:55:59.331198 298.19 1348 3616 13852 264 312 -102
17:55:59.331970 298.2 1420 3676 14000 247 259 -84
17:55:59.353152 298.21 1516 3612 13932 245 213 -83
17:55:59.360571 298.22 1300 3568 13880 100 234 -71
17:55:59.367485 298.23 1352 3572 13912 178 232 -75
17:55:59.369161 298.24 1444 3508 13796 315 206 -84
17:55:59.390104 298.25 1368 3588 14000 324 162 -89
17:55:59.391670 298.26 1288 3620 13972 259 286 -98
17:55:59.418353 298.27 1172 3628 13824 214 253 -67
17:55:59.429269 298.28 1356 3620 13932 154 178 -56
17:55:59.429507 298.29 1396 3692 13828 59 249 -36
17:55:59.429672 298.3 1404 3708 13916 26 229 -42
17:55:59.451218 298.31 1368 3692 13808 -9 260 -66
17:55:59.463318 298.32 1372 3688 13892 31 192 -60
17:55:59.493689 298.33 1372 3628 13948 2 239 -33
17:55:59.495826 298.34 1284 3680 14068 -27 239 -52
17:55:59.495998 298.35 1308 3792 14032 24 220 -43
17:55:59.498379 298.36 1484 3720 13920 -38 302 -57
17:55:59.520889 298.37 1416 3652 13820 -149 220 -23
17:55:59.529410 298.38 1356 3672 13992 -235 195 -24
17:55:59.547074 298.39 1464 3712 13848 -227 219 8
17:55:59.578784 298.4 1404 3736 13916 -268 174 0
17:55:59.599250 298.41 1336 3696 13816 -336 218 -12
17:55:59.599363 298.42 1352 3616 13936 -328 227 3
17:55:59.599436 298.43 1416 3696 14044 -325 208 0
17:55:59.599503 298.44 1424 3616 14004 -418 260 -37
17:55:59.599569 298.45 1460 3716 13848 -510 272 14
17:55:59.612341 298.46 1324 3756 14024 -689 250 17
17:55:59.624883 298.47 1408 3716 13904 -1404 573 -22
17:55:59.629347 298.48 1428 3756 13960 -1898 719 4
17:55:59.651297 298.49 1352 3620 14008 -1988 609 36
17:55:59.660887 298.5 1420 3488 14132 -1174 153 49
17:55:59.661008 298.51 1452 3596 14108 -1052 191 13
17:55:59.667361 298.52 1404 3448 13968 -1273 281 12
17:55:59.668436 298.53 1268 3424 14084 -1174 201 -10
17:55:59.711616 298.54 1236 3376 14128 -983 104 6
17:55:59.730483 298.55 1312 3384 14056 -933 39 38
17:55:59.730658 298.56 1352 3488 14004 -861 32 26
17:55:59.730965 298.57 1292 3412 14140 -869 12 65
17:55:59.731069 298.58 1396 3292 14104 -1165 46 54
17:55:59.731149 298.59 1396 3268 13916 -1555 62 121
17:55:59.749158 298.6 1368 3156 13852 -1705 45 106
17:55:59.795382 298.61 1448 3272 13992 -1595 193 94
17:55:59.798612 298.62 1468 3156 14212 -1327 280 67
17:55:59.799730 298.63 1300 3168 14236 -1310 270 50
17:55:59.800931 298.64 1400 3228 14096 -1543 307 44
17:55:59.802397 298.65 1376 3084 13696 -1768 362 54
17:55:59.824619 298.66 1320 3132 13824 -1727 194 106
17:55:59.898078 298.67 1268 3044 14228 -1621 123 136
17:55:59.910202 298.68 1252 3212 14064 -1944 377 161
17:55:59.910301 298.69 1276 3088 13540 -2595 399 184
17:55:59.910370 298.7 1564 2900 14368 -1766 171 83
17:55:59.910437 298.71 1520 3012 14524 -901 214 34
17:55:59.910502 298.72 1408 3000 13828 -1918 -89 141
17:55:59.910565 298.73 1312 2780 13908 -2051 199 140
17:55:59.932125 298.74 1268 2560 13904 -1941 -43 245
17:55:59.945679 298.75 1348 2616 13768 -1819 -77 213
17:55:59.945889 298.76 1504 2544 14552 -982 -146 142
17:55:59.946122 298.77 1600 2824 14416 -933 -59 107
17:55:59.975539 298.78 1396 2820 14340 -1559 205 107
17:55:59.980701 298.79 1256 2796 14140 -1769 334 128
17:55:59.981609 298.8 1252 2636 14196 -1792 338 113
17:55:59.982827 298.81 1368 2696 14168 -1644 274 95
17:55:59.985349 298.82 1464 2596 14224 -1769 315 76
17:55:59.986917 298.83 1332 2588 14104 -1923 368 102
17:56:00.005446 298.84 1352 2484 14016 -2050 338 89
17:56:00.013490 298.85 1456 2408 13804 -1927 168 117
17:56:00.077542 298.86 1380 2240 13864 -1625 18 133
17:56:00.079179 298.87 1416 2312 14168 -1372 -53 104
17:56:00.079840 298.88 1500 2224 14368 -1186 7 109
17:56:00.080940 298.89 1488 2248 14328 -1089 45 93
17:56:00.085295 298.9 1508 2316 14296 -1159 227 79
17:56:00.090173 298.91 1448 2312 14176 -1200 185 65
17:56:00.090760 298.92 1496 2244 14248 -1219 150 69
17:56:00.106425 298.93 1528 2284 14276 -1234 150 78
17:56:00.111916 298.94 1484 2232 14104 -1342 171 73
17:56:00.112045 298.95 1388 2144 14268 -1364 203 68
17:56:00.132081 298.96 1372 2108 14152 -1398 190 91
17:56:00.145640 298.97 1408 2092 14212 -1415 191 64
17:56:00.145814 298.98 1388 1972 14044 -1419 210 67
17:56:00.184473 298.99 1440 2032 14044 -1327 183 52
17:56:00.209197 299.0 1352 2100 14180 -1167 120 42
17:56:00.211203 299.01 1432 2164 14192 -1101 122 39
17:56:00.212422 299.02 1396 2064 14280 -928 303 45
17:56:00.213540 299.03 1312 2084 14168 -1002 246 133
17:56:00.214663 299.04 1512 2056 14024 -1434 211 63
17:56:00.223607 299.05 1456 1816 14044 -1100 -111 53
17:56:00.245070 299.06 1352 1820 14372 -679 -124 33
17:56:00.281304 299.07 1520 1860 14140 -902 -73 32
17:56:00.308343 299.08 1448 1892 14304 -1159 28 44
17:56:00.323153 299.09 1312 1728 14272 -1096 -26 79
17:56:00.338108 299.1 1520 1836 14260 -1019 -54 61
17:56:00.353010 299.11 1424 1876 14420 -961 31 11
17:56:00.353606 299.12 1552 1772 14296 -958 138 10
17:56:00.353856 299.13 1400 1752 14360 -825 137 18
17:56:00.354271 299.14 1536 1680 14360 -837 241 -10
17:56:00.354893 299.15 1404 1688 14284 -955 227 -3
17:56:00.355277 299.16 1444 1600 14212 -809 126 -2
17:56:00.419907 299.17 1572 1652 14136 -730 100 21
17:56:00.429204 299.18 1496 1620 14072 -615 98 4
17:56:00.429359 299.19 1400 1540 13980 -451 69 12
17:56:00.429464 299.2 1508 1604 14024 -135 81 -16
17:56:00.429603 299.21 1524 1592 14116 99 84 -29
17:56:00.429728 299.22 1680 1536 14256 218 82 -36
17:56:00.459755 299.23 1496 1720 14188 293 182 3
17:56:00.472688 299.24 1384 1668 14184 306 234 -8
17:56:00.472800 299.25 1428 1696 14168 363 232 -8
17:56:00.472877 299.26 1520 1644 14040 523 251 -21
17:56:00.511143 299.27 1536 1704 14204 604 254 -60
17:56:00.517532 299.28 1464 1700 14184 694 284 -54
17:56:00.517661 299.29 1428 1744 14208 761 244 -63
17:56:00.517767 299.3 1432 1816 14152 852 204 -58
17:56:00.517872 299.31 1412 1796 14120 981 215 -92
17:56:00.519669 299.32 1324 1792 14360 1074 225 -66
17:56:00.523748 299.33 1400 1904 14124 924 292 -73
17:56:00.525787 299.34 1468 1796 14236 1034 197 -99
17:56:00.542572 299.35 1484 1928 14064 1107 162 -87
17:56:00.572743 299.36 1524 1976 14232 1058 269 -118
17:56:00.580628 299.37 1440 1908 14084 1092 270 -108
17:56:00.580814 299.38 1404 1992 14168 1182 189 -96
17:56:00.635186 299.39 1460 2048 14192 1215 229 -123
17:56:00.648415 299.4 1492 1976 14272 1260 227 -151
17:56:00.648757 299.41 1444 2132 14208 1174 212 -118
17:56:00.649164 299.42 1452 2064 14356 1168 270 -137
17:56:00.649581 299.43 1472 2120 14136 1280 324 -158
17:56:00.649978 299.44 1424 2176 14240 1311 281 -142
17:56:00.650371 299.45 1480 2240 14268 1217 336 -164
17:56:00.657809 299.46 1508 2228 14288 1105 422 -150
17:56:00.659203 299.47 1536 2244 14100 955 373 -137
17:56:00.706849 299.48 1496 2240 14116 775 321 -147
17:56:00.725772 299.49 1412 2280 14000 740 344 -147
17:56:00.728244 299.5 1412 2256 14124 882 320 -124
17:56:00.749395 299.51 1432 2312 14340 1138 409 -185
17:56:00.749668 299.52 1340 2356 14272 1187 379 -182
17:56:00.750018 299.53 1360 2440 14316 1083 366 -135
17:56:00.750358 299.54 1228 2320 14032 824 349 -141
17:56:00.791502 299.55 1392 2404 14004 759 240 -93
17:56:00.805613 299.56 1416 2440 14156 1058 116 -65
17:56:00.825711 299.57 1424 2536 14372 958 411 -53
17:56:00.827109 299.58 1308 2760 13712 222 588 -22
17:56:00.847450 299.59 1420 2460 14048 304 267 -58
17:56:00.847548 299.6 1620 2552 14592 1373 463 -178
17:56:00.847618 299.61 1316 2720 14180 1372 120 -117
17:56:00.847683 299.62 1516 2660 14104 631 305 -105
17:56:00.847747 299.63 1224 2656 13672 315 245 8
17:56:00.847810 299.64 1440 2532 13564 -72 -12 108
17:56:00.850204 299.65 1452 2448 13952 674 5 44
17:56:00.878613 299.66 1440 2560 14384 1270 -213 -8
17:56:00.885124 299.67 1524 2640 14508 1254 -48 -47
17:56:00.885261 299.68 1352 2744 14296 1100 142 -120
17:56:00.908630 299.69 1276 2852 14280 1001 136 -67
17:56:00.918829 299.7 1216 2892 14268 842 243 -83
17:56:00.918991 299.71 1408 2944 14212 836 257 -133
17:56:00.919063 299.72 1424 2884 14084 847 278 -138
17:56:00.925245 299.73 1404 2892 14044 703 429 -109
17:56:00.940222 299.74 1320 2800 13852 674 246 -122
17:56:00.955152 299.75 1388 2800 14008 816 79 -117
17:56:00.972257 299.76 1440 2796 14036 987 7 -75
17:56:00.985421 299.77 1520 2860 14212 1058 21 -59
17:56:00.985584 299.78 1508 2908 14192 955 86 -92
17:56:00.993615 299.79 1484 2924 14184 906 142 -99
17:56:01.007951 299.8 1464 3036 14112 840 237 -83
17:56:01.017460 299.81 1432 3064 14104 740 222 -87
17:56:01.023504 299.82 1408 3056 14000 725 185 -70
17:56:01.041839 299.83 1356 3084 14116 700 177 -55
17:56:01.074321 299.84 1440 3040 14096 742 148 -59
17:56:01.084001 299.85 1516 3020 14080 691 160 -101
17:56:01.084295 299.86 1448 3088 14092 622 208 -74
17:56:01.092591 299.87 1396 3076 13904 668 213 -46
17:56:01.094661 299.88 1412 3132 14060 842 136 -83
17:56:01.119138 299.89 1392 3276 14080 934 117 -99
17:56:01.119561 299.9 1504 3208 14196 1034 81 -106
17:56:01.128253 299.91 1352 3384 14192 964 457 -132
17:56:01.142245 299.92 1392 3304 13916 604 261 -50
17:56:01.152468 299.93 1380 3336 13772 431 320 -83
17:56:01.154198 299.94 1312 3324 13936 588 168 -66
17:56:01.174974 299.95 1452 3304 14124 924 42 -89
17:56:01.184053 299.96 1456 3360 14044 807 78 -113
17:56:01.211852 299.97 1348 3328 14008 452 186 -47
17:56:01.221486 299.98 1360 3456 13952 478 92 -51
17:56:01.221718 299.99 1496 3472 14084 531 31 -55
17:56:01.222080 300.0 1400 3480 13928 486 65 -88
17:56:01.225293 300.01 1492 3472 14028 503 111 -88
17:56:01.243573 300.02 1476 3392 13808 609 105 -82
17:56:01.257373 300.03 1400 3572 14152 580 119 -79
17:56:01.259882 300.04 1412 3464 13984 471 222 -98
17:56:01.264013 300.05 1404 3520 13920 398 239 -83
17:56:01.285334 300.06 1444 3456 14084 382 228 -113
17:56:01.285642 300.07 1456 3408 14076 389 242 -90
17:56:01.310637 300.08 1476 3524 13824 229 197 -73
17:56:01.318397 300.09 1520 3424 13992 246 177 -34
17:56:01.322814 300.1 1384 3504 13872 309 160 -44
17:56:01.351134 300.11 1420 3564 14032 275 207 -82
17:56:01.352094 300.12 1336 3588 13952 322 236 -72
17:56:01.353351 300.13 1336 3536 13800 273 202 -62
17:56:01.376983 300.14 1404 3672 14052 234 258 -77
17:56:01.384830 300.15 1500 3512 13984 240 216 -42
17:56:01.392360 300.16 1508 3616 14040 247 235 -57
17:56:01.393730 300.17 1368 3520 13848 358 -93 19
17:56:01.405272 300.18 1484 3596 13828 543 -90 29
17:56:01.422179 300.19 1364 3756 14004 286 171 -32
17:56:01.430630 300.2 1392 3636 13900 305 155 -18
17:56:01.455081 300.21 1352 3780 14092 261 110 -20
17:56:01.455449 300.22 1400 3748 14088 88 273 -62
17:56:01.455779 300.23 1372 3724 13952 82 281 -47
17:56:01.465371 300.24 1380 3724 13924 122 341 -60
17:56:01.486611 300.25 1332 3676 14096 94 367 -84
17:56:01.487893 300.26 1280 3700 14092 134 405 -70
17:56:01.513536 300.27 1416 3596 13948 56 316 -97
17:56:01.520159 300.28 1356 3772 13776 78 299 -94
17:56:01.527672 300.29 1388 3624 14092 140 273 -80
17:56:01.529527 300.3 1560 3716 13928 106 253 -90
17:56:01.550016 300.31 1456 3644 13900 50 293 -78
17:56:01.554597 300.32 1396 3696 14068 81 258 -55
17:56:01.562800 300.33 1560 3756 13984 30 237 -86
17:56:01.574571 300.34 1388 3724 13948 -32 290 -82
17:56:01.588314 300.35 1468 3684 13928 -27 277 -52
17:56:01.589583 300.36 1376 3640 13896 -93 285 -47
17:56:01.610186 300.37 1384 3716 14008 -110 226 -43
17:56:01.619600 300.38 1476 3716 13884 -122 231 -69
17:56:01.632457 300.39 1396 3772 13944 -208 257 -26
17:56:01.653655 300.4 1336 3760 13928 -230 223 -24
17:56:01.654072 300.41 1392 3752 13840 -220 241 -31
17:56:01.654487 300.42 1408 3744 13888 -235 247 -58
17:56:01.680213 300.43 1460 3716 14032 -270 238 -30
17:56:01.690897 300.44 1376 3792 13976 -317 272 -20
17:56:01.711373 300.45 1432 3764 13832 -303 279 -20
17:56:01.719198 300.46 1288 3712 13932 -429 219 -29
17:56:01.719630 300.47 1416 3824 13928 -665 319 -17
17:56:01.730028 300.48 1480 3716 13764 -831 276 -7
17:56:01.731752 300.49 1404 3688 13820 -889 229 3
17:56:01.756886 300.5 1452 3632 13944 -864 361 -2
17:56:01.757337 300.51 1372 3660 14212 -704 352 -44
17:56:01.757748 300.52 1320 3744 13940 -755 285 -31
17:56:01.766026 300.53 1360 3656 13988 -994 284 -6
17:56:01.790308 300.54 1396 3580 13856 -1317 323 36
17:56:01.792004 300.55 1372 3456 13848 -1321 187 53
17:56:01.846450 300.56 1540 3532 14060 -1107 45 91
17:56:01.908493 300.57 1380 3544 14096 -1280 253 127
17:56:01.922779 300.58 1364 3532 13520 -2096 466 133
17:56:01.922950 300.59 1500 3388 14044 -1696 229 81
17:56:01.923065 300.6 1624 3492 14584 -607 347 -2
17:56:01.923307 300.61 1376 3564 14048 -1216 12 64
17:56:01.923538 300.62 1504 3376 13948 -1703 344 55
17:56:01.924111 300.63 1316 3256 13848 -1672 318 90
17:56:01.925213 300.64 1212 3160 13620 -2109 -54 234
17:56:01.927062 300.65 1388 3012 13648 -1844 -117 228
17:56:01.931011 300.66 1520 3080 14304 -705 -384 154
17:56:01.931989 300.67 1548 3248 14328 -903 -169 99
17:56:01.932888 300.68 1276 3260 13980 -1310 38 149
17:56:01.935825 300.69 1316 3268 14308 -1397 223 99
17:56:01.954245 300.7 1236 3232 14248 -1333 231 84
17:56:01.962943 300.71 1356 3216 14216 -1264 260 30
17:56:01.964356 300.72 1408 3228 14064 -1355 310 36
17:56:01.980663 300.73 1412 3096 13924 -1539 392 78
17:56:01.990035 300.74 1360 3040 13728 -1638 287 81
17:56:01.990379 300.75 1300 2960 13840 -1513 106 115
17:56:02.013945 300.76 1368 2824 13972 -1221 -3 100
17:56:02.030223 300.77 1440 2852 14016 -1034 78 118
17:56:02.031774 300.78 1416 2832 14328 -1023 103 110
17:56:02.044957 300.79 1424 2988 14212 -1233 243 103
17:56:02.053835 300.8 1472 2852 14024 -1390 298 117
17:56:02.067625 300.81 1408 2816 14144 -1418 201 101
17:56:02.087448 300.82 1332 2776 14112 -1380 163 107
17:56:02.087627 300.83 1496 2656 14284 -1367 119 119
17:56:02.087757 300.84 1540 2700 14208 -1374 181 132
17:56:02.087906 300.85 1408 2744 14068 -1354 166 118
17:56:02.112065 300.86 1440 2704 14052 -1331 190 110
17:56:02.120495 300.87 1464 2592 13960 -1360 232 79
17:56:02.125671 300.88 1296 2716 14092 -1293 185 70
17:56:02.149145 300.89 1492 2596 13988 -1133 192 92
17:56:02.157693 300.9 1412 2648 14180 -1053 235 64
17:56:02.165104 300.91 1388 2652 14320 -1133 272 42
17:56:02.167702 300.92 1500 2596 14180 -1048 447 10
17:56:02.189541 300.93 1436 2492 14012 -1104 305 85
17:56:02.189703 300.94 1404 2516 13692 -1401 231 67
17:56:02.200668 300.95 1488 2520 14040 -1315 86 90
17:56:02.226911 300.96 1432 2336 14328 -816 -3 59
17:56:02.227074 300.97 1496 2388 14208 -764 -16 68
17:56:02.252290 300.98 1428 2436 14044 -1050 96 51
17:56:02.259093 300.99 1212 2412 14204 -1087 94 70
17:56:02.259217 301.0 1420 2376 14184 -1057 50 97
17:56:02.260813 301.01 1452 2472 14332 -1071 107 52
17:56:02.285419 301.02 1512 2508 14376 -1210 194 32
17:56:02.291102 301.03 1452 2376 14336 -1186 256 28
17:56:02.298474 301.04 1412 2300 14024 -1157 205 33
17:56:02.326524 301.05 1352 2300 14128 -1163 215 21
17:56:02.328995 301.06 1488 2268 14140 -1282 299 15
17:56:02.330120 301.07 1416 2152 14172 -1393 237 46
17:56:02.332133 301.08 1524 2116 14104 -1317 168 42
17:56:02.346724 301.09 1480 2184 14076 -1221 136 72
17:56:02.359276 301.1 1452 2108 14156 -1204 126 55
17:56:02.365734 301.11 1440 1984 14256 -1099 160 52
17:56:02.383149 301.12 1464 1976 14116 -959 153 10
17:56:02.411016 301.13 1432 2032 14212 -848 126 -11
17:56:02.425504 301.14 1436 2056 14344 -766 52 23
17:56:02.425624 301.15 1512 1980 14044 -813 121 37
17:56:02.425714 301.16 1468 2120 14172 -929 125 59
17:56:02.425798 301.17 1576 1988 14008 -778 108 33
17:56:02.447571 301.18 1524 1940 14220 -676 144 33
17:56:02.465493 301.19 1508 1940 14212 -478 109 15
17:56:02.467250 301.2 1348 1992 14080 -295 73 22
17:56:02.508868 301.21 1532 1956 14012 -234 149 18
17:56:02.522876 301.22 1468 1980 14072 -29 133 11
17:56:02.522997 301.23 1588 2012 14092 45 100 -4
17:56:02.523092 301.24 1416 1996 14180 127 100 -3
17:56:02.523185 301.25 1460 1900 14116 219 176 -13
17:56:02.523247 301.26 1392 1944 14152 291 150 8
17:56:02.523308 301.27 1436 1984 14252 404 125 -30
17:56:02.537943 301.28 1460 2012 14260 522 222 -26
17:56:02.560187 301.29 1472 1916 14088 555 196 -61
17:56:02.560334 301.3 1432 2004 14060 689 148 -79
17:56:02.579545 301.31 1568 2120 14316 806 178 -75
17:56:02.590308 301.32 1452 2128 14048 927 154 -97
17:56:02.600467 301.33 1456 2084 13996 1084 173 -98
17:56:02.601774 301.34 1520 2044 14216 1225 123 -75
17:56:02.622793 301.35 1540 2176 14084 1272 117 -111
17:56:02.624602 301.36 1496 2248 14180 1358 131 -134
17:56:02.636368 301.37 1400 2080 14352 1427 152 -142
17:56:02.657268 301.38 1420 2168 14120 1485 139 -128
17:56:02.657717 301.39 1496 2276 14260 1573 179 -134
17:56:02.686422 301.4 1332 2308 14164 1612 215 -153
17:56:02.696511 301.41 1524 2292 14028 1667 237 -156
17:56:02.696602 301.42 1512 2372 14012 1756 214 -177
17:56:02.696672 301.43 1644 2484 14168 1689 293 -152
17:56:02.703780 301.44 1508 2384 14104 1732 223 -183
17:56:02.731020 301.45 1540 2532 14104 1807 249 -180
17:56:02.754052 301.46 1488 2644 14028 1666 260 -211
17:56:02.765225 301.47 1448 2704 14132 1477 360 -192
17:56:02.765400 301.48 1456 2696 13996 1393 327 -151
17:56:02.765729 301.49 1508 2676 14144 1630 314 -199
17:56:02.765956 301.5 1444 2728 14264 1868 294 -190
17:56:02.786230 301.51 1556 2904 14196 1777 304 -180
17:56:02.797621 301.52 1468 2988 14252 1436 352 -178
17:56:02.800822 301.53 1304 2908 13928 1161 369 -149
17:56:02.817577 301.54 1400 2884 14016 1216 259 -127
17:56:02.825529 301.55 1472 2876 14172 1330 133 -164
17:56:02.848231 301.56 1412 3044 14108 1172 332 -100
17:56:02.860231 301.57 1372 3112 13580 124 441 -57
17:56:02.860715 301.58 1604 2892 14164 756 295 -139
17:56:02.861131 301.59 1552 3112 14132 1626 96 -193
17:56:02.880125 301.6 1584 3272 14272 817 244 -127
17:56:02.896055 301.61 1448 3152 14148 622 476 -103
17:56:02.898933 301.62 1316 3172 13628 116 203 17
17:56:02.914927 301.63 1320 3048 13332 -169 37 34
17:56:02.930188 301.64 1404 2964 13956 594 -16 1
17:56:02.930589 301.65 1512 3008 14368 1111 -282 -39
17:56:02.935712 301.66 1468 3136 14312 1111 -137 -80
17:56:02.953223 301.67 1368 3268 14372 848 31 -59
17:56:02.962129 301.68 1364 3320 14200 654 130 -94
17:56:02.962466 301.69 1340 3344 14096 678 112 -85
17:56:03.001116 301.7 1476 3308 14140 801 139 -103
17:56:03.002266 301.71 1520 3436 14048 794 211 -135
17:56:03.003648 301.72 1440 3352 14028 727 300 -139
17:56:03.020278 301.73 1488 3352 13976 632 247 -125
17:56:03.029081 301.74 1412 3300 13856 540 174 -62
17:56:03.032599 301.75 1480 3292 14052 775 129 -61
17:56:03.063459 301.76 1528 3356 14052 786 81 -89
17:56:03.066097 301.77 1528 3244 13908 703 115 -93
17:56:03.066426 301.78 1564 3444 14112 592 213 -70
17:56:03.083662 301.79 1440 3548 13988 553 209 -67
17:56:03.093938 301.8 1520 3464 14064 503 256 -100
17:56:03.102765 301.81 1420 3428 13932 463 248 -95
17:56:03.104290 301.82 1432 3440 13976 377 272 -68
17:56:03.120010 301.83 1376 3476 13980 316 283 -58
17:56:03.153331 301.84 1320 3448 13984 295 299 -56
17:56:03.161045 301.85 1448 3480 13892 370 254 -90
17:56:03.161310 301.86 1428 3444 13992 357 240 -85
17:56:03.161607 301.87 1568 3544 13868 337 197 -62
17:56:03.162019 301.88 1552 3580 13976 429 165 -70
17:56:03.185958 301.89 1448 3652 13892 470 82 -72
17:56:03.194058 301.9 1492 3628 14252 647 258 -110
17:56:03.197826 301.91 1336 3728 14124 493 438 -105
17:56:03.205867 301.92 1404 3560 13976 170 323 -39
17:56:03.229996 301.93 1368 3556 13656 74 378 -56
17:56:03.230356 301.94 1496 3540 13996 268 214 -60
17:56:03.235164 301.95 1492 3576 13972 489 126 -71
