415.58,1256,3024,13964,182,207,-30
415.59,1256,3076,14156,413,192,-29
415.6,1300,3100,14080,332,188,20
415.61,1100,3156,13576,-631,230,131
415.62,1296,2980,13816,-467,-20,97
415.63,1448,3136,14652,1200,367,-124
415.64,1308,3408,14528,1353,421,-127
415.65,1192,3376,14036,158,140,5
415.66,1188,3156,14092,146,376,-8
415.67,1140,3368,13572,-350,110,84
415.68,1140,3128,13480,-646,-112,135
415.69,1304,2928,13788,164,12,60
415.7,1472,3092,14016,534,-60,5
415.71,1316,3252,14236,624,-102,-17
415.72,1212,3268,14148,502,17,19
415.73,1192,3376,14084,301,121,6
415.74,1288,3344,14112,232,168,1
415.75,1400,3524,14288,227,223,-23
415.76,1376,3268,14040,166,330,-67
415.77,1376,3372,13880,278,276,-77
415.78,1460,3240,13800,233,285,-40
415.79,1356,3132,13684,449,280,-55
415.8,1296,3292,13828,866,156,-42
415.81,1320,3188,13932,891,125,-63
415.82,1316,3324,13908,845,182,-49
415.83,1324,3300,13992,800,169,-24
415.84,1236,3388,13968,711,179,-39
415.85,1236,3368,14108,643,268,-16
415.86,1364,3412,14048,648,350,-48
415.87,1292,3428,13980,671,301,-46
415.88,1304,3436,13888,670,258,-50
415.89,1176,3460,13952,653,253,-73
415.9,1360,3492,13972,734,277,-72
415.91,1176,3580,13992,679,249,-33
415.92,1308,3564,13972,659,262,-72
415.93,1436,3564,14004,808,243,-43
415.94,1248,3624,14016,907,273,-81
415.95,1324,3708,13992,1010,349,-102
415.96,1260,3844,14024,977,314,-95
415.97,1276,3712,14100,927,249,-103
415.98,1220,3700,14240,962,601,-108
415.99,1104,3704,13592,293,231,-29
416.0,1296,3548,13788,310,274,-56
416.01,1324,3756,13916,997,329,-117
416.02,1232,3764,14060,996,237,-113
416.03,1284,3796,14080,693,297,-85
416.04,1296,3808,13916,421,237,-66
416.05,1156,3748,13900,371,209,-46
416.06,1280,3796,13936,421,145,-34
416.07,1360,3892,14008,421,157,-40
416.08,1312,3800,14004,442,182,-65
416.09,1304,3872,13968,469,230,-48
416.1,1336,3932,14084,472,259,-55
416.11,1148,3952,14064,375,296,-65
416.12,1220,3812,13840,358,312,-68
416.13,1296,3920,13764,326,318,-56
416.14,1152,3888,13932,389,300,-70
416.15,1192,3848,13940,446,300,-43
416.16,1296,3964,13916,278,271,-42
416.17,1172,3864,13812,168,253,-41
416.18,1260,3908,13912,193,228,-21
416.19,1200,3960,13996,203,266,-51
416.2,1248,4036,13888,191,263,-44
416.21,1252,3952,13976,130,249,-55
416.22,1236,3996,13944,71,279,-4
416.23,1112,3904,13868,78,263,-46
416.24,1220,3952,13772,86,268,-35
416.25,1220,3972,13972,101,251,-61
416.26,1320,4008,13796,105,270,-35
416.27,1204,4080,13960,100,265,-42
416.28,1196,3920,14036,62,285,-42
416.29,1196,4056,14004,79,264,-49
416.3,1248,4032,13832,64,249,-40
416.31,1192,4000,13916,35,264,-19
416.32,1236,4036,13876,-19,249,-26
416.33,1204,4032,13772,-48,249,-30
416.34,1204,3972,13912,-21,250,-42
416.35,1116,4000,13912,-2,233,-46
416.36,1124,3972,13920,-5,256,-48
416.37,1300,4084,13976,19,295,-41
416.38,1244,4020,13832,-5,259,-51
416.39,1184,4028,13820,4,324,-51
416.4,1296,3948,13888,49,295,-36
416.41,1204,4028,13764,4,319,-56
416.42,1164,3976,13964,-30,278,-44
416.43,1116,4100,13788,-110,282,-46
416.44,1100,4012,13972,-102,266,-29
416.45,1124,4120,14060,-130,231,-33
416.46,1196,4160,13944,-146,226,-22
416.47,1252,4040,13804,-163,225,-13
416.48,1192,4096,13940,-193,243,-28
416.49,1200,4048,13776,-211,224,-9
416.5,1148,4008,13860,-208,241,-7
416.51,1240,4060,14024,-242,226,-5
416.52,1196,4092,13776,-214,249,8
416.53,1164,4048,13880,-256,269,-25
416.54,1244,4072,13904,-298,261,-7
416.55,1172,4004,13808,-309,220,-8
416.56,1196,3968,13844,-309,212,5
416.57,1088,3988,13916,-306,229,-12
416.58,1208,4064,13900,-313,241,16
416.59,1096,4044,13948,-342,248,-19
416.6,1160,3916,13980,-375,228,-19
416.61,1128,4044,13992,-428,259,0
416.62,1280,4076,13940,-508,257,1
416.63,1224,4072,13972,-644,217,-3
416.64,1108,3952,13896,-792,186,10
416.65,1152,3948,13864,-835,172,33
416.66,1152,3952,13972,-642,223,18
416.67,1136,4084,14144,-520,333,-38
416.68,1148,3976,14096,-635,369,-25
416.69,1172,4024,14040,-872,273,-3
416.7,1084,3952,13868,-1084,219,21
416.71,1268,3900,13908,-1086,65,38
416.72,1144,3860,14084,-1161,10,109
416.73,1232,3912,13944,-1537,197,151
416.74,1152,3824,13636,-2249,3,207
416.75,1476,3724,14256,-1605,121,117
416.76,1260,3932,14376,-676,247,25
416.77,1132,3836,13828,-1497,-124,114
416.78,1260,3632,13960,-1719,89,115
416.79,1108,3556,13756,-1714,89,181
416.8,1088,3400,13488,-2400,-345,279
416.81,1216,3276,13676,-1943,-225,270
416.82,1316,3496,14160,-950,-228,155
416.83,1420,3756,14228,-949,-229,125
416.84,1296,3708,14116,-1333,-185,162
416.85,1192,3620,14208,-1646,-75,195
416.86,1148,3596,14068,-1851,-34,247
416.87,1264,3484,14072,-1850,-2,205
416.88,1308,3408,13996,-1707,62,155
416.89,1256,3384,14140,-1777,91,167
416.9,1276,3208,13900,-1815,165,127
416.91,1240,3040,13864,-1707,89,144
416.92,1376,3064,13892,-1504,-35,126
416.93,1380,3128,13996,-1201,41,145
416.94,1348,3064,14148,-1069,-3,113
416.95,1280,3104,14112,-1128,109,63
416.96,1328,3192,14112,-1204,211,87
416.97,1296,3060,13952,-1285,174,97
416.98,1324,2944,14060,-1351,221,94
416.99,1320,3072,14000,-1282,178,62
417.0,1332,2980,14212,-1390,40,107
417.01,1360,3016,14120,-1479,28,112
417.02,1320,2924,14140,-1467,13,112
417.03,1336,2932,14112,-1504,0,112
417.04,1388,2812,14212,-1371,29,116
417.05,1472,2844,14276,-1219,125,59
417.06,1344,2940,14236,-1157,175,44
417.07,1352,2880,14276,-1090,180,31
417.08,1368,2892,14112,-1159,148,37
417.09,1400,2764,14516,-977,253,-22
417.1,1288,2776,14072,-1028,303,71
417.11,1416,2812,13940,-1493,103,45
417.12,1280,2616,13924,-1507,-5,73
417.13,1284,2604,14168,-737,-31,8
417.14,1404,2708,14296,-693,26,-16
417.15,1312,2584,14144,-989,18,26
417.16,1372,2648,14204,-1119,7,84
417.17,1420,2688,14228,-1212,-16,72
417.18,1528,2672,14140,-1213,-39,56
417.19,1428,2572,14224,-1254,-49,29
417.2,1464,2636,14140,-1203,58,-11
417.21,1408,2492,14224,-1184,77,-20
417.22,1276,2492,14144,-1153,80,-12
417.23,1320,2448,14272,-1153,140,-8
417.24,1396,2344,14308,-1251,138,-17
417.25,1476,2344,14188,-1308,129,-2
417.26,1456,2348,14240,-1254,140,-16
417.27,1440,2412,14212,-1248,69,-26
417.28,1292,2404,14176,-1292,-13,-11
417.29,1268,2296,14008,-1284,59,-16
417.3,1356,2312,14252,-1140,-3,-2
417.31,1284,2256,14128,-1098,27,-9
417.32,1448,2284,14224,-1071,18,15
417.33,1312,2332,14156,-1129,19,50
417.34,1412,2268,14240,-1127,34,16
417.35,1420,2264,14208,-1125,87,-2
417.36,1424,2284,14304,-1099,94,5
417.37,1468,2172,14188,-1029,39,-47
417.38,1344,2164,14200,-1152,129,-24
417.39,1328,2172,14220,-1093,103,4
417.4,1404,2092,14320,-975,75,-4
417.41,1420,2152,14260,-1025,143,26
417.42,1500,2024,14208,-1034,83,12
417.43,1496,2000,14192,-994,75,-23
417.44,1464,1984,14412,-918,101,-65
417.45,1368,1936,14112,-984,102,-33
417.46,1468,1980,14168,-1058,84,-49
417.47,1464,1908,14104,-938,92,-21
417.48,1464,1968,14264,-881,89,-10
417.49,1492,1928,14172,-919,135,-45
417.5,1496,1812,14132,-776,55,-3
417.51,1524,1888,14244,-817,128,-26
417.52,1308,1856,14248,-841,101,-60
417.53,1448,1840,14384,-881,117,-35
417.54,1472,1796,14280,-893,79,-53
417.55,1508,1740,14212,-855,50,-55
417.56,1520,1792,14408,-875,86,-46
417.57,1492,1776,14136,-780,99,-40
417.58,1432,1708,14232,-735,80,-21
417.59,1464,1844,14272,-764,83,-1
417.6,1560,1696,14208,-690,97,-27
417.61,1488,1748,14236,-663,72,-32
417.62,1524,1728,14272,-722,151,-14
417.63,1520,1672,14312,-704,91,-39
417.64,1512,1808,14120,-640,101,-1
417.65,1464,1752,14332,-627,173,-15
417.66,1552,1668,14164,-523,101,-8
417.67,1400,1696,14388,-506,140,3
417.68,1584,1664,14324,-564,149,-2
417.69,1496,1712,14204,-589,21,-9
417.7,1548,1536,14152,-535,27,53
417.71,1516,1608,14392,-170,178,18
417.72,1536,1620,14392,34,194,-21
417.73,1508,1736,14264,80,226,-16
417.74,1536,1688,14192,41,168,-15
417.75,1392,1644,14016,-3,107,19
417.76,1544,1540,14176,191,100,58
417.77,1584,1680,14536,436,254,10
417.78,1516,1720,14404,311,474,26
417.79,1364,1732,13600,-617,220,88
417.8,1564,1432,14532,-125,188,87
417.81,1644,1640,14528,1163,283,-68
417.82,1532,1896,13984,489,-38,-16
417.83,1552,1604,14088,216,79,-4
417.84,1544,1728,14452,942,404,-75
417.85,1336,1876,13720,-1,2,70
417.86,1628,1584,13824,-240,70,119
417.87,1580,1628,14352,709,272,45
417.88,1748,1864,14792,1051,416,-25
417.89,1532,1968,14588,956,392,-44
417.9,1492,1996,14512,536,339,-47
417.91,1384,1996,14276,309,382,51
417.92,1404,1904,14424,241,214,74
417.93,1560,1876,14304,203,148,21
417.94,1560,1860,14220,205,221,61
417.95,1444,1780,14004,221,251,22
417.96,1524,1780,14008,393,269,27
417.97,1552,1824,13916,629,295,16
417.98,1612,1872,14236,898,227,12
417.99,1600,1872,14308,1134,235,-26
418.0,1464,1896,14480,1235,288,-25
418.01,1504,1940,14376,1141,320,-43
418.02,1496,1976,14264,1074,329,-51
418.03,1452,2104,14136,1048,347,-40
418.04,1488,2016,14244,992,314,-25
418.05,1572,2080,14204,994,263,-14
418.06,1488,2080,14328,1067,297,-29
418.07,1484,2180,14224,1070,364,-13
418.08,1584,2096,14092,1122,287,-13
418.09,1516,2204,14276,1197,303,-30
418.1,1492,2220,14068,1360,395,-25
418.11,1416,2304,14248,1512,460,-39
418.12,1416,2536,14276,1645,494,-62
418.13,1448,2392,14364,1474,367,-65
418.14,1448,2460,14444,1472,759,-80
418.15,1348,2536,13900,881,392,12
418.16,1432,2444,14052,551,366,-3
418.17,1412,2448,14264,976,389,-40
418.18,1360,2548,14052,858,117,-33
418.19,1504,2404,14192,918,259,-63
418.2,1364,2424,14224,1156,341,-65
418.21,1444,2528,14268,1110,298,-31
418.22,1528,2592,14176,968,313,-36
418.23,1464,2544,14132,799,264,-40
418.24,1444,2656,14104,766,275,-67
418.25,1400,2676,14104,950,310,-64
418.26,1488,2636,14208,1133,342,-96
418.27,1360,2720,14088,1172,421,-91
418.28,1348,2736,14276,1029,413,-90
418.29,1412,2836,14096,878,368,-73
418.3,1404,2732,14032,866,382,-82
418.31,1396,2736,14212,925,392,-91
418.32,1464,2876,14192,827,357,-68
418.33,1368,2788,14152,674,362,-71
418.34,1332,2780,14172,798,376,-60
418.35,1408,2796,14240,984,394,-89
418.36,1332,2924,14076,1036,336,-93
418.37,1312,2928,14172,967,380,-74
418.38,1348,3016,14160,927,316,-51
418.39,1340,3020,14204,918,304,-48
418.4,1420,2996,14100,961,382,-53
418.41,1420,3100,14204,874,399,-46
418.42,1280,3136,14040,805,397,-58
418.43,1324,3132,14096,849,343,-53
418.44,1416,3220,14072,861,347,-71
418.45,1340,3156,13888,848,383,-75
418.46,1180,3132,14092,809,360,-122
418.47,1304,3128,14068,746,343,-83
418.48,1304,3180,14116,723,322,-89
418.49,1232,3132,14032,736,312,-50
418.5,1368,3208,14100,769,270,-71
418.51,1304,3208,14116,754,310,-103
418.52,1284,3224,14104,826,348,-104
418.53,1380,3280,14168,854,310,-107
418.54,1308,3308,14052,827,325,-126
418.55,1376,3324,14076,868,362,-107
418.56,1356,3316,14080,838,343,-101
418.57,1356,3440,13912,703,343,-101
418.58,1260,3316,14116,730,334,-90
418.59,1368,3352,14020,662,305,-73
418.6,1292,3376,13984,714,318,-61
418.61,1220,3348,14004,669,301,-70
418.62,1292,3420,13992,710,303,-78
418.63,1216,3460,14076,735,318,-69
418.64,1348,3368,14064,700,291,-57
418.65,1324,3476,14028,659,283,-90
418.66,1400,3600,14012,664,298,-49
418.67,1280,3564,13900,664,325,-79
418.68,1240,3492,13972,618,304,-81
418.69,1312,3592,14048,676,293,-65
418.7,1336,3560,14192,716,311,-98
418.71,1380,3708,14168,655,319,-95
418.72,1344,3616,14064,634,340,-96
418.73,1360,3676,13952,541,341,-87
418.74,1316,3528,13820,398,294,-73
418.75,1196,3556,13712,312,190,-31
418.76,1236,3620,13812,351,198,-43
418.77,1332,3648,14052,603,287,-75
418.78,1212,3712,14128,755,394,-137
418.79,1196,3828,14156,734,395,-107
418.8,1160,3828,13980,511,369,-95
418.81,1216,3752,13888,303,264,-56
418.82,1256,3740,13932,386,231,-76
418.83,1292,3708,14060,338,218,-58
418.84,1104,3872,13744,-259,403,37
418.85,1296,3644,13712,-623,31,75
418.86,1424,3708,14340,433,421,-100
418.87,1184,3996,14356,962,390,-127
418.88,1252,3828,13968,-61,97,-21
418.89,1252,3768,13860,91,396,-72
418.9,1072,3836,13572,-371,124,61
418.91,1120,3600,13448,-630,-78,146
418.92,1316,3564,13824,153,-7,57
418.93,1456,3620,14004,440,-98,37
418.94,1260,3772,14308,489,-144,17
418.95,1276,3936,14096,439,-47,14
418.96,1144,3892,13900,208,81,3
418.97,1160,3972,13872,173,146,0
418.98,1296,3916,13884,171,189,-47
418.99,1396,3920,14080,206,278,-47
419.0,1228,3932,13908,212,283,-60
419.01,1352,3836,13812,225,293,-31
419.02,1268,3880,13816,349,248,-26
419.03,1340,3768,13788,417,147,-28
419.04,1368,3856,13928,508,134,-31
419.05,1292,3900,13876,435,161,-50
419.06,1360,3872,13928,371,243,-27
419.07,1340,3872,13928,254,264,-61
419.08,1252,3916,14008,165,309,-41
419.09,1240,3836,13876,124,316,-45
419.1,1188,3940,14016,143,272,-38
419.11,1236,3964,13780,106,277,-57
419.12,1256,3948,13924,61,279,-46
419.13,1276,3896,13848,74,266,-55
419.14,1336,3968,13896,89,222,-18
419.15,1336,4008,13768,129,227,-42
419.16,1244,4008,13888,210,249,-22
419.17,1300,4040,13804,227,285,-45
419.18,1280,4084,14000,257,315,-25
419.19,1264,4128,13896,271,205,-35
419.2,1284,4036,14164,484,489,-88
419.21,1116,4104,13704,127,398,-59
419.22,1180,3964,13616,-393,261,17
419.23,1276,3956,13684,124,289,-44
419.24,1324,4020,14008,427,269,-90
419.25,1284,4060,13896,274,202,-79
419.26,1400,4068,13880,22,269,-46
419.27,1144,4048,13844,-58,187,-19
419.28,1296,4072,13968,-20,156,-3
419.29,1232,4076,14020,4,97,9
419.3,1360,4100,13940,78,159,-36
419.31,1232,4072,13896,126,206,-37
419.32,1244,4216,14084,146,223,-54
419.33,1292,4052,13900,67,235,-50
419.34,1300,4120,13936,-23,230,-19
419.35,1236,4024,13840,-81,223,-17
419.36,1220,4016,13712,-12,193,-35
419.37,1212,4076,13888,12,240,-35
419.38,1204,4096,13792,-163,209,-24
419.39,1276,4124,13816,-236,193,-4
419.4,1236,4148,13988,-238,243,11
419.41,1264,4080,13828,-223,223,-8
419.42,1232,4088,13920,-264,241,-12
419.43,1248,3992,13884,-325,218,-14
419.44,1268,4076,13764,-385,187,9
419.45,1352,4116,13916,-419,231,8
419.46,1340,4128,13948,-464,242,-25
419.47,1184,4120,13808,-533,224,43
419.48,1244,4072,13892,-526,225,2
419.49,1212,4100,14020,-549,216,17
419.5,1224,4060,13892,-708,210,44
419.51,1092,3996,13952,-761,173,29
419.52,1184,3916,13928,-790,163,49
419.53,1284,4052,14044,-841,204,31
419.54,1340,4084,13928,-1028,127,85
419.55,1220,3912,13728,-1189,95,84
419.56,1228,3876,13920,-1110,118,66
419.57,1284,3920,13932,-1097,151,70
419.58,1300,3964,13980,-1197,191,52
419.59,1348,3948,13956,-1241,187,43
419.6,1260,3912,14012,-1377,191,90
419.61,1208,3852,13836,-1385,145,84
419.62,1232,3832,13936,-1350,128,99
419.63,1216,3752,14060,-1355,93,107
419.64,1352,3760,13800,-1438,83,112
419.65,1280,3732,14020,-1493,124,99
419.66,1284,3524,13872,-1534,122,129
419.67,1228,3524,13888,-1602,102,139
419.68,1300,3592,13952,-1578,109,116
419.69,1232,3588,14076,-1482,81,101
419.7,1436,3576,13920,-1426,131,98
419.71,1232,3560,13860,-1500,144,96
419.72,1264,3564,14008,-1505,118,114
419.73,1268,3484,13900,-1504,89,86
419.74,1224,3456,14176,-1464,118,101
419.75,1164,3424,14128,-1500,102,100
419.76,1320,3384,14024,-1518,94,132
419.77,1260,3300,13984,-1473,46,136
419.78,1392,3376,14184,-1437,122,118
419.79,1280,3292,14148,-1421,159,128
419.8,1408,3312,13988,-1475,106,107
419.81,1280,3300,14028,-1530,105,109
419.82,1288,3364,13880,-1500,79,72
419.83,1364,3180,14172,-1476,102,82
419.84,1304,3132,14000,-1486,63,76
419.85,1376,3156,14124,-1587,81,73
419.86,1452,3092,13972,-1761,55,124
419.87,1292,2976,13940,-1760,-36,88
419.88,1380,2980,14068,-1599,2,84
419.89,1284,2968,14220,-1205,88,56
419.9,1384,3040,14256,-1098,133,51
419.91,1248,2984,14124,-1231,125,35
419.92,1172,2900,14036,-1397,107,69
419.93,1244,2856,14096,-1605,-9,67
419.94,1392,2892,13924,-1469,-91,97
419.95,1412,2776,14372,-1405,-36,114
419.96,1384,2976,13960,-1779,244,126
419.97,1384,2804,13692,-2556,-93,178
419.98,1480,2564,14640,-1891,75,8
419.99,1388,2716,14232,-667,-62,-10
420.0,1332,2728,13852,-1698,-430,113
420.01,1592,2544,14220,-1497,35,54
420.02,1324,2476,14008,-1246,-17,112
420.03,1232,2496,13736,-1974,-406,198
420.04,1544,2212,14000,-1472,-111,131
420.05,1484,2468,14592,-447,62,3
420.06,1452,2648,14692,-466,40,-13
420.07,1440,2724,14400,-894,41,23
420.08,1336,2648,14184,-1275,81,87
420.09,1268,2636,14216,-1482,-14,112
420.1,1344,2440,14140,-1560,-10,84
420.11,1580,2444,14172,-1515,1,53
420.12,1428,2416,14184,-1589,78,40
420.13,1384,2228,13992,-1544,113,37
420.14,1476,2188,14064,-1312,-7,47
420.15,1400,2140,13952,-1046,-22,29
420.16,1480,2108,14220,-762,-15,-2
420.17,1488,2132,14392,-683,-15,20
420.18,1444,2188,14292,-766,51,-15
420.19,1516,2148,14356,-827,100,-1
420.2,1552,2208,14276,-911,67,-27
420.21,1468,2160,14224,-986,101,-30
420.22,1348,2092,14304,-1058,70,-22
420.23,1484,2228,14232,-1122,122,-42
420.24,1536,2092,14176,-1186,74,-2
420.25,1400,2016,14172,-1233,109,-32
420.26,1524,2176,14168,-1118,34,-23
420.27,1392,2080,14232,-923,69,-40
420.28,1484,2092,14272,-815,66,-33
420.29,1508,2080,14280,-651,127,-3
420.3,1420,2124,14448,-608,156,-36
420.31,1524,2000,14340,-769,137,-8
420.32,1444,2124,14304,-717,284,-39
420.33,1428,2028,14052,-1146,75,-6
420.34,1468,1876,14264,-1141,91,-31
420.35,1520,1960,14232,-776,-50,-21
420.36,1604,1884,14240,-676,4,-46
420.37,1508,1856,14264,-714,50,-33
420.38,1496,1832,14276,-808,-22,-6
420.39,1540,1880,14228,-900,-56,21
420.4,1452,1856,14164,-931,-54,-2
420.41,1672,1932,14244,-922,-23,-42
420.42,1484,1768,14112,-792,86,-67
420.43,1556,1768,14344,-718,128,-72
420.44,1472,1900,14316,-757,164,-70
420.45,1568,1740,14240,-892,122,-54
420.46,1524,1680,14192,-1059,114,-28
420.47,1636,1624,14228,-904,88,-29
420.48,1672,1568,14284,-738,47,-69
420.49,1544,1644,14180,-737,76,-39
420.5,1444,1708,14076,-749,89,-10
420.51,1484,1628,14100,-665,51,-52
420.52,1480,1672,14332,-542,15,-1
420.53,1556,1732,14240,-451,52,-10
420.54,1544,1504,14388,-468,99,-6
420.55,1516,1584,14144,-548,50,48
420.56,1528,1628,14256,-491,75,38
420.57,1560,1644,14332,-357,151,23
420.58,1512,1624,14280,-233,174,26
420.59,1644,1632,14052,-152,125,1
420.6,1680,1552,14316,-121,163,47
420.61,1568,1604,14264,22,163,1
420.62,1552,1576,14168,108,166,24
420.63,1580,1448,14168,166,174,8
420.64,1580,1604,14184,249,213,17
420.65,1552,1724,14280,291,264,1
420.66,1504,1604,14192,278,263,37
420.67,1592,1712,14148,332,234,19
420.68,1604,1712,14184,379,260,-23
420.69,1636,1732,14120,439,269,-1
420.7,1588,1692,14188,488,264,-38
420.71,1572,1796,14300,585,302,-26
420.72,1560,1744,14340,499,333,-55
420.73,1580,1884,14216,359,296,-50
420.74,1560,1752,14200,384,241,-8
420.75,1664,1796,14264,420,229,-32
420.76,1524,1692,14332,501,267,19
420.77,1496,1784,14232,504,261,-26
420.78,1628,1724,14348,492,258,8
420.79,1624,1812,14244,548,242,-10
420.8,1548,1768,14268,592,308,1
420.81,1520,1872,14364,561,279,-19
420.82,1560,1908,14320,538,293,-26
420.83,1584,1876,14168,527,291,-2
420.84,1656,1816,14160,464,304,0
420.85,1604,1872,14112,274,251,16
420.86,1588,1888,14168,289,174,-12
420.87,1692,1936,14352,575,224,10
420.88,1564,1952,14324,845,381,-45
420.89,1632,2056,14500,935,417,-57
420.9,1504,1952,14188,781,364,-38
420.91,1456,1996,14020,582,290,-6
420.92,1484,1904,13988,580,157,18
420.93,1640,2012,14304,746,190,16
420.94,1596,2160,14456,722,512,12
420.95,1512,2280,13644,-33,444,25
420.96,1628,1964,14292,126,297,43
420.97,1588,2064,14592,1699,430,-130
420.98,1544,2344,13944,835,10,-12
420.99,1552,2020,14188,822,367,-66
421.0,1372,2152,13844,984,289,-9
421.01,1576,2216,13576,-9,-60,110
421.02,1560,1968,13888,469,249,55
421.03,1664,2200,14424,1513,306,-10
421.04,1552,2380,14740,1598,395,-64
421.05,1496,2460,14520,1305,395,-61
421.06,1412,2512,14260,943,433,-18
421.07,1444,2432,14396,681,437,20
421.08,1468,2456,14316,584,361,32
421.09,1580,2468,14248,559,319,4
421.1,1436,2388,14112,661,399,0
421.11,1444,2396,14000,675,387,-11
421.12,1416,2388,13996,766,316,7
421.13,1484,2296,13904,1092,288,-28
421.14,1512,2368,14236,1407,298,-32
421.15,1484,2416,14368,1523,314,-48
421.16,1468,2544,14248,1361,363,-58
421.17,1592,2596,14364,1145,468,-57
421.18,1504,2704,14140,941,401,-31
421.19,1496,2708,14160,860,361,-31
421.2,1528,2616,14124,798,380,-57
421.21,1476,2724,14116,847,317,-44
421.22,1488,2652,14248,802,269,-41
421.23,1512,2700,14188,826,270,-22
421.24,1536,2740,13988,891,293,-52
421.25,1548,2776,14096,1021,273,-46
421.26,1472,2756,14152,1150,338,-58
421.27,1440,2780,14176,1261,360,-61
421.28,1484,3044,14260,1355,372,-95
421.29,1420,2944,14284,1216,315,-102
421.3,1376,3008,14336,1371,704,-114
421.31,1344,2980,14056,918,379,-68
421.32,1472,3052,14024,665,472,-63
421.33,1380,2964,13732,807,316,-74
421.34,1412,2956,14152,1216,242,-135
421.35,1484,2988,14180,1346,325,-139
421.36,1456,3172,14136,985,346,-115
421.37,1496,3168,14248,772,342,-67
421.38,1344,3164,14060,735,187,-69
421.39,1432,3060,14028,649,198,-82
421.4,1440,3136,14068,746,226,-90
421.41,1472,3220,14152,884,230,-92
421.42,1488,3324,14124,932,263,-128
421.43,1464,3256,14148,918,322,-122
421.44,1388,3240,14096,835,292,-82
421.45,1388,3244,13984,784,289,-106
421.46,1400,3136,14328,850,311,-105
421.47,1344,3308,14080,872,303,-77
421.48,1432,3312,13968,769,251,-46
421.49,1528,3292,13864,787,263,-93
421.5,1316,3332,14060,932,318,-91
421.51,1320,3364,14036,905,329,-88
421.52,1264,3432,13980,838,366,-106
421.53,1372,3412,14092,729,229,-46
421.54,1272,3448,14208,633,328,-69
421.55,1376,3492,13936,713,270,-72
421.56,1432,3540,14024,682,333,-76
421.57,1332,3488,14012,610,336,-72
421.58,1312,3572,14116,655,294,-90
421.59,1332,3612,14052,632,265,-77
421.6,1336,3580,13968,609,312,-94
421.61,1388,3636,13932,738,350,-94
421.62,1364,3620,13944,703,320,-60
421.63,1376,3524,13860,626,288,-64
421.64,1416,3640,14044,614,280,-65
421.65,1384,3552,14024,658,277,-74
421.66,1348,3652,14060,642,304,-77
421.67,1284,3644,14024,625,263,-58
421.68,1344,3684,13880,604,282,-111
421.69,1308,3692,13996,613,293,-78
421.7,1444,3768,14004,606,283,-81
421.71,1508,3820,13888,586,258,-87
421.72,1380,3824,13888,555,301,-118
421.73,1360,3740,14032,524,269,-87
421.74,1280,3780,14004,502,304,-63
421.75,1360,3764,13860,501,282,-72
421.76,1324,3820,14052,477,291,-66
421.77,1352,3744,13916,489,267,-43
421.78,1252,3876,13936,445,281,-72
421.79,1360,3848,13860,442,285,-44
421.8,1284,3864,14000,414,268,-45
421.81,1240,3904,13904,396,286,-58
421.82,1332,3980,13904,387,281,-61
421.83,1340,3980,13912,380,283,-66
421.84,1460,3972,13876,296,293,-62
421.85,1320,3988,13848,312,293,-76
421.86,1288,3936,13820,341,320,-59
421.87,1392,4012,13940,318,300,-60
421.88,1332,3868,13996,368,302,-62
421.89,1224,3948,13896,328,299,-56
421.9,1312,3992,13844,260,322,-67
421.91,1244,3932,13812,149,300,-60
421.92,1300,4068,13676,62,201,-20
421.93,1312,3928,13888,4,210,-17
421.94,1268,3928,13820,235,283,-65
421.95,1300,3996,14068,407,372,-91
421.96,1252,4044,13940,355,379,-83
421.97,1312,4184,13884,168,386,-86
421.98,1264,4064,13744,21,310,-83
421.99,1256,4036,13804,84,210,-74
422.0,1244,4080,14000,61,171,3
422.01,1228,4048,13612,-508,333,55
422.02,1392,3816,13656,-638,31,93
422.03,1560,4044,14436,382,442,-48
422.04,1332,4288,14124,724,367,-180
422.05,1356,4068,13832,-255,98,-15
422.06,1324,4040,13800,-171,266,1
422.07,1184,4092,13660,-406,177,82
422.08,1252,3888,13352,-688,-13,121
422.09,1324,3752,13676,-104,32,60
422.1,1456,4024,13940,150,-31,39
422.11,1352,4180,14040,58,-108,39
422.12,1148,4024,13996,-127,-21,64
422.13,1168,4200,13860,6,74,41
422.14,1384,4108,13900,91,154,25
422.15,1284,4196,13844,177,234,-29
422.16,1148,4112,13724,169,316,-45
422.17,1300,4052,13716,100,275,-43
422.18,1264,3888,13840,257,212,-49
422.19,1364,4144,13772,400,142,-44
422.2,1328,4136,13836,393,129,-24
422.21,1320,4148,14012,355,157,-40
422.22,1256,4048,13904,241,214,-36
422.23,1452,4044,13916,96,230,-48
422.24,1320,4168,13844,35,285,-34
422.25,1384,4100,13744,-25,264,-45
422.26,1332,4084,13864,-57,249,-1
422.27,1228,4124,13864,-98,240,15
422.28,1208,4112,13864,-141,228,-20
422.29,1304,4192,13844,-127,214,3
422.3,1164,4160,13768,-114,237,-27
422.31,1376,4080,13812,-61,220,-4
422.32,1340,4172,13804,-16,233,-13
422.33,1308,4224,13720,-15,293,-19
422.34,1344,4172,13740,41,278,-53
422.35,1196,4152,13764,31,131,-22
422.36,1128,4284,13660,-128,386,-21
422.37,1200,4152,13544,-721,240,36
422.38,1296,4232,13840,-273,137,14
422.39,1436,4116,13864,-287,111,-16
422.4,1300,4160,13976,-361,216,1
422.41,1288,4176,13824,-395,141,-18
422.42,1188,4196,13808,-343,135,-3
422.43,1352,4152,13936,-394,145,-8
422.44,1300,4200,13748,-449,159,31
422.45,1248,4068,13936,-522,157,42
422.46,1228,4096,13804,-557,145,33
422.47,1316,4096,13900,-569,132,38
422.48,1356,4032,14044,-606,148,37
422.49,1348,4116,13820,-870,139,51
422.5,1340,4080,13852,-900,135,76
422.51,1280,4080,14040,-876,184,56
422.52,1300,3980,13804,-937,162,57
422.53,1300,4000,13924,-1000,123,53
422.54,1344,4088,13888,-1042,127,85
422.55,1376,4056,13860,-1040,186,68
422.56,1280,4036,13876,-1102,178,54
422.57,1340,3980,13948,-1194,204,84
422.58,1308,3904,13900,-1245,157,101
422.59,1256,3936,13908,-1299,112,137
422.6,1244,3896,13916,-1259,82,138
422.61,1336,3880,13932,-1188,82,108
422.62,1372,3804,14080,-1235,113,93
422.63,1408,3888,14000,-1223,118,80
422.64,1436,3824,14012,-1275,91,88
422.65,1416,3728,14020,-1351,220,82
422.66,1356,3820,13872,-1457,163,101
422.67,1300,3740,13920,-1531,95,87
422.68,1312,3636,13924,-1458,94,102
422.69,1316,3548,14000,-1394,97,120
422.7,1252,3612,14044,-1323,113,123
422.71,1288,3468,13968,-1336,151,95
422.72,1316,3592,13992,-1346,84,97
422.73,1392,3540,14080,-1339,95,90
422.74,1388,3472,13924,-1278,30,93
422.75,1444,3468,14008,-1299,99,109
422.76,1344,3396,13972,-1368,110,83
422.77,1372,3376,14032,-1383,104,96
422.78,1368,3436,13984,-1278,103,109
422.79,1272,3364,14036,-1274,135,98
422.8,1260,3280,14092,-1363,100,89
422.81,1332,3316,14120,-1378,102,87
422.82,1432,3252,14060,-1405,45,132
422.83,1332,3248,13948,-1355,80,96
422.84,1404,3184,13996,-1351,74,93
422.85,1452,3240,14152,-1437,98,113
422.86,1376,3212,14112,-1343,76,100
422.87,1368,3188,14044,-1340,141,104
422.88,1400,3116,14088,-1433,102,101
422.89,1440,3120,14076,-1360,103,104
422.9,1472,3108,14148,-1306,129,48
422.91,1380,3032,14028,-1309,132,73
422.92,1520,3060,13896,-1421,132,70
422.93,1468,2968,14116,-1529,122,71
422.94,1324,2968,14032,-1644,13,121
422.95,1492,2868,13956,-1630,39,90
422.96,1452,2796,14252,-1381,116,47
422.97,1400,2884,14164,-1044,186,13
422.98,1404,2980,14220,-1168,130,37
422.99,1452,2828,14112,-1347,110,52
423.0,1404,2812,14024,-1423,-5,63
423.01,1452,2728,14004,-1280,-71,76
423.02,1524,2636,14400,-1213,91,91
423.03,1388,2868,13856,-1777,318,92
423.04,1512,2584,13988,-2257,-126,118
423.05,1596,2464,14788,-882,310,-26
423.06,1412,2788,14012,-706,-238,15
423.07,1484,2652,13992,-1723,-352,101
423.08,1428,2420,14204,-990,193,26
423.09,1296,2408,13768,-1431,-236,130
423.1,1560,2336,13816,-1883,-312,205
423.11,1672,2344,14160,-1025,25,104
423.12,1600,2468,14568,-335,56,-7
423.13,1380,2688,14596,-728,-3,40
423.14,1412,2584,14372,-1122,42,67
423.15,1348,2552,14340,-1316,53,53
423.16,1416,2452,14204,-1456,65,32
423.17,1676,2460,14224,-1445,70,40
423.18,1484,2360,14232,-1473,112,44
423.19,1476,2236,13952,-1509,66,45
423.2,1576,2212,13932,-1384,56,30
423.21,1576,2128,13880,-1167,-5,31
423.22,1624,2048,14056,-778,-95,61
423.23,1692,2100,14384,-559,-13,50
423.24,1668,2148,14376,-560,56,29
423.25,1592,2204,14312,-626,101,9
423.26,1572,2152,14180,-779,81,34
423.27,1560,2164,14120,-855,147,-3
423.28,1660,2196,14320,-980,123,2
423.29,1616,2112,14248,-985,137,-9
423.3,1532,2060,14116,-1041,68,-24
423.31,1652,2052,14096,-1186,57,22
423.32,1552,2008,14212,-1005,60,-9
423.33,1616,2060,14212,-954,73,-26
423.34,1564,2128,14304,-913,111,-17
423.35,1568,2056,14312,-715,146,-13
423.36,1480,2032,14188,-633,119,17
423.37,1524,2044,14240,-644,126,-11
423.38,1608,1988,14520,-488,286,-14
423.39,1504,2076,14240,-484,294,0
423.4,1548,1996,14044,-979,140,8
423.41,1636,1880,14164,-895,182,-25
423.42,1660,1852,14124,-744,24,-55
423.43,1620,1812,14192,-667,38,-41
423.44,1512,1972,14300,-538,57,-33
423.45,1532,1912,14232,-605,70,-15
423.46,1460,1896,14308,-644,47,-17
423.47,1536,1832,14176,-715,2,0
423.48,1608,1940,14220,-733,38,8
423.49,1528,1880,14308,-549,73,-49
423.5,1656,1752,14432,-552,172,-51
423.51,1792,1932,14420,-494,235,-52
423.52,1648,1888,14252,-602,222,-62
423.53,1612,1848,14192,-796,187,-10
423.54,1604,1772,14304,-879,132,-36
423.55,1604,1664,14188,-719,90,-39
423.56,1680,1656,14256,-653,81,-46
423.57,1572,1792,14176,-614,114,-41
423.58,1584,1572,14160,-605,76,0
423.59,1568,1592,14132,-385,72,12
423.6,1632,1732,14320,-267,74,6
423.61,1664,1840,14176,-170,130,19
423.62,1624,1732,14080,-231,153,-8
423.63,1616,1704,14212,-299,125,52
423.64,1700,1744,14164,-175,177,44
423.65,1600,1740,14316,-101,205,-6
423.66,1572,1704,14136,-55,207,36
423.67,1644,1636,14152,43,186,14
423.68,1560,1684,14116,151,223,-8
423.69,1688,1744,14144,273,238,10
423.7,1600,1704,14224,334,265,8
423.71,1608,1816,14104,344,271,3
423.72,1492,1780,14276,340,264,11
423.73,1572,1728,14112,407,275,-26
423.74,1708,1824,14136,447,255,-5
423.75,1608,1712,14220,442,254,-5
423.76,1604,1788,14252,516,268,-16
423.77,1592,1820,14220,544,287,-8
423.78,1728,1820,14308,522,336,-53
423.79,1664,1788,14320,466,309,-35
423.8,1600,1896,14176,445,286,-38
423.81,1572,1904,14368,402,276,-33
423.82,1560,1964,14204,358,259,-25
423.83,1608,1924,14284,438,209,-12
423.84,1656,1876,14168,479,241,-28
423.85,1548,1848,14140,522,244,-30
423.86,1528,1992,14224,601,280,-29
423.87,1612,1888,14160,592,227,-5
423.88,1524,2008,14144,593,233,-9
423.89,1560,2020,14264,603,260,-21
423.9,1656,1972,14208,626,290,-24
423.91,1720,2012,14288,609,326,-35
423.92,1624,2108,14192,655,382,-42
423.93,1680,2080,14372,658,422,-56
423.94,1468,2140,14232,527,362,-30
423.95,1616,2096,14020,384,276,-5
423.96,1524,2160,14152,330,217,2
423.97,1660,2112,14140,327,192,16
423.98,1548,2084,14328,589,300,-8
423.99,1600,2204,14372,938,364,-28
424.0,1652,2232,14272,864,375,-62
424.01,1528,2228,14076,718,336,-27
424.02,1544,2064,13932,647,283,-17
424.03,1508,2196,14080,782,205,-26
424.04,1624,2244,14408,843,312,0
424.05,1600,2456,14276,350,549,14
424.06,1420,2280,13696,-378,161,70
424.07,1748,2064,14744,610,465,-63
424.08,1712,2368,14536,1551,309,-124
424.09,1500,2448,13796,136,-135,-1
424.1,1720,2112,14328,626,388,-67
424.11,1504,2412,14088,714,192,-53
424.12,1484,2272,13548,-455,-134,124
424.13,1496,2136,13956,264,224,86
424.14,1672,2232,14428,1157,267,-22
424.15,1656,2572,14556,1270,264,-75
424.16,1516,2652,14256,876,267,-34
424.17,1400,2584,14212,580,287,30
424.18,1532,2596,14372,525,301,56
424.19,1476,2628,14300,588,258,37
424.2,1664,2660,14256,582,306,-9
424.21,1520,2544,14108,508,403,-19
424.22,1592,2612,13932,525,342,-28
424.23,1556,2536,13808,598,327,-19
424.24,1552,2520,14060,865,286,-1
424.25,1532,2492,14088,1091,249,-54
424.26,1508,2564,14276,1096,283,-31
424.27,1684,2636,14208,972,333,-51
424.28,1496,2636,14356,875,365,-19
424.29,1612,2652,14208,787,345,-52
424.3,1524,2844,14232,755,314,-59
424.31,1604,2724,14144,720,294,-25
424.32,1464,2792,14128,667,321,-65
424.33,1452,2812,14128,640,305,-72
424.34,1608,2812,14024,655,295,-65
424.35,1512,2792,13984,736,259,-64
424.36,1464,2740,14016,870,290,-81
424.37,1448,2916,14188,997,311,-63
424.38,1504,2964,14244,1151,333,-81
424.39,1384,3084,14152,1073,336,-116
424.4,1524,2924,14304,1141,504,-119
424.41,1572,3052,14168,1128,592,-116
424.42,1408,3048,13976,467,418,-46
424.43,1448,3000,13844,411,356,-83
424.44,1340,2916,14036,849,297,-121
424.45,1472,3048,14356,1185,276,-141
424.46,1604,3068,13944,895,285,-97
424.47,1404,3128,14148,741,338,-101
424.48,1408,3128,14088,757,211,-54
424.49,1496,3168,14044,721,137,-51
424.5,1560,3180,13968,776,205,-72
424.51,1408,3244,14056,888,257,-104
424.52,1552,3264,14160,940,251,-115
424.53,1508,3292,14220,913,294,-139
424.54,1512,3244,14096,767,303,-137
424.55,1464,3296,14060,611,327,-92
424.56,1424,3176,14124,592,315,-112
424.57,1440,3276,13888,665,298,-105
424.58,1440,3240,13952,583,301,-91
424.59,1584,3288,13824,494,282,-57
424.6,1412,3300,14204,607,331,-90
424.61,1480,3304,13888,692,319,-98
424.62,1436,3372,13964,721,269,-100
424.63,1412,3372,13932,679,224,-59
424.64,1408,3360,13992,630,250,-61
424.65,1360,3448,13908,692,265,-57
424.66,1480,3496,14080,701,261,-49
424.67,1524,3568,13984,631,296,-40
424.68,1448,3536,13956,650,293,-100
424.69,1436,3592,13872,626,273,-34
424.7,1372,3564,13944,612,244,-66
424.71,1416,3568,14100,614,299,-94
424.72,1324,3552,14024,645,264,-80
424.73,1420,3608,14032,580,276,-63
424.74,1384,3552,13824,504,264,-78
424.75,1476,3560,13920,512,250,-83
424.76,1400,3556,13792,541,245,-47
424.77,1416,3544,13944,624,259,-64
424.78,1368,3596,13992,543,287,-72
424.79,1444,3668,13944,553,293,-88
424.8,1556,3648,13908,564,293,-61
424.81,1424,3724,13880,540,289,-95
424.82,1396,3712,13820,544,290,-70
424.83,1600,3716,13920,520,257,-85
424.84,1332,3804,14072,502,304,-84
424.85,1388,3760,13864,507,310,-76
424.86,1440,3752,13952,471,280,-83
424.87,1348,3760,13936,485,301,-53
424.88,1404,3808,13960,431,263,-48
424.89,1460,3768,13904,429,257,-47
424.9,1368,3776,13916,400,218,-58
424.91,1388,3824,13904,418,269,-92
424.92,1456,3816,13832,403,261,-71
424.93,1248,3752,13916,433,298,-79
424.94,1312,3892,13896,420,265,-70
424.95,1376,3928,13856,431,205,-60
424.96,1328,3932,13808,436,318,-48
424.97,1344,3780,13984,265,296,-74
424.98,1448,3960,13956,291,331,-51
424.99,1336,3868,13920,268,262,-57
425.0,1360,3920,14048,275,293,-50
425.01,1320,3960,13984,274,304,-34
425.02,1372,3868,13888,255,281,-44
425.03,1364,3920,13856,265,246,-62
425.04,1480,4044,13852,266,268,-55
425.05,1436,3956,14000,277,264,-63
425.06,1292,3992,14080,269,291,-54
425.07,1280,3964,13892,289,294,-60
425.08,1304,3988,13800,266,312,-65
425.09,1336,4048,13752,118,287,-34
425.1,1292,3916,13772,16,221,-37
425.11,1364,3980,13896,-61,210,6
425.12,1360,3956,13900,32,238,-39
425.13,1376,4080,14092,338,406,-58
425.14,1408,4148,13904,304,405,-114
425.15,1372,4168,13868,170,350,-103
425.16,1276,4100,13644,-34,325,-65
425.17,1372,4012,13792,-47,231,-26
425.18,1332,4092,13944,12,163,-39
425.19,1256,4180,13800,-271,311,46
425.2,1232,3956,13468,-901,72,99
425.21,1676,3952,14284,316,514,-72
425.22,1372,4248,14236,636,378,-142
425.23,1292,4228,13968,-245,-8,-20
425.24,1284,3940,13828,-204,217,5
425.25,1104,4052,13568,-458,169,65
425.26,1064,3924,13288,-844,-104,155
425.27,1380,3808,13560,-201,22,117
425.28,1400,3968,13936,173,-30,33
425.29,1268,4196,14112,130,-110,8
425.3,1472,4128,14008,-51,-137,78
425.31,1356,4172,13976,-240,7,21
425.32,1236,4096,13972,-162,52,42
425.33,1304,4132,13888,-106,120,13
425.34,1380,4056,13964,18,238,-21
425.35,1232,4072,13704,11,260,-30
425.36,1344,4020,13820,-28,210,-4
425.37,1424,3988,13764,73,199,-4
425.38,1368,4056,13936,144,154,-17
425.39,1492,4000,13996,102,190,-37
425.4,1416,3984,14004,16,162,-5
425.41,1384,4088,14016,-107,216,-42
425.42,1364,4092,13860,-259,214,-28
425.43,1464,4016,13940,-311,227,8
425.44,1348,4088,13948,-350,240,19
425.45,1352,4024,13976,-370,223,-19
425.46,1328,4040,13816,-459,211,21
425.47,1308,3984,13924,-533,222,30
425.48,1368,4016,13684,-497,237,8
425.49,1352,4080,13816,-442,207,0
425.5,1388,4052,13944,-448,215,15
425.51,1404,4124,13864,-391,238,-2
425.52,1320,4076,13900,-373,240,7
425.53,1452,4004,13840,-462,136,5
425.54,1432,4080,14304,-239,455,-47
425.55,1296,4032,13972,-507,436,3
425.56,1280,4000,13556,-1173,211,55
425.57,1376,3832,13832,-785,316,-11
425.58,1440,3944,14012,-360,223,-7
425.59,1408,4064,14096,-552,134,17
425.6,1372,3952,14020,-773,196,56
425.61,1248,3980,13972,-1017,194,51
425.62,1320,3924,14092,-1094,70,90
425.63,1332,3968,13984,-1225,-10,101
425.64,1524,3920,13924,-1301,31,109
425.65,1456,3808,13964,-1274,-8,116
425.66,1440,3780,14044,-1248,-40,112
425.67,1500,3796,13836,-1225,-26,110
425.68,1552,3824,13900,-1362,53,114
425.69,1324,3764,13864,-1411,103,118
425.7,1384,3616,14108,-1315,100,124
425.71,1348,3664,14076,-1435,121,139
425.72,1420,3556,13880,-1483,113,124
425.73,1480,3596,13888,-1551,56,141
425.74,1312,3552,14080,-1479,111,103
425.75,1332,3536,14012,-1343,109,98
425.76,1408,3508,14068,-1383,154,98
425.77,1376,3428,14044,-1496,151,120
425.78,1408,3468,13996,-1518,106,117
425.79,1324,3500,14020,-1635,147,152
425.8,1472,3428,13904,-1606,35,175
425.81,1404,3328,13980,-1569,81,130
425.82,1432,3236,13844,-1540,100,168
425.83,1412,3348,14140,-1403,64,137
425.84,1488,3376,14008,-1388,106,104
425.85,1392,3284,13924,-1390,126,104
425.86,1376,3216,14112,-1313,142,107
425.87,1480,3224,14140,-1248,120,96
425.88,1488,3136,14088,-1260,157,96
425.89,1380,3088,14124,-1247,147,119
425.9,1492,3128,14072,-1290,85,53
425.91,1448,3156,14236,-1309,107,77
425.92,1496,3100,14024,-1327,88,92
425.93,1456,3064,14148,-1265,89,95
425.94,1540,2940,14068,-1262,77,86
425.95,1512,2920,14112,-1307,107,73
425.96,1432,2908,14196,-1298,98,76
425.97,1612,2984,14056,-1305,71,55
425.98,1484,2920,14096,-1323,172,44
425.99,1464,2908,14016,-1231,115,5
426.0,1452,2832,14068,-1239,155,45
426.01,1420,2820,14144,-1301,109,54
426.02,1508,2772,14088,-1301,82,40
426.03,1528,2860,14128,-1240,52,42
426.04,1556,2676,14104,-1151,86,38
426.05,1544,2788,14072,-1215,70,34
426.06,1572,2752,14272,-1183,151,30
426.07,1492,2688,14112,-1210,112,39
426.08,1660,2692,14124,-1140,99,10
426.09,1648,2728,14172,-1160,89,15
426.1,1556,2616,14052,-1131,117,18
426.11,1540,2640,14212,-1074,110,56
426.12,1532,2560,14200,-1058,141,2
426.13,1452,2524,14072,-1081,123,11
426.14,1560,2508,14096,-1047,174,4
426.15,1464,2520,14136,-1035,83,8
426.16,1556,2548,14156,-1021,165,-2
426.17,1480,2476,14168,-945,130,21
426.18,1716,2516,14184,-970,167,-41
426.19,1568,2596,14144,-1034,175,-35
426.2,1492,2512,14092,-1107,179,-1
426.21,1448,2452,14140,-1228,107,19
426.22,1600,2348,14076,-1265,58,19
426.23,1512,2224,14204,-1129,90,-12
426.24,1516,2256,14256,-863,210,-15
426.25,1544,2352,14204,-700,278,-82
426.26,1436,2400,14224,-829,200,-65
426.27,1416,2228,14088,-1027,97,-24
426.28,1540,2164,14096,-1016,32,18
426.29,1584,2312,14180,-806,56,11
426.3,1484,2284,14552,-691,238,4
426.31,1488,2432,14264,-1175,410,41
426.32,1488,2212,13592,-2010,1,51
426.33,1680,2000,14560,-1203,194,8
426.34,1600,2116,14300,-5,62,-122
426.35,1520,2092,13812,-1152,-303,62
426.36,1588,1984,14448,-745,190,-50
426.37,1368,2100,13864,-627,167,-4
426.38,1452,2020,13620,-1466,-265,125
426.39,1708,1868,14072,-990,31,71
426.4,1616,1952,14504,-159,198,24
426.41,1588,2228,14664,-72,290,-69
426.42,1556,2212,14356,-351,188,-9
426.43,1536,2224,14280,-594,249,25
426.44,1496,2232,14284,-715,145,18
426.45,1612,2084,14308,-797,155,25
426.46,1708,2004,14084,-842,175,21
426.47,1676,1912,14016,-723,239,-16
426.48,1472,1940,13904,-609,162,23
426.49,1572,1804,13880,-360,119,19
426.5,1592,1736,14084,27,113,16
426.51,1632,1844,14272,263,152,-1
426.52,1616,1872,14312,265,144,-23
426.53,1628,1960,14404,381,202,-13
426.54,1560,1996,14320,309,271,-13
426.55,1612,1904,14208,292,287,9
426.56,1504,2060,14256,283,283,-18
426.57,1548,1976,14060,269,284,-9
426.58,1588,1976,14064,292,254,17
426.59,1596,2080,14140,336,228,13
426.6,1616,2108,14176,476,233,8
426.61,1584,2096,14136,680,272,-6
426.62,1584,2064,14220,829,290,3
426.63,1640,2188,14296,1000,305,-9
426.64,1576,2224,14412,1064,357,-35
426.65,1436,2236,14224,1000,251,-60
426.66,1544,2192,14412,1207,667,-63
426.67,1484,2256,14116,849,374,-1
426.68,1448,2264,14100,529,377,-2
426.69,1712,2256,14076,892,319,-50
426.7,1408,2244,14200,882,145,-23
426.71,1672,2308,14240,1114,267,-31
426.72,1540,2424,14216,1222,250,-24
426.73,1596,2488,14284,1091,271,-29
426.74,1456,2424,14244,1055,219,-43
426.75,1680,2428,14276,1051,240,-22
426.76,1532,2484,14216,1081,328,-86
426.77,1536,2436,14156,1135,402,-99
426.78,1544,2472,14308,1148,357,-96
426.79,1496,2456,14260,1104,392,-66
426.8,1584,2568,14208,917,375,-72
426.81,1468,2464,14084,859,303,-69
426.82,1572,2540,14172,945,279,-24
426.83,1504,2576,14028,1035,305,-58
426.84,1584,2696,14040,941,300,-26
426.85,1540,2516,13956,875,298,-18
426.86,1476,2724,14040,1137,332,-53
426.87,1536,2664,14132,1192,305,-82
426.88,1536,2696,14120,1178,376,-78
426.89,1416,2860,14196,1112,372,-56
426.9,1472,2884,14068,1027,393,-63
426.91,1552,2872,14184,927,340,-42
426.92,1544,2840,14184,908,416,-84
426.93,1476,2900,14160,904,394,-68
426.94,1488,2968,13964,945,323,-77
426.95,1416,2940,14084,930,352,-71
426.96,1392,3040,14032,963,342,-63
426.97,1416,2888,14192,1067,339,-76
426.98,1452,2984,14080,1053,325,-85
426.99,1532,3084,14052,1023,286,-91
427.0,1416,3104,14132,1082,300,-73
427.01,1444,3136,14064,1011,294,-85
427.02,1620,3156,14140,1018,339,-69
427.03,1340,3112,14068,992,383,-109
427.04,1524,3216,14012,969,373,-115
427.05,1440,3172,14092,1027,398,-111
427.06,1384,3208,14084,948,384,-115
427.07,1484,3228,14012,909,381,-132
427.08,1392,3316,14120,914,345,-108
427.09,1452,3200,13968,893,360,-131
427.1,1412,3304,13932,937,316,-92
427.11,1364,3328,13996,813,319,-116
427.12,1400,3340,13964,792,313,-107
427.13,1472,3360,14028,866,306,-88
427.14,1372,3328,13972,780,223,-107
427.15,1508,3408,13972,828,269,-106
427.16,1404,3444,13888,790,286,-97
427.17,1420,3440,13960,823,249,-84
427.18,1432,3468,14188,818,300,-88
427.19,1384,3496,14044,789,324,-86
427.2,1336,3532,14028,832,272,-81
427.21,1444,3636,14044,781,339,-91
427.22,1364,3596,13952,625,344,-88
427.23,1332,3580,13872,526,258,-85
427.24,1388,3532,13884,517,228,-100
427.25,1428,3556,13944,704,339,-119
427.26,1444,3600,14036,924,445,-141
427.27,1388,3704,14096,909,420,-125
427.28,1232,3700,14000,709,373,-103
427.29,1344,3612,13816,493,314,-77
427.3,1376,3636,13884,525,181,-71
427.31,1348,3680,13980,530,169,-40
427.32,1344,3744,13504,-136,309,41
427.33,1500,3604,13676,-387,51,61
427.34,1544,3620,14408,923,457,-130
427.35,1316,4056,14188,1071,262,-130
427.36,1244,3860,13820,97,46,-40
427.37,1388,3800,13996,372,421,-72
427.38,1228,3808,13624,-120,159,45
427.39,1216,3560,13292,-544,-15,111
427.4,1432,3516,13688,239,95,43
427.41,1488,3740,14152,599,-15,-34
427.42,1388,3892,14384,716,-75,-11
427.43,1260,3972,14008,555,-1,-30
427.44,1292,4044,13956,300,92,-27
427.45,1260,3820,14148,326,174,-34
427.46,1404,3988,14112,325,247,-41
427.47,1464,3980,13932,336,363,-93
427.48,1376,3932,13840,289,343,-98
427.49,1432,3892,13752,228,290,-93
427.5,1388,3888,13728,282,194,-64
427.51,1548,3812,13876,434,264,-42
427.52,1468,3928,13788,537,160,-31
427.53,1456,3884,13868,494,244,-49
427.54,1392,3852,14024,411,228,-42
427.55,1308,3908,13996,339,291,-52
427.56,1388,3992,13976,248,322,-61
427.57,1464,3948,13804,202,317,-28
427.58,1396,4000,13992,205,304,-22
427.59,1308,3944,13824,108,277,-11
427.6,1284,3996,13896,101,257,-52
427.61,1404,3976,13892,113,296,-40
427.62,1396,4060,13864,141,301,-42
427.63,1352,4008,13916,159,243,-32
427.64,1316,4040,13820,184,272,-58
427.65,1288,4040,13808,255,321,-37
427.66,1384,4072,13836,329,316,-61
427.67,1344,3972,13748,299,285,-62
427.68,1436,4036,14244,482,537,-104
427.69,1252,4164,13820,183,446,-81
427.7,1320,3972,13596,-384,241,13
427.71,1340,4000,13876,64,392,-59
427.72,1272,4092,14068,497,364,-122
427.73,1348,4104,13892,294,277,-76
427.74,1368,4124,13916,126,303,-49
427.75,1216,4096,13744,-42,196,-17
427.76,1376,4220,13876,50,134,1
427.77,1368,4180,13900,110,113,-12
427.78,1532,4100,13920,85,202,-23
427.79,1348,4192,13780,54,210,-41
427.8,1360,4220,13944,98,200,-37
427.81,1392,4176,13828,96,226,-23
427.82,1320,4124,13872,25,230,-30
427.83,1336,4120,13816,3,226,-26
427.84,1372,3932,13820,24,252,-62
427.85,1380,4164,13864,87,288,-60
427.86,1304,4188,13732,19,240,-14
427.87,1352,4072,13760,-81,251,-62
427.88,1204,4040,13900,-47,265,-51
427.89,1296,4156,14004,-48,315,-39
427.9,1324,4120,13868,-110,302,-54
427.91,1264,4104,13900,-104,279,-31
427.92,1264,4120,13920,-187,313,-36
427.93,1316,4100,13776,-236,290,-19
427.94,1280,4136,13864,-292,275,-14
427.95,1244,4176,13760,-312,294,-22
427.96,1300,4132,13868,-319,262,-2
427.97,1252,4232,13684,-366,259,-7
427.98,1248,4164,13912,-410,262,-11
427.99,1328,4164,13808,-411,285,-25
428.0,1288,4212,13924,-465,270,1
428.01,1176,4120,13896,-535,258,-20
428.02,1220,4116,13860,-554,251,8
428.03,1236,4052,13748,-643,207,13
428.04,1292,4096,13976,-646,176,30
428.05,1356,4016,13780,-624,178,17
428.06,1212,4068,13888,-590,236,3
428.07,1332,4096,13860,-572,261,23
428.08,1388,4084,13952,-586,253,-3
428.09,1248,4076,13924,-662,299,-28
428.1,1304,4124,13944,-744,302,-20
428.11,1276,3932,14044,-1034,119,66
428.12,1268,3948,13864,-1137,170,89
428.13,1256,3884,13908,-1217,228,58
428.14,1328,3860,13896,-1284,151,79
428.15,1276,3820,13980,-1303,140,60
428.16,1380,3836,14116,-1371,122,88
428.17,1308,3736,13880,-1406,144,121
428.18,1320,3688,13908,-1348,183,110
428.19,1324,3828,13952,-1453,208,92
428.2,1324,3740,14024,-1525,204,123
428.21,1332,3816,13884,-1526,209,116
428.22,1388,3648,13968,-1611,177,95
428.23,1376,3664,13840,-1698,139,97
428.24,1336,3404,13808,-1705,61,168
428.25,1308,3440,13916,-1770,3,166
428.26,1328,3344,14016,-1613,83,149
428.27,1380,3384,13996,-1291,225,113
428.28,1272,3336,14128,-1038,295,87
428.29,1388,3412,14132,-1180,242,83
428.3,1276,3432,14060,-1390,198,80
428.31,1280,3352,13920,-1577,38,124
428.32,1344,3308,13908,-1556,-61,138
428.33,1344,3308,14124,-1425,-7,158
428.34,1288,3288,14252,-1577,198,190
428.35,1312,3324,13576,-2419,49,219
428.36,1592,3084,14104,-2037,17,112
428.37,1420,3196,14508,-783,287,-3
428.38,1224,3252,13728,-1746,-284,165
428.39,1420,2976,14252,-1766,44,104
428.4,1252,3084,13788,-1520,90,160
428.41,1452,2912,13612,-2307,-320,269
428.42,1396,2652,13860,-1676,-72,165
428.43,1604,2964,14272,-721,-2,59
428.44,1480,2964,14440,-767,6,50
428.45,1356,3056,14264,-1190,59,74
428.46,1356,3128,14188,-1471,152,105
428.47,1352,2976,14188,-1579,161,105
428.48,1384,2908,14288,-1548,145,90
428.49,1392,2936,14012,-1635,151,110
428.5,1420,2848,13992,-1821,194,117
428.51,1404,2680,13860,-1800,142,84
428.52,1384,2616,13880,-1648,49,100
428.53,1492,2524,14012,-1360,-27,65
428.54,1464,2688,14088,-853,62,30
428.55,1432,2564,14308,-761,107,9
428.56,1388,2648,14312,-816,127,-9
428.57,1428,2596,14300,-935,209,4
428.58,1444,2544,14212,-1001,155,24
428.59,1400,2608,14204,-1106,152,33
428.6,1452,2472,14180,-1304,133,18
428.61,1432,2544,14144,-1278,45,28
428.62,1488,2392,14020,-1330,74,45
428.63,1512,2420,14080,-1352,44,31
428.64,1500,2392,14216,-1229,88,11
428.65,1496,2492,14232,-1166,128,-22
428.66,1344,2404,14092,-1127,198,8
428.67,1368,2380,14260,-1042,230,-28
428.68,1356,2356,14328,-886,213,-14
428.69,1428,2404,14144,-870,123,-28
428.7,1492,2316,14292,-676,361,-28
428.71,1376,2400,14116,-693,281,4
428.72,1388,2348,14004,-1146,96,18
428.73,1464,2140,14000,-1292,30,18
428.74,1556,2148,14372,-789,13,-8
428.75,1440,2228,14312,-593,96,-49
428.76,1472,2328,14228,-799,94,-40
428.77,1520,2160,14156,-929,117,-43
428.78,1356,2268,14340,-951,72,-2
428.79,1484,2160,14204,-1003,17,-12
428.8,1476,2248,14340,-1030,77,-43
428.81,1556,2044,14356,-1011,148,-47
428.82,1560,2244,14208,-1060,157,-71
428.83,1580,2060,14168,-1023,117,-89
428.84,1452,1968,14184,-995,135,-61
428.85,1412,2112,14048,-1035,182,-65
428.86,1516,1868,14156,-1026,141,-29
428.87,1500,1912,14052,-881,146,-19
428.88,1524,1796,14260,-707,159,-37
428.89,1512,1940,14248,-741,104,-47
428.9,1480,1904,14132,-741,68,-2
428.91,1396,1904,14224,-545,93,3
428.92,1448,1984,14224,-398,126,0
428.93,1468,1936,14220,-396,157,-15
428.94,1448,1960,14008,-427,118,-5
428.95,1596,1932,14244,-411,169,36
428.96,1516,1836,14332,-258,174,25
428.97,1692,1904,14276,-128,193,6
428.98,1452,1860,14180,-25,170,43
428.99,1512,1900,14204,118,177,30
429.0,1496,1956,14204,272,185,1
429.01,1496,1896,14236,350,267,26
429.02,1468,1880,14240,409,287,8
429.03,1420,1904,14080,500,302,-3
429.04,1488,1916,14200,541,317,-8
429.05,1540,1924,14104,636,312,-21
429.06,1492,2008,14212,666,366,-39
429.07,1572,2004,14232,707,350,-60
429.08,1420,2044,14328,788,301,-34
429.09,1556,2144,14328,721,318,-20
429.1,1496,2024,14264,742,269,-29
429.11,1524,2188,14308,738,295,-2
429.12,1444,2108,14264,762,327,-41
429.13,1480,2184,14220,726,322,-37
429.14,1520,2188,14200,676,336,-7
429.15,1480,2264,14220,646,269,-49
429.16,1536,2172,14044,690,279,-39
429.17,1480,2256,14176,820,278,-36
429.18,1416,2244,14140,880,275,-65
429.19,1516,2184,14212,888,276,2
429.2,1376,2216,14204,954,279,-11
429.21,1464,2316,14312,1109,298,-40
429.22,1656,2376,14300,1232,320,-21
429.23,1420,2412,14196,1217,366,-5
429.24,1492,2376,14108,1247,371,-46
429.25,1464,2416,14084,1247,409,-69
429.26,1408,2540,14360,1246,444,-45
429.27,1400,2484,14144,1085,440,-48
429.28,1444,2544,14176,931,376,-57
429.29,1396,2496,14024,872,328,-51
429.3,1356,2568,13972,793,223,-37
429.31,1472,2560,14040,954,256,-10
429.32,1356,2628,14208,1193,357,-38
429.33,1480,2660,14316,1440,479,-66
429.34,1460,2788,14224,1343,519,-103
429.35,1464,2792,14088,1078,478,-71
429.36,1388,2620,13944,878,384,-53
429.37,1520,2696,13996,991,344,-45
429.38,1324,2728,14296,1145,372,-80
429.39,1320,2896,14020,488,543,-11
429.4,1404,2896,13520,-49,158,14
429.41,1664,2652,14432,960,420,-119
429.42,1484,3016,14128,1956,343,-155
429.43,1320,2960,13852,860,-3,-31
429.44,1496,2896,14428,1128,460,-117
429.45,1188,3000,13880,812,309,-14
429.46,1200,2876,13504,-265,-74,138
429.47,1480,2724,13968,661,199,29
429.48,1336,2948,14268,1369,73,-31
429.49,1388,3152,14464,1537,97,-87
429.5,1292,3212,14396,1227,191,-69
429.51,1356,3140,14104,1150,276,-64
429.52,1200,3284,14400,1071,291,-86
429.53,1324,3172,14172,921,314,-61
429.54,1460,3312,14116,846,395,-76
429.55,1344,3156,14048,736,405,-82
429.56,1436,3104,13808,729,307,-104
429.57,1368,3200,13744,1036,218,-94
429.58,1384,3208,13928,1155,203,-86
429.59,1468,3264,14072,1347,161,-121
429.6,1500,3340,14276,1266,197,-103
429.61,1420,3372,14180,1112,305,-83
429.62,1328,3324,14096,990,298,-94
429.63,1356,3388,13948,887,317,-77
429.64,1320,3452,14064,784,250,-95
429.65,1544,3416,13912,707,289,-54
429.66,1412,3504,13976,637,250,-74
429.67,1280,3552,13928,618,228,-72
429.68,1296,3404,13984,610,265,-75
429.69,1376,3572,13952,651,258,-74
429.7,1416,3484,14012,660,265,-85
429.71,1260,3604,14092,759,285,-66
429.72,1228,3696,14012,867,302,-76
429.73,1336,3636,14104,857,253,-111
429.74,1360,3632,14148,1046,389,-119
429.75,1292,3764,13880,762,498,-95
429.76,1356,3624,13932,325,395,-53
429.77,1336,3616,13712,335,266,-86
429.78,1384,3640,13988,744,310,-84
429.79,1352,3748,13976,943,240,-92
429.8,1436,3696,14000,624,235,-77
429.81,1328,3784,13892,460,193,-26
429.82,1340,3804,13884,530,106,-17
429.83,1356,3776,13916,457,189,-57
429.84,1400,3768,13896,475,206,-58
429.85,1348,3780,13844,514,189,-43
429.86,1316,3980,14048,545,226,-81
429.87,1324,3904,14132,508,265,-67
429.88,1400,3868,13944,339,280,-54
429.89,1364,3828,13872,384,283,-69
429.9,1312,3880,13872,414,282,-43
429.91,1308,3812,13920,418,277,-61
429.92,1252,3848,13932,307,283,-25
429.93,1216,3872,13900,341,241,-56
429.94,1200,3872,13996,473,274,-70
429.95,1284,3952,13952,491,320,-64
429.96,1240,3984,13780,422,318,-56
429.97,1264,3936,13876,309,246,-47
429.98,1172,3932,13968,283,295,-54
429.99,1308,3920,14036,268,297,-34
430.0,1324,4048,13716,239,314,-40
430.01,1292,3992,13964,296,315,-60
430.02,1232,3976,13788,269,286,-67
430.03,1236,3996,13784,231,262,-28
430.04,1164,4016,13876,252,287,-21
430.05,1316,4032,13992,280,293,-53
430.06,1292,4060,14000,175,308,-45
430.07,1228,4040,13764,183,279,-36
430.08,1300,4052,13820,157,288,-44
430.09,1268,3944,13960,138,289,-36
430.1,1316,3968,13784,210,271,-45
430.11,1224,4068,13824,162,303,-53
430.12,1124,4168,13864,144,320,-87
430.13,1388,4072,13784,13,478,-66
430.14,1304,4012,13832,-33,524,-91
430.15,1228,4008,13912,45,468,-93
430.16,1180,4084,13908,141,366,-87
430.17,1340,4204,14032,107,245,-62
430.18,1324,4160,13952,22,263,-65
430.19,1268,4144,13916,-42,288,-35
430.2,1116,4100,13828,-17,308,-32
430.21,1208,4048,13872,-30,280,-26
430.22,1172,4132,13820,-16,258,-24
430.23,1268,4160,13756,39,212,-40
430.24,1160,4244,13820,42,216,-42
430.25,1240,4132,13844,-22,199,-18
430.26,1160,4112,13908,-143,207,-1
430.27,1192,4116,13924,-139,234,4
430.28,1324,4132,13824,-122,236,-29
430.29,1152,4184,13932,-153,245,-25
430.3,1280,4124,13872,-185,263,-9
430.31,1172,4112,13744,-197,251,-16
430.32,1324,4188,13836,-254,201,-10
430.33,1196,4272,13836,-286,245,-10
430.34,1216,4084,13828,-309,269,-25
430.35,1064,4120,13744,-382,251,4
430.36,1188,4216,13968,-455,239,1
430.37,1192,4184,14020,-449,239,-16
430.38,1196,4192,13884,-513,268,13
430.39,1180,4104,13992,-597,266,-22
430.4,1244,4140,13936,-628,266,-19
430.41,1192,4132,13928,-790,272,-31
430.42,1260,4088,13924,-1002,271,14
430.43,1168,4032,13980,-1148,257,15
430.44,1208,4016,13868,-1326,202,51
430.45,1156,3940,14056,-1219,198,61
430.46,1248,3940,14040,-1019,321,37
430.47,1184,4020,14044,-1067,269,17
430.48,1216,3912,14012,-1301,206,33
430.49,1072,3928,13972,-1571,195,66
430.5,1116,3808,13876,-1686,11,110
430.51,1104,3756,14020,-1569,-39,130
430.52,1152,3788,14204,-1627,92,177
430.53,1172,3732,13424,-2324,127,222
430.54,1416,3512,13872,-2100,-20,179
430.55,1280,3744,14456,-759,318,53
430.56,1204,3680,13860,-1677,-264,181
430.57,1340,3656,14076,-1826,91,136
430.58,1160,3496,13852,-1650,122,144
430.59,1136,3452,13532,-2366,-302,297
430.6,1228,3204,13712,-2038,-137,243
430.61,1352,3280,14252,-935,-169,148
430.62,1408,3492,14336,-885,-101,129
430.63,1244,3476,14368,-1123,-54,111
430.64,1216,3568,14276,-1344,-11,129
430.65,1144,3600,14164,-1558,51,179
430.66,1320,3476,14084,-1711,96,134
430.67,1280,3472,14100,-1666,152,120
430.68,1264,3224,13920,-1739,183,146
430.69,1192,3264,13952,-1772,59,175
430.7,1268,3172,13692,-1764,5,133
430.71,1404,3060,13988,-1461,4,125
430.72,1356,3008,14208,-1088,66,82
430.73,1356,3060,14212,-1096,96,98
430.74,1396,3116,14240,-1171,109,86
430.75,1376,3056,14204,-1271,123,87
430.76,1428,3036,14104,-1356,134,46
430.77,1228,3088,14168,-1393,127,72
430.78,1332,3024,14132,-1381,118,99
430.79,1316,2936,13944,-1424,84,82
430.8,1352,2892,14228,-1460,84,69
430.81,1460,2876,14060,-1363,28,63
430.82,1440,2848,14020,-1386,136,58
430.83,1228,2824,14176,-1418,147,66
430.84,1400,2884,14108,-1291,135,54
430.85,1364,2800,14040,-1136,153,53
430.86,1320,2956,14076,-1001,244,36
430.87,1276,2816,14104,-913,210,-5
430.88,1272,2816,14164,-974,163,-23
430.89,1188,2748,14208,-853,456,-32
430.9,1312,2792,13988,-1288,229,32
430.91,1280,2536,13900,-1783,-42,102
430.92,1412,2536,14324,-810,26,-23
430.93,1332,2680,14288,-710,18,-11
430.94,1416,2736,14120,-967,107,6
430.95,1356,2604,14184,-1143,142,-3
430.96,1336,2596,14108,-1184,41,22
430.97,1360,2380,14212,-1210,106,10
430.98,1360,2432,14268,-1336,160,-8
430.99,1356,2340,14200,-1381,164,-28
431.0,1436,2368,14060,-1240,83,-28
431.01,1388,2340,14276,-1213,65,-33
431.02,1436,2384,14232,-1174,85,-47
431.03,1284,2260,14372,-1266,154,-28
431.04,1400,2192,14200,-1278,121,-34
431.05,1408,2192,14284,-1246,121,-39
431.06,1380,2204,14236,-1206,143,-82
431.07,1376,2200,14128,-1300,91,-42
431.08,1400,2212,14080,-1368,51,-30
431.09,1464,2160,14104,-1479,56,-25
431.1,1444,2124,14276,-1413,128,-29
431.11,1420,2068,14204,-1353,142,-44
431.12,1360,2148,14160,-1275,87,-30
431.13,1504,2092,14156,-1240,116,-6
431.14,1416,1988,14136,-1197,107,-22
431.15,1448,1920,14204,-1068,81,-26
431.16,1452,2068,14252,-1091,133,-17
431.17,1464,1932,14220,-1093,77,-15
431.18,1332,1960,14296,-1157,115,-27
431.19,1436,1992,14212,-1208,94,-36
431.2,1404,1928,14232,-1183,82,-38
431.21,1440,1900,14248,-1153,110,-52
431.22,1424,1840,14492,-1040,114,-58
431.23,1560,1744,14228,-1069,116,-37
431.24,1424,1736,14256,-1089,80,-44
431.25,1492,1744,14132,-1057,49,-21
431.26,1492,1632,14220,-986,2,-37
431.27,1536,1756,14300,-780,59,-38
431.28,1492,1676,14276,-692,80,-37
431.29,1460,1688,14280,-622,74,-44
431.3,1528,1560,14188,-467,71,-21
431.31,1384,1656,14148,-371,95,-15
431.32,1420,1640,14244,-191,95,10
431.33,1476,1592,14140,-93,132,25
431.34,1520,1596,14124,44,201,12
431.35,1572,1608,14204,204,259,-3
431.36,1432,1668,14004,310,304,6
431.37,1420,1652,14108,434,333,-2
431.38,1460,1772,14172,463,282,5
431.39,1468,1788,14288,605,276,3
431.4,1596,1724,14332,735,292,36
431.41,1468,1796,14376,839,310,37
431.42,1468,1824,14364,879,328,14
431.43,1344,1812,14208,901,382,-1
431.44,1428,1836,14384,926,343,4
431.45,1416,1864,14268,829,328,-26
431.46,1428,1936,14164,755,337,16
431.47,1480,1944,14112,564,200,26
431.48,1452,1860,14092,791,245,27
431.49,1436,1920,14396,1306,383,-41
431.5,1412,2076,14340,1282,402,-43
431.51,1332,2072,14208,1079,370,-77
431.52,1348,2068,14140,996,233,-17
431.53,1316,2048,13976,1099,153,54
431.54,1460,1944,14300,1407,304,2
431.55,1460,2116,14588,1435,497,-7
431.56,1436,2364,13816,583,536,8
431.57,1536,1972,14288,357,221,54
431.58,1616,2112,14720,1938,481,-95
431.59,1384,2412,14004,1584,159,-52
431.6,1436,2232,14036,687,124,-8
431.61,1480,2140,14560,1443,596,-100
431.62,1236,2428,13760,771,174,35
431.63,1540,2148,13636,-35,40,123
431.64,1540,2060,14204,1105,275,19
431.65,1376,2368,14416,1826,281,-11
431.66,1404,2532,14580,1696,336,-18
431.67,1320,2552,14256,1427,331,8
431.68,1368,2544,14320,1348,440,-8
431.69,1436,2664,14136,1227,423,40
431.7,1312,2584,14320,1043,433,37
431.71,1424,2544,14248,951,426,-21
431.72,1344,2616,13856,958,467,-27
431.73,1328,2608,13872,992,445,-19
431.74,1364,2604,13952,1184,413,-43
431.75,1404,2580,14080,1425,369,-65
431.76,1496,2648,14348,1536,338,-78
431.77,1356,2724,14292,1419,348,-68
431.78,1256,2748,14396,1288,370,-80
431.79,1260,2884,14128,1139,337,-84
431.8,1212,2852,14088,916,292,-42
431.81,1376,2860,14164,806,316,-40
431.82,1236,2768,14316,809,201,-30
431.83,1356,2908,14124,735,185,-35
431.84,1324,2880,14112,709,247,-48
431.85,1436,2916,14048,806,245,-63
431.86,1288,3000,13932,859,307,-45
431.87,1320,3000,14124,1000,290,-74
431.88,1360,2972,14072,1119,330,-83
431.89,1368,3028,14232,1294,422,-91
431.9,1432,3064,14076,1317,245,-107
431.91,1132,3156,14472,1431,606,-121
431.92,1112,3256,13924,980,380,-21
431.93,1248,3268,13908,694,302,-34
431.94,1368,3132,14064,893,312,-55
431.95,1368,3168,14020,945,163,-61
431.96,1292,3268,14136,1106,234,-101
431.97,1380,3292,14192,1023,269,-90
431.98,1364,3284,13992,719,247,-64
431.99,1292,3292,13964,706,151,-33
432.0,1268,3336,13992,639,102,-19
432.01,1356,3356,14180,610,170,-57
432.02,1296,3316,14004,767,226,-72
432.03,1336,3412,14052,916,240,-71
432.04,1392,3420,14140,940,270,-108
432.05,1316,3472,14180,869,280,-128
432.06,1276,3420,13976,741,332,-99
432.07,1412,3332,13908,726,319,-101
432.08,1288,3348,14204,790,278,-98
432.09,1364,3412,13992,745,286,-58
432.1,1408,3432,13960,584,249,-103
432.11,1336,3488,13884,693,261,-94
432.12,1248,3480,13952,846,310,-87
432.13,1296,3580,14036,817,312,-119
432.14,1316,3584,13900,734,293,-86
432.15,1248,3552,13936,596,291,-70
432.16,1292,3648,14024,490,285,-71
432.17,1288,3772,14000,449,279,-47
432.18,1324,3696,13952,443,255,-43
432.19,1288,3676,13860,469,229,-37
432.2,1160,3684,13948,469,274,-49
432.21,1288,3620,13924,507,255,-39
432.22,1248,3808,14128,572,271,-53
432.23,1256,3752,13944,571,291,-52
432.24,1252,3796,14072,506,279,-71
432.25,1244,3760,14104,477,282,-32
432.26,1204,3764,13904,475,286,-50
432.27,1264,3760,14084,499,284,-50
432.28,1276,3752,13948,513,315,-72
432.29,1256,3736,13892,479,337,-87
432.3,1276,3824,13920,405,369,-66
432.31,1312,3788,13856,383,354,-94
432.32,1288,3804,13912,359,325,-98
432.33,1188,3864,13880,300,297,-98
432.34,1224,3836,13932,298,295,-28
432.35,1172,3796,14048,315,306,-53
432.36,1172,3828,13800,314,302,-64
432.37,1156,3864,13892,321,286,-47
432.38,1196,3912,13864,276,267,-60
432.39,1224,3860,13876,243,297,-70
432.4,1084,3876,13948,281,289,-65
432.41,1216,3960,13832,278,291,-51
432.42,1040,3920,13824,267,272,-40
432.43,1180,3972,13792,259,270,-65
432.44,1320,4020,14008,242,321,-53
432.45,1188,3928,13984,215,297,-53
432.46,1236,3976,13796,213,288,-33
432.47,1252,3964,14020,207,282,-42
432.48,1248,4064,13952,209,349,-45
432.49,1384,4132,13844,238,316,-68
432.5,1224,4092,14080,226,355,-22
432.51,1184,3992,13872,178,319,-41
432.52,1280,3956,13656,69,292,-40
432.53,1188,3928,13788,-27,234,-2
432.54,1264,4056,13900,-74,198,-19
432.55,1248,3996,13872,60,314,-43
432.56,1284,4032,14044,294,397,-87
432.57,1064,4092,14016,243,370,-86
432.58,1148,3940,13948,72,343,-77
432.59,1096,4076,13836,-153,266,-58
432.6,1144,4016,13768,-168,212,-37
432.61,1104,4084,14072,-81,152,-20
432.62,1108,4044,13996,-437,239,56
432.63,1124,4008,13412,-1068,37,144
432.64,1424,3916,14248,-172,295,-4
432.65,1344,4148,14348,646,512,-172
432.66,1184,4160,13872,-395,10,-22
432.67,1144,3972,14004,-408,167,-19
432.68,1140,4008,13868,-454,236,37
432.69,1008,3824,13404,-1184,-34,119
432.7,1212,3688,13476,-782,-34,128
432.71,1288,3824,13776,-172,-32,78
432.72,1252,3904,14112,12,-88,19
432.73,1220,4044,14120,-12,-82,17
432.74,1156,4116,13984,-254,11,61
432.75,1260,4104,14040,-303,89,76
432.76,1240,4060,14008,-409,74,65
432.77,1328,4072,13936,-477,178,23
432.78,1116,4052,13812,-393,190,17
432.79,1280,3964,13896,-379,241,-4
432.8,1224,3916,13644,-355,234,32
432.81,1244,3912,13708,-260,193,36
432.82,1204,3976,13932,-337,179,16
432.83,1180,3940,13852,-430,204,22
432.84,1180,3920,14084,-521,184,22
432.85,1224,3896,13916,-656,182,39
432.86,1184,3908,14004,-844,173,67
432.87,1252,3884,13996,-922,200,66
432.88,1204,3756,14008,-968,148,55
432.89,1240,3884,14064,-983,131,84
432.9,1344,3796,13876,-1102,156,85
432.91,1284,3820,14044,-1157,212,82
432.92,1140,3812,13844,-1081,157,56
432.93,1216,3760,13780,-1052,149,89
432.94,1236,3788,13968,-1016,185,84
432.95,1172,3812,13864,-993,211,86
432.96,1188,3812,13972,-932,209,29
432.97,1180,3860,13908,-1097,156,38
432.98,1284,3728,14216,-1004,371,14
432.99,1136,3664,13980,-1245,413,90
433.0,1148,3648,13712,-2099,23,168
433.01,1176,3452,13844,-1526,137,91
433.02,1308,3572,13848,-913,112,43
433.03,1284,3420,13920,-1088,37,65
433.04,1292,3536,13908,-1187,92,71
433.05,1180,3488,14076,-1264,10,107
433.06,1256,3472,14140,-1279,24,120
433.07,1232,3376,14020,-1308,103,102
433.08,1364,3488,14112,-1415,147,91
433.09,1300,3496,14212,-1413,160,73
433.1,1288,3384,14160,-1428,149,48
433.11,1312,3364,14104,-1432,188,47
433.12,1348,3300,13892,-1499,158,67
433.13,1348,3204,14016,-1478,126,101
433.14,1168,3204,14012,-1536,94,109
433.15,1256,2916,14052,-1537,37,91
433.16,1264,2900,14044,-1540,58,72
433.17,1368,2892,14112,-1550,87,80
433.18,1356,2900,14156,-1467,58,50
433.19,1320,2836,14112,-1473,78,82
433.2,1352,2908,13908,-1466,77,88
433.21,1312,2760,14116,-1337,106,49
433.22,1476,2792,14260,-1263,112,26
433.23,1360,2832,14032,-1239,87,80
433.24,1392,2692,14172,-1270,126,38
433.25,1368,2656,14236,-1374,113,59
433.26,1292,2808,14212,-1386,104,26
433.27,1308,2600,14056,-1285,50,25
433.28,1484,2604,14032,-1327,0,30
433.29,1416,2560,14064,-1275,74,8
433.3,1328,2540,14160,-1184,114,0
433.31,1308,2472,14212,-1117,118,17
433.32,1400,2568,14308,-1118,93,-6
433.33,1384,2544,14240,-1179,88,-19
433.34,1304,2496,14152,-1258,87,-16
433.35,1256,2452,14096,-1214,64,-2
433.36,1300,2264,14196,-1214,50,-6
433.37,1336,2376,14200,-1040,44,-13
433.38,1388,2336,14264,-1042,137,-3
433.39,1260,2384,14220,-1159,105,-22
433.4,1396,2372,14136,-1199,68,7
433.41,1336,2224,14236,-1187,74,4
433.42,1336,2304,14136,-1134,119,-5
433.43,1444,2168,14184,-1088,128,-49
433.44,1348,2192,14140,-1118,129,-7
433.45,1360,2160,14188,-1183,112,-23
433.46,1404,2208,14332,-1112,114,-13
433.47,1412,2256,14216,-1110,106,-22
433.48,1368,2196,14232,-1067,134,-35
433.49,1512,2204,14168,-1048,121,-30
433.5,1476,2092,14284,-1012,128,-26
433.51,1504,2052,14156,-1061,113,-8
433.52,1324,2084,14076,-1058,-14,-2
433.53,1384,2048,14016,-990,-4,18
433.54,1412,2032,14268,-640,103,-5
433.55,1424,2024,14464,-311,175,-21
433.56,1476,1980,14312,-314,205,-50
433.57,1400,2040,14280,-369,176,-21
433.58,1384,2024,13952,-485,75,19
433.59,1420,2012,14056,-335,64,5
433.6,1372,1900,14440,-16,208,10
433.61,1392,2016,14228,-239,354,11
433.62,1368,2056,13472,-999,81,70
433.63,1584,1760,14384,-421,123,67
433.64,1436,1992,14400,1064,262,-83
433.65,1320,2072,13768,71,-113,8
433.66,1484,1812,14132,236,93,11
433.67,1468,2052,14224,945,435,-58
433.68,1348,2196,14052,362,281,28
433.69,1396,2172,13992,738,235,18
433.7,1376,2168,14208,1082,232,-12
433.71,1428,2256,14368,1321,245,-20
433.72,1380,2228,14444,1295,311,-44
433.73,1400,2416,14296,1245,389,-37
433.74,1364,2412,14288,1056,404,-61
433.75,1300,2412,14124,888,301,-19
433.76,1496,2472,14104,863,283,-4
433.77,1440,2464,14084,780,263,-11
433.78,1252,2556,14212,787,324,-39
433.79,1332,2552,14184,844,319,-51
433.8,1364,2580,13940,856,357,-41
433.81,1348,2580,14064,886,346,-52
433.82,1272,2732,14236,1185,404,-80
433.83,1304,2652,14292,1284,448,-54
433.84,1344,2756,14148,1133,312,-82
433.85,1404,2756,14432,1270,640,-86
433.86,1212,2900,14016,952,502,-26
433.87,1356,2684,13980,528,386,2
433.88,1468,2740,14044,827,432,-51
433.89,1328,2792,13944,869,205,-58
433.9,1376,2864,14224,1182,287,-99
433.91,1412,2880,14260,1120,267,-71
433.92,1352,2848,14144,904,276,-61
433.93,1252,2940,14112,964,225,-60
433.94,1268,2952,13976,887,188,-64
433.95,1256,3016,14172,900,266,-97
433.96,1260,3000,14132,965,287,-92
433.97,1368,2984,14176,1115,313,-114
433.98,1296,3024,14256,1125,341,-126
433.99,1336,3016,13908,909,373,-93
434.0,1340,2988,14076,847,346,-96
434.01,1432,3060,14124,928,364,-88
434.02,1356,3092,14076,904,388,-78
434.03,1324,3072,13968,694,315,-77
434.04,1280,3128,13960,693,272,-69
434.05,1220,3212,13944,793,276,-76
434.06,1344,3068,14152,1043,300,-79
434.07,1324,3264,14068,1045,302,-57
434.08,1320,3232,13988,874,248,-80
434.09,1372,3308,14092,857,265,-49
434.1,1312,3364,14084,876,308,-80
434.11,1252,3320,14100,808,333,-43
434.12,1300,3408,13944,745,315,-39
434.13,1236,3292,13932,760,283,-71
434.14,1268,3384,14016,772,294,-83
434.15,1272,3480,13996,766,276,-55
434.16,1288,3396,13992,811,292,-66
434.17,1300,3344,13996,757,308,-50
434.18,1220,3480,14120,693,275,-63
434.19,1236,3444,14024,704,265,-47
434.2,1096,3504,14092,726,282,-48
434.21,1348,3600,14128,769,242,-84
434.22,1332,3512,13948,797,302,-91
434.23,1308,3480,13836,721,336,-93
434.24,1288,3516,13948,718,290,-80
434.25,1256,3560,13976,722,336,-90
434.26,1160,3644,13972,692,279,-77
434.27,1188,3640,14096,637,285,-70
434.28,1208,3540,14040,674,288,-58
434.29,1264,3688,13932,672,217,-52
434.3,1288,3692,13856,658,281,-60
434.31,1340,3816,14024,625,284,-84
434.32,1232,3764,14076,567,291,-45
434.33,1212,3840,13944,585,295,-40
434.34,1236,3796,13984,514,296,-87
434.35,1244,3728,13912,501,301,-67
434.36,1260,3676,14028,486,241,-72
434.37,1232,3704,14004,454,293,-67
434.38,1344,3784,13948,522,298,-93
434.39,1260,3880,14016,453,293,-58
434.4,1232,3904,14004,395,297,-65
434.41,1232,3872,13980,395,318,-27
434.42,1348,3896,13908,363,311,-74
434.43,1300,3852,13900,430,327,-78
434.44,1292,3948,13956,466,350,-66
434.45,1240,3892,13944,319,307,-60
434.46,1120,3916,13792,180,262,-62
434.47,1192,3876,13816,76,220,-15
434.48,1228,3916,13776,138,222,-7
434.49,1204,3956,13964,369,345,-50
434.5,1220,4032,13920,506,360,-89
434.51,1120,4076,14064,419,322,-88
434.52,1128,3992,13928,192,318,-70
434.53,1124,3960,13784,98,260,-51
434.54,1128,3880,13944,198,197,-47
434.55,1196,4000,14060,-9,188,8
434.56,1076,4052,13496,-842,221,106
434.57,1408,3804,14000,-299,162,22
434.58,1340,3984,14440,800,508,-158
434.59,1084,4244,14096,356,177,-114
434.6,1164,4032,13944,-277,108,-8
434.61,1144,3988,13908,-97,324,-20
434.62,1096,3932,13664,-817,34,106
434.63,1284,3644,13540,-707,-80,126
434.64,1276,3788,13808,-30,-23,86
434.65,1344,3944,14016,228,-60,19
434.66,1204,4004,14112,288,-72,1
434.67,1256,4032,14116,199,-18,19
434.68,1216,4052,13916,62,119,33
434.69,1244,4152,13988,38,114,28
434.7,1236,4064,13976,-60,226,17
434.71,1148,4064,13916,-93,300,-21
434.72,1164,3992,13700,-109,255,-12
434.73,1220,4036,13676,-56,288,-40
434.74,1160,3952,13712,80,224,-28
434.75,1260,3932,13800,110,221,-37
434.76,1296,4020,13828,10,190,-12
434.77,1232,4064,14040,-124,180,-16
434.78,1236,3992,14004,-190,182,1
434.79,1148,3988,14044,-323,186,-35
434.8,1272,3960,13884,-404,243,-18
434.81,1312,4048,14072,-483,250,6
434.82,1240,3904,13960,-591,261,-7
434.83,1188,4016,13896,-742,242,17
434.84,1224,4020,13856,-846,195,26
434.85,1208,4068,14024,-854,174,51
434.86,1132,3908,13844,-833,134,37
434.87,1100,3876,13916,-797,118,66
434.88,1192,3976,13900,-752,141,61
434.89,1220,3884,13984,-780,209,41
434.9,1200,3868,14060,-780,248,27
434.91,1236,3964,14012,-787,211,12
434.92,1300,3896,14408,-800,269,13
434.93,1100,3980,13872,-997,476,30
434.94,1164,3772,13748,-1830,7,152
434.95,1200,3684,13904,-1394,205,64
434.96,1296,3612,14112,-890,80,43
434.97,1276,3800,13956,-1183,71,83
434.98,1244,3688,13876,-1435,62,119
434.99,1288,3720,13928,-1434,85,131
435.0,1344,3680,14068,-1294,80,125
435.01,1288,3672,14004,-1290,4,116
435.02,1216,3660,13988,-1374,54,85
435.03,1292,3616,14044,-1365,89,109
435.04,1284,3640,13964,-1350,57,113
435.05,1264,3532,13924,-1318,86,101
435.06,1292,3532,14032,-1395,161,102
435.07,1344,3456,14008,-1496,199,70
435.08,1256,3480,14048,-1536,177,85
435.09,1316,3324,14108,-1545,149,92
435.1,1264,3404,14076,-1513,183,110
435.11,1248,3332,13900,-1531,76,83
435.12,1304,3284,13972,-1617,9,104
435.13,1292,3196,13880,-1421,51,81
435.14,1340,3136,13916,-1240,64,109
435.15,1196,3172,14096,-1291,72,81
435.16,1296,3084,13980,-1477,119,83
435.17,1336,3104,14064,-1422,106,113
435.18,1248,3140,13960,-1398,84,87
435.19,1356,3048,14032,-1385,61,107
435.2,1364,3148,14096,-1262,104,78
435.21,1224,3100,14028,-1269,104,63
435.22,1304,3028,14160,-1267,84,86
435.23,1216,3056,14052,-1275,97,70
435.24,1380,2884,14192,-1253,133,60
435.25,1296,3048,14228,-1253,97,47
435.26,1292,2948,14044,-1221,68,65
435.27,1288,2868,14228,-1225,119,63
435.28,1368,2912,14120,-1167,105,82
435.29,1204,2812,14228,-1230,107,60
435.3,1440,2804,14048,-1245,96,57
435.31,1312,2784,14264,-1231,83,33
435.32,1428,2816,14184,-1226,124,30
435.33,1364,2808,14156,-1324,132,13
435.34,1408,2824,14104,-1276,120,17
435.35,1376,2708,14180,-1255,128,10
435.36,1256,2644,14120,-1229,135,19
435.37,1332,2620,14012,-1257,91,12
435.38,1300,2656,14060,-1243,80,32
435.39,1296,2568,14020,-1212,37,26
435.4,1344,2572,14156,-1179,45,12
435.41,1492,2568,14100,-1024,4,47
435.42,1364,2588,14268,-1036,58,26
435.43,1360,2512,14108,-990,102,28
435.44,1448,2576,14152,-904,101,42
435.45,1332,2528,14136,-909,133,20
435.46,1344,2460,14208,-896,111,5
435.47,1300,2452,14232,-918,114,31
435.48,1340,2412,14140,-890,99,10
435.49,1352,2452,14128,-886,134,36
435.5,1332,2420,14096,-1013,84,17
435.51,1492,2440,14316,-1045,31,7
435.52,1400,2400,14072,-956,80,-1
435.53,1468,2456,14096,-1053,106,-4
435.54,1420,2356,14324,-1054,114,-12
435.55,1456,2276,14248,-906,149,-19
435.56,1312,2292,14144,-946,183,-22
435.57,1224,2316,14156,-1081,145,-9
435.58,1320,2120,14036,-1116,20,9
435.59,1424,2008,14020,-1035,-20,7
435.6,1456,2164,14088,-629,89,-19
435.61,1472,2240,14124,-311,189,-30
435.62,1400,2304,14076,-249,234,-13
435.63,1460,2172,14232,-334,176,-29
435.64,1216,2216,14096,-389,141,8
435.65,1380,2088,14024,-279,106,13
435.66,1316,2204,14356,61,283,-3
435.67,1256,2096,14348,-106,353,24
435.68,1348,2192,13644,-833,199,112
435.69,1484,1896,14364,-338,178,75
435.7,1604,2108,14600,917,299,-50
435.71,1484,2380,13804,402,-107,-15
435.72,1560,2016,14392,568,312,-34
435.73,1336,2340,13920,284,134,36
435.74,1332,1980,13468,-509,-100,134
435.75,1464,2080,14176,648,230,56
435.76,1452,2192,14424,1202,367,-23
435.77,1448,2340,14432,1390,349,-68
435.78,1352,2380,14400,1294,331,-29
435.79,1436,2520,14356,983,401,-45
435.8,1320,2368,14172,906,398,16
435.81,1340,2536,14248,790,230,8
435.82,1396,2552,14332,590,280,6
435.83,1364,2308,14072,442,321,-13
435.84,1292,2308,14048,542,343,-28
435.85,1336,2424,13912,728,246,3
435.86,1468,2272,14100,1157,235,-50
435.87,1424,2324,14232,1459,200,-42
435.88,1364,2476,14336,1516,282,-56
435.89,1472,2524,14208,1440,384,-74
435.9,1404,2656,14344,1274,408,-86
435.91,1376,2536,14268,1211,368,-72
435.92,1424,2664,14208,1157,376,-80
435.93,1316,2640,14144,1046,348,-46
435.94,1432,2592,14200,1064,375,-44
435.95,1376,2708,14312,1024,366,-57
435.96,1356,2864,14072,996,386,-28
435.97,1240,2724,14088,978,302,-36
435.98,1344,2792,14072,1032,348,-54
435.99,1316,2808,14040,1090,377,-35
436.0,1260,3004,14160,1284,343,-70
436.01,1296,3016,14176,1353,367,-63
436.02,1372,2944,14284,1361,444,-138
436.03,1260,3060,14032,1271,626,-100
436.04,1260,2928,13852,588,346,-32
436.05,1368,2900,14144,624,440,-68
436.06,1220,2964,14008,842,241,-73
436.07,1360,3068,14096,1149,198,-109
436.08,1396,3108,14116,1338,317,-127
436.09,1224,3108,14056,1045,338,-106
436.1,1388,3168,14184,927,285,-89
436.11,1348,3136,14168,905,190,-45
436.12,1340,3224,14052,796,231,-62
436.13,1388,3132,14044,860,255,-100
436.14,1448,3240,14132,1096,340,-142
436.15,1268,3296,13996,1017,381,-141
436.16,1340,3260,14088,899,370,-116
436.17,1324,3228,14084,761,323,-73
436.18,1232,3284,14092,834,348,-103
436.19,1312,3212,13932,835,313,-70
436.2,1220,3324,13948,669,277,-67
436.21,1380,3396,14020,652,276,-62
436.22,1308,3392,14096,720,342,-83
436.23,1248,3464,14052,744,327,-75
436.24,1272,3560,14076,831,306,-99
436.25,1192,3436,13792,756,280,-82
436.26,1324,3520,13972,655,279,-49
436.27,1380,3496,14032,611,235,-61
436.28,1288,3576,14112,612,289,-39
436.29,1308,3544,14008,595,260,-74
436.3,1336,3572,14020,639,310,-65
436.31,1248,3600,13872,623,275,-55
436.32,1400,3624,13968,631,292,-88
436.33,1164,3624,14088,645,339,-98
436.34,1220,3700,14016,612,351,-86
436.35,1312,3640,13972,543,320,-79
436.36,1224,3656,13984,527,303,-70
436.37,1268,3600,13848,550,269,-68
436.38,1324,3768,13952,507,295,-84
436.39,1180,3648,13964,490,244,-87
436.4,1232,3624,13904,505,337,-104
436.41,1252,3736,14020,554,292,-67
436.42,1232,3772,13944,545,288,-97
436.43,1240,3812,13968,513,284,-83
436.44,1136,3792,13988,518,282,-67
436.45,1172,3876,13864,447,286,-83
436.46,1200,3752,13940,423,255,-41
436.47,1220,3896,13880,388,277,-49
436.48,1160,3816,14024,394,261,-72
436.49,1324,3872,14048,363,287,-52
436.5,1268,3816,13972,326,294,-48
436.51,1192,3852,13888,303,268,-63
436.52,1260,3864,13980,269,284,-63
436.53,1132,3836,14032,248,284,-65
436.54,1168,3896,13892,263,287,-74
436.55,1300,3888,13968,291,277,-66
436.56,1316,3896,13988,299,283,-42
436.57,1220,3992,13828,244,269,-65
436.58,1228,3880,13860,252,305,-67
436.59,1232,3936,13956,205,305,-57
436.6,1192,4044,13984,168,270,-63
436.61,1176,3996,13956,223,270,-17
436.62,1196,4012,13840,158,263,-33
436.63,1224,3968,13784,157,233,-32
436.64,1224,3932,13940,133,247,-38
436.65,1200,4036,13908,141,289,-49
436.66,1108,3956,13996,156,285,-57
436.67,1252,4160,13952,132,305,-45
436.68,1164,4040,13864,60,266,-49
436.69,1180,3968,13900,-56,243,-28
436.7,1156,3936,13740,-127,204,-42
436.71,1296,3876,13872,-53,197,-15
436.72,1232,3956,13968,194,307,-54
436.73,1192,4024,13964,321,398,-98
436.74,1124,4060,13904,214,335,-60
436.75,1152,4008,13912,66,322,-66
436.76,1144,4008,13760,-139,256,-26
436.77,1088,3956,13872,33,194,-40
436.78,1088,3988,14100,-84,148,4
436.79,1008,4136,13552,-723,279,98
436.8,1256,3856,13700,-774,71,85
436.81,1340,4116,14396,732,531,-131
436.82,1184,4152,14012,258,184,-76
436.83,1276,4080,14024,-334,104,22
436.84,1296,4020,13768,-203,250,14
436.85,1104,3804,13468,-925,-72,148
436.86,1280,3804,13624,-447,-46,110
436.87,1324,4000,13976,96,-30,52
436.88,1184,3968,14124,328,-124,5
436.89,1268,4036,14004,273,-85,13
436.9,1196,4148,14092,132,61,0
436.91,1120,4048,13940,111,55,38
436.92,1104,4072,14008,39,126,7
436.93,1264,4088,14000,-9,197,13
436.94,1248,4116,13896,58,261,-29
436.95,1232,4112,13768,64,263,-31
436.96,1160,3980,13688,145,205,-35
436.97,1212,3980,13876,293,190,-22
436.98,1192,4072,13908,264,141,-28
436.99,1220,4008,13940,108,165,-26
437.0,1236,4044,13972,-8,233,-10
437.01,1208,4072,13792,-49,229,-8
437.02,1172,4044,13736,-197,256,-21
437.03,1216,4040,13812,-227,243,-5
437.04,1040,4120,14024,-249,207,-2
437.05,1256,4080,13828,-300,240,0
437.06,1188,4020,13940,-329,228,3
437.07,1248,4004,13904,-287,226,7
437.08,1184,4104,13864,-301,242,-22
437.09,1236,4140,13868,-289,234,-43
437.1,1264,4120,13900,-277,216,10
437.11,1220,4076,13852,-273,240,-9
437.12,1268,4184,13792,-241,260,-18
437.13,1172,4128,13912,-284,217,-46
437.14,1196,4064,14364,-163,358,-41
437.15,972,4104,13764,-460,433,-10
437.16,1072,3888,13664,-1186,127,83
437.17,1220,3844,13880,-573,283,3
437.18,1224,4084,14028,-352,197,-38
437.19,1288,3968,13884,-614,143,14
437.2,1240,4044,13972,-751,127,41
437.21,1236,4072,13836,-898,156,44
437.22,1088,4008,14084,-845,106,53
437.23,1312,3952,13936,-931,46,46
437.24,1140,3880,14136,-990,113,52
437.25,1224,3912,13952,-942,141,43
437.26,1180,4004,14088,-1005,120,51
437.27,1220,3928,13988,-1116,123,66
437.28,1256,3824,13804,-1269,131,99
437.29,1256,3784,13840,-1351,97,114
437.3,1348,3788,13840,-1263,107,105
437.31,1236,3740,14020,-1196,93,102
437.32,1204,3732,13824,-1263,136,77
437.33,1172,3764,13880,-1395,78,130
437.34,1236,3680,13768,-1360,68,104
437.35,1208,3596,13968,-1251,97,88
437.36,1156,3632,14036,-1290,96,85
437.37,1256,3648,13940,-1333,118,88
437.38,1244,3564,13976,-1330,155,137
437.39,1252,3612,13980,-1412,198,102
437.4,1284,3632,14060,-1442,180,113
437.41,1308,3420,13988,-1402,118,81
437.42,1280,3560,13972,-1350,106,104
437.43,1288,3428,13864,-1326,137,85
437.44,1236,3476,14028,-1272,158,108
437.45,1224,3448,14156,-1266,121,116
437.46,1252,3308,14016,-1338,168,87
437.47,1184,3444,14100,-1364,135,64
437.48,1236,3392,13972,-1359,151,86
437.49,1232,3288,14180,-1338,154,91
437.5,1264,3400,14040,-1328,150,72
437.51,1388,3280,13992,-1371,111,81
437.52,1308,3224,14020,-1410,95,90
437.53,1292,3176,14068,-1374,79,81
437.54,1344,3216,14044,-1335,59,94
437.55,1292,3128,14256,-1439,62,76
437.56,1376,3148,14092,-1384,27,67
437.57,1300,3160,14204,-1409,125,56
437.58,1264,3004,14060,-1468,105,73
437.59,1340,3008,14008,-1480,39,74
437.6,1300,2944,14064,-1386,61,90
437.61,1256,2976,14268,-1343,25,71
437.62,1256,2976,14236,-1432,53,57
437.63,1284,2840,14104,-1373,55,72
437.64,1284,2900,14140,-1373,66,73
437.65,1340,2864,14112,-1378,67,47
437.66,1272,2888,14132,-1374,111,52
437.67,1324,2800,14116,-1305,41,8
437.68,1408,2840,14120,-1347,65,48
437.69,1384,2672,14080,-1305,58,38
437.7,1304,2688,14148,-1276,104,65
437.71,1284,2740,14220,-1288,90,38
437.72,1204,2708,14076,-1262,85,9
437.73,1368,2628,14236,-1238,121,10
437.74,1400,2668,14240,-1279,88,29
437.75,1372,2676,14280,-1310,116,29
437.76,1292,2536,14264,-1317,90,24
437.77,1356,2608,14144,-1319,20,21
437.78,1380,2592,14040,-1344,21,4
437.79,1500,2484,14032,-1476,-18,38
437.8,1432,2512,14152,-1534,-6,5
437.81,1384,2408,14276,-1239,80,-1
437.82,1424,2412,14384,-969,150,-14
437.83,1344,2416,14280,-966,128,-22
437.84,1348,2444,14172,-1132,126,-37
437.85,1280,2368,14136,-1255,-6,15
437.86,1276,2204,13952,-1290,-47,36
437.87,1436,2172,14232,-961,-37,22
437.88,1408,2264,14400,-1060,217,25
437.89,1240,2488,13704,-1830,235,3
437.9,1576,2052,14160,-1940,-102,78
437.91,1540,2096,14784,-437,266,-72
437.92,1328,2340,14112,-602,-249,-8
437.93,1348,2076,13768,-1546,-392,75
437.94,1520,2036,14508,-489,223,-12
437.95,1304,2068,13640,-1288,-220,74
437.96,1508,1796,13836,-1375,-150,95
437.97,1424,1964,14360,-207,144,11
437.98,1472,2064,14700,67,306,-42
437.99,1440,2180,14552,-36,233,-45
438.0,1432,2160,14348,-268,195,11
438.01,1348,2136,14168,-409,181,29
438.02,1412,2116,14232,-389,58,87
438.03,1468,2136,14136,-442,49,60
438.04,1460,1952,14268,-491,105,43
438.05,1396,1956,13872,-429,191,64
438.06,1492,1976,13868,-206,200,67
438.07,1460,1836,13924,170,128,25
438.08,1536,1884,14196,490,170,0
438.09,1532,1928,14200,683,158,-31
438.1,1452,2024,14400,706,208,3
438.11,1376,2076,14376,702,280,-5
438.12,1520,2032,14184,637,302,20
438.13,1492,2048,14108,657,312,-21
438.14,1488,2152,14352,679,323,-35
438.15,1396,2224,14196,596,315,-36
438.16,1508,2060,14112,573,353,-10
438.17,1392,2112,14084,651,205,-9
438.18,1428,2240,14224,691,283,-27
438.19,1452,2192,13960,806,268,2
438.2,1468,2288,14124,1011,262,-9
438.21,1460,2356,14284,1169,349,-33
438.22,1432,2432,14176,1303,347,-46
438.23,1460,2424,14304,1348,326,-44
438.24,1424,2420,14248,1457,707,-72
438.25,1340,2540,13996,832,375,-1
438.26,1408,2340,14044,732,387,-13
438.27,1364,2376,14024,1027,298,-50
438.28,1360,2496,14164,1165,195,-11
438.29,1424,2516,14252,1311,371,-56
438.3,1312,2548,14156,1185,375,-44
438.31,1516,2588,14308,1056,359,-55
438.32,1504,2560,14124,958,237,-32
438.33,1388,2600,14300,809,268,-70
438.34,1516,2688,14188,850,301,-79
438.35,1384,2644,14252,980,276,-78
438.36,1496,2652,14160,1110,351,-75
438.37,1344,2728,14168,1056,353,-78
438.38,1408,2736,14160,938,410,-83
438.39,1408,2768,14108,924,316,-64
438.4,1384,2744,14140,1040,333,-56
438.41,1336,2688,14316,1134,370,-92
438.42,1260,2692,14088,1039,337,-63
438.43,1380,2856,14032,938,380,-59
438.44,1260,2756,14220,1080,367,-94
438.45,1228,2908,14088,1191,368,-86
438.46,1288,2880,14220,1147,349,-65
438.47,1320,2968,14140,1018,321,-64
438.48,1340,3072,14060,1004,338,-42
438.49,1404,3128,14112,924,377,-46
438.5,1248,3144,14124,842,400,-48
438.51,1400,3136,14168,863,418,-69
438.52,1364,3164,14068,815,354,-59
438.53,1300,3040,14104,772,382,-83
438.54,1324,3188,14156,872,346,-87
438.55,1324,3188,14100,906,338,-64
438.56,1312,3084,14180,869,348,-89
438.57,1332,3128,14008,956,340,-86
438.58,1324,3184,14028,913,298,-45
438.59,1288,3216,14124,939,338,-71
438.6,1300,3268,13956,953,334,-75
438.61,1292,3200,14092,970,368,-82
438.62,1340,3364,13968,918,362,-125
438.63,1324,3316,14052,863,406,-116
438.64,1300,3392,14000,882,338,-94
438.65,1368,3292,14016,853,314,-116
438.66,1276,3404,14052,867,327,-99
438.67,1352,3444,14016,890,298,-99
438.68,1332,3384,13976,868,301,-79
438.69,1332,3496,14156,824,280,-64
438.7,1300,3456,13992,840,322,-53
438.71,1144,3468,13928,814,306,-87
438.72,1248,3564,13984,814,300,-77
438.73,1208,3516,13992,791,275,-71
438.74,1272,3572,14028,852,266,-53
438.75,1320,3636,14100,774,316,-92
438.76,1312,3632,13972,739,332,-68
438.77,1308,3692,14092,667,346,-72
438.78,1256,3624,13868,636,303,-91
438.79,1308,3672,13872,644,269,-95
438.8,1252,3748,13952,664,327,-65
438.81,1276,3724,13908,657,305,-84
438.82,1300,3764,14032,616,303,-69
438.83,1364,3788,14076,591,344,-61
438.84,1268,3712,13960,597,323,-93
438.85,1292,3756,13996,605,336,-61
438.86,1260,3964,14040,503,311,-103
438.87,1204,3812,13892,395,342,-56
438.88,1180,3796,13772,289,243,-56
438.89,1300,3764,13980,286,251,-56
438.9,1276,3780,13928,372,281,-55
438.91,1156,3860,14080,628,394,-116
438.92,1172,3900,14056,607,370,-97
438.93,1216,3924,13964,512,354,-108
438.94,1256,3932,13828,238,329,-81
438.95,1168,3832,13788,182,289,-74
438.96,1236,3828,14140,245,210,-52
438.97,1144,3932,13792,-148,349,37
438.98,1100,3892,13504,-778,100,102
438.99,1444,3800,14128,183,363,-51
439.0,1348,4176,14192,955,436,-162
439.01,1048,4072,13932,-23,61,-22
439.02,1344,3876,13896,123,279,-59
439.03,1208,3956,13808,-119,296,16
439.04,1000,3868,13332,-799,-56,119
439.05,1280,3664,13504,-229,41,78
439.06,1324,3880,13800,285,-3,41
439.07,1240,4072,14152,480,-97,7
439.08,1288,3968,14092,469,-40,-24
439.09,1096,4092,13968,334,54,-22
439.1,1116,4032,14076,287,114,11
439.11,1104,4084,13992,247,90,6
439.12,1324,4048,13880,195,231,-42
439.13,1128,3992,14036,171,294,-64
439.14,1096,4008,13768,202,259,-48
439.15,1236,3944,13756,270,208,-71
439.16,1232,4044,13892,420,196,-35
439.17,1400,4024,13960,351,199,-37
439.18,1240,3980,14032,288,164,-17
439.19,1272,4068,14076,231,184,-15
439.2,1304,3916,13844,161,226,-55
439.21,1212,4048,13932,102,246,-35
439.22,1236,4092,13920,27,265,-50
439.23,1228,4124,13920,-23,219,-26
439.24,1204,4128,13828,-118,226,-19
439.25,1088,4080,13904,-121,225,-8
439.26,1272,4100,13824,-115,220,-20
439.27,1316,4064,13944,-118,250,-18
439.28,1212,4160,13892,-78,235,-20
439.29,1232,4108,14000,-36,289,-24
439.3,1180,4104,13832,-29,295,-25
439.31,1204,4172,13928,-9,331,-58
439.32,1244,4168,13944,-120,204,-62
439.33,1208,4244,14128,113,595,-93
439.34,1152,4180,13484,-798,167,32
439.35,1236,3888,13732,-636,242,41
439.36,1224,4120,13920,-48,225,-31
439.37,1232,4088,14148,-178,184,-37
439.38,1160,4012,13736,-322,228,-31
439.39,1144,4164,13844,-555,195,18
439.4,1076,4076,14028,-546,128,8
439.41,1256,4120,13928,-507,88,16
439.42,1268,4100,13880,-598,107,-6
439.43,1276,4032,13948,-627,157,52
439.44,1216,4036,13884,-608,111,19
439.45,1340,4104,13948,-690,116,53
439.46,1192,4020,13976,-817,140,44
439.47,1192,4020,13888,-849,119,79
439.48,1292,3956,14032,-810,150,38
439.49,1136,3952,13956,-795,163,64
439.5,1208,3840,13968,-836,166,31
439.51,1184,3916,13876,-991,190,52
439.52,1160,3856,13892,-1047,189,59
439.53,1160,3920,13964,-1070,206,18
439.54,1264,3852,13924,-1261,122,70
439.55,1192,3732,13764,-1393,134,86
439.56,1204,3796,13804,-1454,93,112
439.57,1284,3848,14052,-1423,97,111
439.58,1216,3740,13868,-1329,129,80
439.59,1268,3752,13956,-1341,76,94
439.6,1192,3536,13960,-1282,122,92
439.61,1104,3724,13984,-1189,147,89
439.62,1260,3608,13888,-1200,112,107
439.63,1264,3568,13964,-1186,138,65
439.64,1292,3520,14012,-1163,169,90
439.65,1184,3508,13808,-1235,167,91
439.66,1200,3508,13820,-1205,166,92
439.67,1292,3540,14060,-1198,117,88
439.68,1244,3448,14008,-1157,106,93
439.69,1296,3576,14024,-1119,73,128
439.7,1184,3412,13980,-1103,166,111
439.71,1248,3540,14052,-1026,198,39
439.72,1276,3412,14008,-1092,141,48
439.73,1248,3376,14044,-1152,165,68
439.74,1220,3344,13976,-1185,104,72
439.75,1316,3352,14052,-1228,110,83
439.76,1204,3296,14156,-1269,120,70
439.77,1272,3332,14008,-1200,78,67
439.78,1348,3248,13988,-1181,73,68
439.79,1312,3252,14120,-1248,149,70
439.8,1220,3224,13996,-1231,101,72
439.81,1412,3116,14100,-1306,133,48
439.82,1232,3224,14084,-1365,81,89
439.83,1272,3096,14164,-1381,74,85
439.84,1296,3132,14012,-1324,41,95
439.85,1476,3008,14148,-1281,64,82
439.86,1332,3036,14100,-1263,44,93
439.87,1340,3032,14132,-1270,32,66
439.88,1316,2936,14020,-1307,75,79
439.89,1268,3052,14132,-1259,54,78
439.9,1164,2932,14004,-1197,93,75
439.91,1228,2936,14184,-1201,78,79
439.92,1356,2968,14080,-1218,68,50
439.93,1372,2832,14056,-1212,46,71
439.94,1268,2892,14296,-1215,127,46
439.95,1312,2884,14156,-1160,89,52
439.96,1348,2748,14052,-1160,82,47
439.97,1380,2780,14112,-1111,117,37
439.98,1428,2816,14220,-1079,99,38
439.99,1328,2764,14320,-1279,173,27
440.0,1292,2684,14132,-1468,102,25
440.01,1320,2648,14044,-1553,0,74
440.02,1300,2584,14020,-1609,-74,34
440.03,1448,2492,14364,-1176,119,-12
440.04,1408,2632,14300,-940,162,-30
440.05,1320,2620,14212,-999,113,-17
440.06,1332,2644,14228,-1197,91,25
440.07,1348,2452,13888,-1267,-34,23
440.08,1320,2440,14012,-980,-49,40
440.09,1496,2344,14312,-853,67,41
440.1,1388,2648,14364,-1263,311,38
440.11,1344,2416,13508,-1916,-52,73
440.12,1624,2160,14584,-904,106,-3
440.13,1520,2436,14240,122,17,-72
440.14,1316,2444,13804,-945,-351,63
440.15,1480,2204,14464,-273,251,-24
440.16,1340,2324,14044,-377,134,-3
440.17,1260,2120,13532,-1357,-277,131
440.18,1468,2072,13956,-625,-65,147
440.19,1564,2316,14476,386,153,7
440.2,1560,2356,14640,512,198,-16
440.21,1372,2428,14320,482,204,17
440.22,1384,2440,14052,282,336,18
440.23,1256,2376,14196,330,245,51
440.24,1484,2536,14332,276,167,63
440.25,1464,2340,14200,270,225,66
440.26,1460,2312,13940,330,256,37
440.27,1396,2364,13952,465,292,20
440.28,1404,2340,13932,801,196,-2
440.29,1432,2376,14120,1212,221,-31
440.3,1404,2444,14332,1254,243,-40
440.31,1376,2516,14288,1218,268,-64
440.32,1432,2452,14296,1178,297,-46
440.33,1444,2572,14200,1030,308,-57
440.34,1528,2548,14048,935,330,-39
440.35,1476,2592,14100,1045,301,-35
440.36,1388,2712,14052,1045,296,-46
440.37,1480,2592,14132,1026,300,-42
440.38,1352,2688,14096,1081,280,-32
440.39,1484,2760,14184,1154,282,-45
440.4,1428,2720,14152,1203,273,-39
440.41,1352,2812,14140,1370,335,-21
440.42,1368,2816,14168,1578,386,-83
440.43,1336,2996,14104,1698,424,-123
440.44,1380,3020,14200,1624,428,-142
440.45,1376,3008,14344,1550,510,-113
440.46,1316,3072,14176,1419,592,-94
440.47,1324,3076,13860,883,397,-27
440.48,1432,3040,13944,903,438,-112
440.49,1356,2996,14028,1153,221,-91
440.5,1336,3076,14128,1442,305,-144
440.51,1316,3204,14096,1284,341,-116
440.52,1328,3208,14184,1147,310,-97
440.53,1360,3308,14068,1097,271,-97
440.54,1372,3228,14060,1051,242,-110
440.55,1328,3316,13904,1039,288,-124
440.56,1428,3368,14056,1016,300,-98
440.57,1312,3288,14072,1121,301,-155
440.58,1372,3436,14072,1186,305,-115
440.59,1356,3372,13980,1060,324,-138
440.6,1256,3412,14024,965,326,-111
440.61,1252,3304,14040,1003,291,-95
440.62,1392,3324,14192,1085,365,-109
440.63,1308,3376,13944,977,260,-63
440.64,1436,3444,13956,877,282,-89
440.65,1392,3436,14016,984,272,-110
440.66,1316,3564,13944,1067,333,-101
440.67,1416,3496,14080,1106,321,-94
440.68,1308,3568,13964,1010,335,-105
440.69,1196,3572,13972,856,328,-127
440.7,1336,3680,13904,863,302,-100
440.71,1440,3664,13996,787,330,-74
440.72,1300,3712,13940,781,376,-112
440.73,1220,3748,14124,779,319,-73
440.74,1300,3812,13896,737,318,-100
440.75,1328,3700,13940,732,296,-89
440.76,1404,3704,13868,708,305,-112
440.77,1232,3732,13972,701,353,-87
440.78,1236,3824,13856,635,293,-75
440.79,1244,3912,13940,609,320,-70
440.8,1304,3788,13796,588,297,-58
440.81,1336,3888,13864,586,304,-76
440.82,1244,3832,13856,577,291,-96
440.83,1340,3832,13844,558,324,-92
440.84,1276,3880,14084,503,331,-101
440.85,1228,3868,13920,517,392,-95
440.86,1216,3900,13916,502,327,-76
440.87,1192,3972,13992,486,316,-89
440.88,1240,3956,13888,449,324,-74
440.89,1264,3972,13972,423,289,-49
440.9,1320,3824,14076,374,277,-50
440.91,1372,3988,14052,361,302,-59
440.92,1264,3960,13868,296,298,-69
440.93,1240,3868,13960,294,304,-71
440.94,1296,3932,13932,264,323,-61
440.95,1256,4044,13868,304,308,-53
440.96,1180,3944,13832,287,309,-59
440.97,1248,4044,13764,263,294,-78
440.98,1276,4128,13896,248,283,-75
440.99,1308,4088,13932,200,315,-76
441.0,1216,3980,13892,187,284,-37
441.01,1232,4012,13888,161,285,-43
441.02,1212,4044,13944,151,287,-41
441.03,1204,4048,13856,171,292,-40
441.04,1204,4104,13856,250,274,-55
441.05,1264,4064,13864,195,283,-59
441.06,1272,4144,13832,246,326,-85
441.07,1192,4068,13896,194,324,-68
441.08,1108,3956,13920,76,298,-30
441.09,1140,4016,13756,-71,228,-18
441.1,1216,4076,13792,-136,190,-5
441.11,1188,4108,13980,-45,252,-34
441.12,1172,4032,14068,225,350,-61
441.13,1244,4236,13960,221,363,-77
441.14,1192,4096,13956,76,338,-79
441.15,1128,4144,13704,-128,327,-48
441.16,1168,4208,13780,-240,277,-46
441.17,1200,4160,13852,-104,214,-41
441.18,1212,4076,14080,-192,155,5
441.19,1112,4164,13464,-856,251,77
441.2,1380,4004,13784,-665,119,59
441.21,1300,4184,14436,534,517,-110
441.22,1120,4248,13880,-113,67,-26
441.23,1200,4056,13940,-385,151,3
441.24,1156,4200,13784,-432,288,3
441.25,1104,4000,13452,-1138,-11,144
441.26,1268,3740,13604,-810,-83,124
441.27,1448,3944,13896,-291,-60,57
441.28,1248,4100,14144,-164,-126,40
441.29,1228,4136,14036,-226,-72,7
441.3,1184,4136,13816,-412,50,36
441.31,1164,4036,13956,-379,41,52
441.32,1244,4104,13972,-499,202,50
441.33,1240,4084,13996,-500,224,51
441.34,1276,3952,14032,-464,101,62
441.35,1216,3916,13988,-513,117,66
441.36,1340,4024,14032,-637,147,56
441.37,1332,3932,13924,-850,152,40
441.38,1272,3940,13952,-979,168,80
441.39,1188,3780,13920,-1071,180,99
441.4,1244,3916,14120,-1183,126,78
441.41,1296,3848,13872,-1284,99,125
441.42,1260,3756,13940,-1320,85,122
441.43,1232,3752,14004,-1312,70,101
441.44,1372,3792,13880,-1228,74,85
441.45,1236,3776,13884,-1195,108,108
441.46,1240,3672,13904,-1048,161,107
441.47,1300,3764,14000,-989,191,46
441.48,1356,3712,14196,-1008,139,23
441.49,1140,3692,14164,-910,494,34
441.5,1280,3464,13912,-1679,132,66
441.51,1296,3504,13900,-1046,-45,47
441.52,1348,3444,13896,-1160,20,89
441.53,1408,3540,14036,-1207,67,128
441.54,1364,3596,13892,-1148,65,102
441.55,1248,3416,14008,-1085,79,105
441.56,1352,3536,14156,-1115,118,91
441.57,1284,3444,14024,-1209,106,74
441.58,1236,3468,14068,-1200,113,104
441.59,1328,3400,14020,-1194,78,111
441.6,1300,3200,14028,-1274,71,92
441.61,1192,3296,14008,-1375,177,78
441.62,1360,3164,14044,-1438,102,105
441.63,1460,3100,13944,-1408,54,102
441.64,1336,3256,13960,-1388,112,83
441.65,1200,3132,13956,-1447,-14,133
441.66,1392,3100,14192,-1408,-11,118
441.67,1232,3056,14052,-1379,42,95
441.68,1252,3040,14024,-1359,4,71
441.69,1384,2984,13924,-1295,14,99
441.7,1368,2976,14044,-1361,34,79
441.71,1452,2976,14164,-1349,91,76
441.72,1260,3036,14240,-1196,103,53
441.73,1332,3048,13912,-1165,97,34
441.74,1356,2920,14168,-1122,85,71
441.75,1368,2920,14148,-1217,106,45
441.76,1336,2884,13956,-1194,71,31
441.77,1284,2956,14232,-1153,109,42
441.78,1356,2832,14160,-1118,78,45
441.79,1380,2772,14152,-1061,84,27
441.8,1372,2836,14120,-1096,78,53
441.81,1432,2756,14068,-1065,87,35
441.82,1352,2800,14312,-1065,74,60
441.83,1336,2832,14144,-1119,117,38
441.84,1472,2680,14140,-1009,43,28
441.85,1488,2680,14136,-1036,105,24
441.86,1432,2812,14080,-1141,105,6
441.87,1420,2628,14080,-1083,35,-3
441.88,1460,2652,14088,-1053,49,25
441.89,1368,2640,14084,-1093,89,16
441.9,1476,2536,14096,-1053,28,41
441.91,1492,2568,14196,-1072,84,1
441.92,1292,2500,14080,-1074,78,9
441.93,1388,2524,14080,-1008,79,47
441.94,1356,2560,14200,-931,75,-13
441.95,1452,2540,14152,-863,86,-7
441.96,1472,2520,14060,-933,109,31
441.97,1372,2556,14184,-884,84,14
441.98,1476,2516,14124,-789,61,9
441.99,1440,2276,14228,-822,102,12
442.0,1372,2336,14280,-782,107,19
442.01,1392,2424,14160,-728,119,28
442.02,1532,2416,14168,-741,92,9
442.03,1472,2392,14168,-693,122,24
442.04,1456,2372,14248,-586,108,14
442.05,1464,2332,14076,-503,112,11
442.06,1532,2352,14276,-371,166,2
442.07,1456,2320,14184,-336,142,32
442.08,1536,2280,14228,-331,204,13
442.09,1460,2184,14116,-264,183,39
442.1,1340,2244,14052,-257,177,10
442.11,1416,2272,14112,-269,113,30
442.12,1388,2272,13916,-235,96,46
442.13,1408,2264,14112,32,194,11
442.14,1552,2312,14280,304,322,-26
442.15,1524,2356,14328,409,312,-45
442.16,1480,2392,14260,339,284,-76
442.17,1424,2388,14076,192,241,-14
442.18,1428,2324,14032,221,195,1
442.19,1652,2320,14292,505,232,-29
442.2,1396,2388,14456,513,393,-17
442.21,1276,2476,14040,-199,517,7
442.22,1368,2312,13652,-614,62,85
442.23,1648,2324,14700,717,478,-37
442.24,1384,2576,14160,803,-15,-68
442.25,1452,2344,13992,136,12,1
442.26,1536,2440,14536,1084,483,-94
442.27,1272,2636,13852,208,124,19
442.28,1460,2372,13664,-373,-92,134
442.29,1504,2400,14072,696,272,18
442.3,1476,2572,14544,1237,276,-13
442.31,1420,2680,14600,1222,359,-90
442.32,1396,2720,14456,966,280,-56
442.33,1400,2708,14128,751,315,4
442.34,1320,2768,14292,692,298,32
442.35,1496,2688,14200,603,194,21
442.36,1424,2684,14168,493,202,8
442.37,1372,2692,14076,380,290,6
442.38,1332,2724,14136,393,278,10
442.39,1476,2632,13952,504,241,-13
442.4,1528,2624,13952,819,230,0
442.41,1476,2724,14212,1050,207,-38
442.42,1508,2756,14204,1144,268,-71
442.43,1436,2720,14400,1061,316,-100
442.44,1372,2744,14136,954,317,-63
442.45,1404,2868,14368,898,385,-80
442.46,1420,2796,14164,788,351,-54
442.47,1436,2812,14248,771,284,-47
442.48,1280,2804,14100,710,258,-23
442.49,1348,2780,14200,719,302,-47
442.5,1476,2864,14140,771,289,-30
442.51,1420,2936,14068,830,330,-31
442.52,1424,3060,14032,892,390,-63
442.53,1348,3056,13960,950,373,-55
442.54,1336,3096,13984,1014,400,-69
442.55,1444,3148,14064,1058,389,-82
442.56,1432,3184,14156,1001,267,-81
442.57,1404,3172,14344,1031,645,-79
442.58,1296,3228,13960,411,347,-13
442.59,1496,2984,13848,360,416,-37
442.6,1364,2992,13960,646,370,-87
442.61,1380,3092,14140,658,174,-84
442.62,1452,3144,14112,930,267,-99
442.63,1340,3204,14004,882,293,-71
442.64,1420,3168,14116,820,297,-69
442.65,1340,3200,13924,861,232,-81
442.66,1316,3264,14080,756,236,-92
442.67,1484,3348,13996,850,320,-92
442.68,1360,3344,14028,930,275,-108
442.69,1332,3424,14104,985,335,-156
442.7,1376,3384,14016,957,339,-88
442.71,1360,3344,14072,813,319,-108
442.72,1364,3344,14024,749,289,-67
442.73,1352,3424,14008,710,263,-65
442.74,1264,3424,14040,726,271,-24
442.75,1224,3436,14004,611,239,-35
442.76,1324,3496,13840,627,286,-66
442.77,1396,3428,13988,791,311,-95
442.78,1408,3476,14068,811,350,-95
442.79,1364,3500,13976,815,311,-117
442.8,1388,3516,14116,670,272,-75
442.81,1256,3548,13924,638,305,-83
442.82,1252,3508,14052,636,316,-56
442.83,1276,3644,14004,641,326,-70
442.84,1160,3660,13976,612,311,-48
442.85,1288,3724,14008,639,276,-53
442.86,1312,3628,13908,572,268,-52
442.87,1320,3720,14028,579,268,-81
442.88,1284,3656,14016,580,307,-82
442.89,1316,3764,13988,583,283,-50
442.9,1232,3676,14012,538,276,-78
442.91,1280,3664,13908,528,294,-65
442.92,1236,3680,14056,529,256,-56
442.93,1412,3744,14120,510,288,-76
442.94,1384,3788,13872,509,246,-67
442.95,1320,3784,14040,503,310,-90
442.96,1380,3784,13952,522,331,-89
442.97,1264,3916,13928,507,311,-91
442.98,1424,3848,14012,483,265,-56
442.99,1320,3864,13904,459,278,-108
443.0,1224,3864,13820,450,299,-86
443.01,1308,3900,13904,452,300,-87
443.02,1240,3888,14008,440,254,-44
443.03,1260,3848,13828,374,288,-57
443.04,1268,3844,13880,337,274,-46
443.05,1324,3964,13872,285,278,-23
443.06,1208,4004,13900,301,252,-52
443.07,1344,3940,13872,261,284,-73
443.08,1368,3952,13924,259,319,-75
443.09,1272,3952,13972,269,296,-73
443.1,1304,3992,13880,223,331,-79
443.11,1324,4012,13952,169,302,-57
443.12,1172,3968,13832,184,312,-84
443.13,1256,3984,13988,160,304,-42
443.14,1336,4040,13916,199,282,-33
443.15,1228,4016,13792,212,279,-54
443.16,1344,3972,13844,232,305,-70
443.17,1348,4008,14000,213,316,-63
443.18,1244,4004,13812,149,312,-72
443.19,1208,4040,13808,23,271,-39
443.2,1224,4080,13720,-62,214,-28
443.21,1184,3928,13840,-42,213,-41
443.22,1328,4004,13896,199,334,-68
443.23,1284,4100,14052,374,422,-109
443.24,1188,4144,14224,235,368,-107
443.25,1212,4116,13912,30,353,-83
443.26,1140,4088,13692,-103,277,-31
443.27,1184,4020,13804,7,216,-50
443.28,1204,4020,14024,-2,183,-25
443.29,1164,4088,13596,-427,320,54
443.3,1284,3868,13624,-784,49,79
443.31,1524,4032,14352,254,473,-64
443.32,1240,4308,14276,582,360,-123
443.33,1200,4072,13884,-348,-8,4
443.34,1296,4064,13812,-82,267,-36
443.35,1064,4128,13440,-597,129,79
443.36,1172,3744,13480,-810,-135,145
443.37,1388,3884,13456,-157,6,104
443.38,1308,4084,14052,176,-22,18
443.39,1300,4080,14148,301,-118,-3
443.4,1264,4088,13868,182,-64,38
443.41,1176,4140,14016,-27,43,40
443.42,1196,4200,13988,21,31,31
443.43,1228,4156,13984,94,134,17
443.44,1244,4196,13796,63,220,-13
443.45,1212,4184,13736,100,249,-20
443.46,1160,4064,13828,65,251,-42
443.47,1204,4152,13952,169,211,0
443.48,1292,4096,13704,319,143,-20
443.49,1404,4124,13916,294,150,-26
443.5,1340,4152,13860,219,163,2
443.51,1312,4144,13968,215,188,-47
443.52,1272,4144,13928,100,235,-22
443.53,1256,4148,13872,17,277,-32
443.54,1244,4152,13900,-48,251,-54
443.55,1332,4060,13848,-94,226,-22
443.56,1212,4084,13812,-149,250,-23
443.57,1276,4116,13836,-180,245,19
443.58,1260,4144,13808,-157,242,0
443.59,1300,4088,13788,-147,205,-2
443.6,1136,4212,13904,-99,222,-15
443.61,1288,4264,13756,-41,256,-54
443.62,1288,4204,13824,-31,281,-16
443.63,1252,4156,13716,-12,334,-44
443.64,1184,4216,13912,-32,279,-24
443.65,1196,4220,14088,8,275,-35
443.66,1200,4292,14044,121,569,-78
443.67,1132,4276,13600,-581,146,48
443.68,1268,4044,13816,-70,315,-9
443.69,1324,4088,13888,119,303,-40
443.7,1296,4168,13828,-1,244,-60
443.71,1292,4108,13888,-110,231,-54
443.72,1160,4196,13864,-287,243,-7
443.73,1268,4232,13780,-292,175,-5
443.74,1252,4168,13824,-249,58,0
443.75,1388,4112,13808,-312,64,16
443.76,1356,4144,13768,-217,136,13
443.77,1356,4176,13848,-169,125,-33
443.78,1312,4180,13960,-156,150,-6
443.79,1312,4180,13984,-204,176,-21
443.8,1272,4144,13916,-318,187,16
443.81,1336,4204,13992,-358,166,-7
443.82,1264,4120,13944,-372,155,28
443.83,1292,4200,14024,-350,125,3
443.84,1268,4128,13824,-505,123,22
443.85,1140,4120,13888,-644,143,51
443.86,1244,4140,13912,-610,182,38
443.87,1292,3984,13808,-653,186,11
443.88,1132,4080,13864,-709,181,39
443.89,1372,4048,13828,-780,186,20
443.9,1180,4056,13912,-840,183,69
443.91,1268,3948,13936,-909,160,62
443.92,1208,4032,13876,-831,169,77
443.93,1300,4108,13816,-787,163,53
443.94,1220,4048,13908,-804,202,62
443.95,1228,4032,13844,-774,167,40
443.96,1232,3876,13772,-784,150,73
443.97,1172,4052,13812,-821,166,48
443.98,1236,3848,13888,-735,173,47
443.99,1224,3928,13880,-750,179,72
444.0,1180,3876,13848,-829,173,54
444.01,1312,3892,13832,-770,149,30
444.02,1364,3876,13932,-703,197,44
444.03,1296,3940,13988,-749,215,36
444.04,1312,3896,13924,-849,209,30
444.05,1348,3868,14028,-878,177,48
444.06,1336,3788,13972,-953,243,55
444.07,1256,3820,13892,-1011,189,64
444.08,1280,3744,13912,-1023,142,68
444.09,1248,3644,14104,-985,157,55
444.1,1292,3712,13900,-1049,142,59
444.11,1280,3732,13968,-1085,144,59
444.12,1252,3708,13916,-1155,192,56
444.13,1384,3640,13992,-1238,104,78
444.14,1252,3640,13996,-1231,155,88
444.15,1192,3692,14104,-1251,107,102
444.16,1216,3488,14068,-1327,91,96
444.17,1344,3620,14088,-1229,56,108
444.18,1240,3540,14028,-1183,132,95
444.19,1276,3600,14024,-1211,171,65
444.2,1356,3472,14084,-1234,148,97
444.21,1340,3560,14052,-1282,135,70
444.22,1352,3412,14024,-1259,142,111
444.23,1300,3376,13928,-1236,80,87
444.24,1312,3468,13916,-1206,89,111
444.25,1400,3400,14048,-1133,63,111
444.26,1336,3356,14136,-1105,97,85
444.27,1468,3400,14096,-1131,120,87
444.28,1352,3288,14092,-1174,132,109
444.29,1384,3320,14088,-1141,182,60
444.3,1344,3264,14112,-1211,117,83
444.31,1280,3272,14080,-1352,110,59
444.32,1324,3172,14132,-1393,138,67
444.33,1288,3184,13920,-1533,16,123
444.34,1464,3104,14008,-1529,39,119
444.35,1336,3040,14092,-1254,155,84
444.36,1444,3124,14364,-997,187,50
444.37,1360,3116,14280,-1012,156,52
444.38,1248,3128,14040,-1193,103,37
444.39,1364,3008,13988,-1311,64,54
444.4,1344,2988,13884,-1245,-49,88
444.41,1508,3032,14232,-1025,31,61
444.42,1308,3040,14132,-1252,265,138
444.43,1320,3132,13756,-2063,172,157
444.44,1536,2808,14100,-1888,-34,99
444.45,1584,2796,14452,-601,219,-40
444.46,1304,3056,13764,-972,-303,69
444.47,1504,2712,14096,-1434,-248,112
444.48,1388,2736,14272,-631,204,14
444.49,1216,2796,13772,-1578,-312,188
444.5,1452,2496,13744,-1702,-233,170
444.51,1516,2628,14148,-615,17,73
444.52,1488,2848,14404,-247,54,-12
444.53,1356,2892,14344,-650,24,26
444.54,1312,2880,14328,-902,20,79
444.55,1432,2816,14220,-1039,57,115
444.56,1280,2696,14296,-1146,-28,62
444.57,1428,2692,14276,-1171,-33,134
444.58,1416,2608,14024,-1199,72,66
444.59,1512,2532,14032,-1269,129,53
444.6,1400,2516,13884,-1159,38,77
444.61,1512,2440,13948,-882,18,27
444.62,1584,2372,14036,-576,40,22
444.63,1472,2488,14296,-450,41,6
444.64,1544,2524,14292,-515,34,10
444.65,1520,2492,14080,-614,124,-10
444.66,1536,2488,14244,-655,126,30
444.67,1560,2508,14092,-663,108,35
444.68,1364,2380,14108,-734,90,34
444.69,1464,2416,14296,-738,51,41
444.7,1560,2500,14092,-677,81,45
444.71,1564,2432,14116,-734,31,64
444.72,1440,2404,14124,-630,146,32
444.73,1612,2444,14084,-480,119,15
444.74,1520,2412,14220,-321,162,1
444.75,1396,2528,14328,-146,192,-9
444.76,1436,2452,14112,-8,237,-5
444.77,1428,2480,14152,-68,127,-6
444.78,1420,2432,14512,213,444,-53
444.79,1392,2428,14048,-151,344,34
444.8,1488,2348,13900,-502,183,55
444.81,1504,2272,13908,-187,129,23
444.82,1560,2376,14312,-8,72,-14
444.83,1500,2380,14204,320,167,-47
444.84,1560,2504,14188,193,203,-12
444.85,1488,2472,14284,144,211,-8
444.86,1528,2460,14204,130,179,6
444.87,1536,2432,14172,98,176,-27
444.88,1532,2560,14248,145,184,-6
444.89,1620,2556,14084,227,145,-13
444.9,1484,2544,14184,299,204,-27
444.91,1548,2456,14272,383,237,-22
444.92,1572,2472,14368,332,291,-46
444.93,1584,2380,14280,252,306,-32
444.94,1520,2432,14172,235,252,-25
444.95,1544,2552,14316,344,279,-36
444.96,1516,2508,14284,225,266,-20
444.97,1432,2428,14048,134,218,-18
444.98,1580,2512,14144,270,208,-37
444.99,1500,2492,14196,376,205,-40
445.0,1488,2512,14144,439,228,-38
445.01,1616,2604,14188,443,267,-31
445.02,1564,2604,14228,385,322,-12
445.03,1456,2556,14160,390,369,-21
445.04,1364,2588,14148,449,355,-11
445.05,1432,2528,14076,491,328,-43
445.06,1508,2600,14112,509,293,-53
445.07,1480,2720,14096,584,288,-13
445.08,1464,2652,14140,573,263,-22
445.09,1368,2656,14180,625,311,-14
445.1,1428,2776,14144,685,268,-10
445.11,1500,2724,14168,720,303,-39
445.12,1428,2676,14104,733,297,-71
445.13,1468,2772,14040,855,324,-74
445.14,1496,2780,14136,903,382,-79
445.15,1420,2892,14164,879,421,-100
445.16,1488,2792,14188,824,401,-64
445.17,1532,2840,14000,745,349,-54
445.18,1444,2884,14080,748,353,-87
445.19,1608,2900,14068,702,299,-85
445.2,1460,2876,14080,697,298,-65
445.21,1476,2924,14200,704,273,-41
445.22,1348,2944,13904,709,287,-62
445.23,1348,3044,14152,828,328,-64
445.24,1420,2996,14176,821,360,-80
445.25,1464,2916,14056,819,352,-96
445.26,1380,2940,14096,905,333,-79
445.27,1420,3072,13896,913,392,-85
445.28,1384,3068,13884,865,372,-79
445.29,1372,3064,13988,846,371,-111
445.3,1444,3156,14100,815,381,-82
445.31,1340,3156,14076,724,358,-96
445.32,1304,3240,14152,705,375,-101
445.33,1328,3256,13972,696,345,-84
445.34,1380,3136,14080,649,375,-83
445.35,1376,3244,13964,630,386,-62
445.36,1444,3244,13924,673,310,-61
445.37,1324,3252,13972,671,347,-90
445.38,1344,3356,14088,547,307,-105
445.39,1388,3336,13832,440,259,-60
445.4,1508,3212,13936,500,228,-50
445.41,1464,3112,14104,773,373,-108
445.42,1428,3384,14304,1026,476,-163
445.43,1320,3404,14160,998,476,-155
445.44,1236,3556,14060,725,435,-136
445.45,1432,3476,13952,588,340,-134
445.46,1320,3388,13892,498,303,-101
445.47,1388,3352,14092,591,201,-86
445.48,1264,3276,14176,393,280,-40
445.49,1272,3480,13628,-399,189,52
445.5,1596,3256,14284,289,269,-73
445.51,1436,3552,14368,1401,424,-174
445.52,1264,3664,13812,548,17,-57
445.53,1400,3488,14012,336,236,-63
445.54,1416,3596,14008,701,491,-110
445.55,1184,3384,13428,-411,-105,93
445.56,1376,3180,13636,12,130,50
445.57,1396,3492,14012,801,52,-26
445.58,1464,3488,14332,1054,-55,-59
445.59,1356,3648,14208,1025,56,-63
445.6,1216,3656,14096,703,78,-49
445.61,1328,3748,14072,583,182,-14
445.62,1352,3824,14064,533,114,-34
445.63,1452,3872,14156,477,184,-44
445.64,1260,3776,13996,482,305,-60
445.65,1344,3740,13880,442,317,-60
445.66,1248,3724,13764,519,256,-66
445.67,1376,3648,13852,654,199,-83
445.68,1344,3680,13924,756,183,-93
445.69,1332,3696,14124,742,170,-73
445.7,1336,3724,13968,655,226,-65
445.71,1372,3684,14116,565,255,-92
445.72,1376,3728,14004,475,272,-40
445.73,1344,3748,14068,429,349,-52
445.74,1292,3888,13836,356,299,-65
445.75,1412,3856,13880,250,248,-62
445.76,1372,3752,13896,217,248,-30
445.77,1520,3732,14084,253,228,-43
445.78,1376,3940,13772,281,257,-59
445.79,1384,3792,13864,301,286,-45
445.8,1336,3832,13908,352,273,-52
445.81,1384,3764,13820,404,313,-59
445.82,1328,3836,13796,494,364,-58
445.83,1264,3964,13852,478,316,-87
445.84,1420,3984,14108,548,286,-97
445.85,1184,4100,14120,609,630,-102
445.86,1256,4020,13688,-54,256,-11
445.87,1364,3844,13540,-165,268,-16
445.88,1416,3944,13944,407,304,-94
445.89,1360,4000,13956,559,224,-106
445.9,1424,4028,13792,114,98,-52
445.91,1428,4048,13772,140,164,-42
445.92,1360,4132,13932,16,254,-24
445.93,1248,4060,13916,-779,225,44
445.94,1244,3932,13932,-808,212,61
445.95,1384,3344,13948,-1721,-21,178
445.96,1400,3340,14128,-1391,129,115
445.97,1332,3248,13980,-1691,-16,149
445.98,1272,2928,14304,-1253,145,90
445.99,1360,2904,14304,-1488,90,70
446.0,1488,2868,14104,-1661,101,111
446.01,1508,2380,14164,-1227,73,11
446.02,1496,1908,14288,-975,189,-81
446.03,1572,1828,14224,-853,124,-44
446.04,1460,1852,14144,-848,133,-41
446.05,1508,2248,14188,1061,395,-46
446.06,1204,3640,13932,786,420,-57
446.07,1292,3624,14012,517,212,-56
446.08,1332,3632,14032,556,189,-55
446.09,1352,3728,14028,535,167,-85
446.1,1492,3712,14176,559,196,-76
446.11,1328,3700,14020,599,170,-80
446.12,1320,3732,14052,656,212,-70
446.13,1392,3708,13960,607,258,-80
446.14,1356,3788,13864,454,250,-66
446.15,1328,3772,14060,492,274,-79
446.16,1324,3708,13948,507,302,-52
446.17,1256,3744,13844,346,243,-68
446.18,1280,3688,13888,426,274,-72
446.19,1276,3740,14004,465,275,-78
446.2,1248,3784,13952,479,316,-77
446.21,1264,3812,13764,422,284,-59
446.22,1332,3764,13772,395,243,-58
446.23,1284,3828,13880,337,289,-42
446.24,1136,3732,13860,328,304,-51
446.25,1248,3796,14036,392,257,-53
446.26,1272,3912,13764,335,264,-19
446.27,1248,3856,14028,283,243,-68
446.28,1300,4032,13956,328,275,-61
446.29,1344,3868,13896,320,266,-53
446.3,1220,3880,13928,371,268,-67
446.31,1336,4012,13824,312,323,-11
446.32,1276,3992,13896,270,288,-76
446.33,1372,3844,13856,230,275,-46
446.34,1236,3944,13940,223,259,-53
446.35,1320,3956,13868,217,279,-40
446.36,1368,3936,13820,171,317,-54
446.37,1284,3952,13892,205,299,-56
446.38,1180,3924,13936,218,312,-66
446.39,1236,3984,13872,196,317,-62
446.4,1224,4012,13972,171,296,-67
446.41,1256,4008,13856,153,277,-49
446.42,1220,4068,13996,129,283,-49
446.43,1264,4012,13924,34,270,-61
446.44,1212,4036,13928,43,254,-27
446.45,1352,3960,13868,50,256,-31
446.46,1212,3940,13852,5,228,-57
446.47,1272,3960,13752,18,268,-17
446.48,1256,3948,13804,-42,283,-29
446.49,1208,4096,13800,-19,263,-26
446.5,1224,4004,13808,-42,242,-27
446.51,1288,4048,13776,-67,263,-23
446.52,1240,3984,13832,-46,274,-24
446.53,1232,4072,13896,-58,269,-53
446.54,1280,4084,13920,-62,306,-15
446.55,1256,4052,13812,-137,285,-31
446.56,1344,4032,13980,-147,258,-23
446.57,1236,3976,13832,-163,283,-33
446.58,1232,4004,13800,-203,234,-2
446.59,1232,4056,13812,-170,234,12
446.6,1268,4084,13780,-157,258,-28
446.61,1264,3988,13900,-141,264,1
446.62,1288,4016,13836,-187,275,-38
446.63,1216,4004,14000,-229,275,-8
446.64,1196,3980,13912,-337,259,-26
446.65,1248,4044,13804,-449,174,-3
446.66,1172,4024,13864,-527,135,5
446.67,1056,3988,13996,-466,196,-17
446.68,1300,4068,14076,-282,358,-11
446.69,1172,4060,13964,-321,388,-53
446.7,1232,3984,14024,-546,323,-43
446.71,1168,3988,13836,-783,263,10
446.72,1124,3852,13788,-903,202,29
446.73,1220,3948,14020,-912,105,48
446.74,1172,3956,14016,-1225,91,120
446.75,1152,3956,13548,-2058,118,187
446.76,1352,3760,13808,-1772,24,153
446.77,1476,3896,14676,-568,350,21
446.78,1168,4020,13960,-1111,-69,91
446.79,1204,3868,13864,-1988,3,139
446.8,1324,3640,13852,-1725,214,146
446.81,1076,3664,13576,-2291,-114,249
446.82,1160,3488,13512,-2354,-307,285
446.83,1344,3324,13852,-1390,-182,184
446.84,1364,3648,14328,-862,-189,147
446.85,1224,3796,14244,-1148,-200,153
446.86,1276,3716,14136,-1293,-89,167
446.87,1132,3728,14124,-1390,39,189
446.88,1228,3648,14068,-1597,18,203
446.89,1312,3636,14068,-1635,29,220
446.9,1336,3628,14048,-1768,80,172
446.91,1288,3492,13888,-1826,56,158
446.92,1344,3320,13844,-1804,39,206
446.93,1184,3136,13884,-1572,-41,159
446.94,1224,3148,14132,-1274,33,139
446.95,1384,3280,14140,-1265,108,122
446.96,1520,3140,14224,-1316,104,102
446.97,1404,3204,13984,-1456,158,101
446.98,1248,3144,13968,-1563,123,113
446.99,1352,3088,14068,-1612,71,124
447.0,1332,3152,14064,-1541,80,131
447.01,1400,3012,14204,-1442,88,140
447.02,1268,3080,14224,-1656,93,81
447.03,1384,2952,14204,-1711,90,99
447.04,1356,2964,14140,-1723,55,89
447.05,1440,3012,14284,-1618,41,91
447.06,1284,2868,14264,-1527,54,85
447.07,1380,2840,14176,-1519,140,108
447.08,1228,2768,14092,-1436,158,54
447.09,1176,2932,14236,-1301,194,46
447.1,1316,2824,14260,-1338,75,2
447.11,1392,2856,14244,-1150,362,-1
447.12,1316,2820,13992,-1440,192,68
447.13,1360,2656,13780,-2004,38,87
447.14,1452,2472,14056,-1432,-56,21
447.15,1432,2596,14292,-911,-9,-32
447.16,1480,2668,14140,-1205,83,35
447.17,1280,2656,14256,-1410,106,30
447.18,1332,2676,14164,-1415,50,26
447.19,1344,2584,14280,-1427,-34,35
447.2,1452,2572,14392,-1529,12,21
447.21,1520,2404,14264,-1484,70,-46
447.22,1448,2536,14360,-1516,101,-41
447.23,1464,2480,14156,-1546,53,-25
447.24,1564,2424,14156,-1433,171,-35
447.25,1428,2288,14244,-1490,141,-17
447.26,1424,2264,14144,-1556,137,-18
447.27,1400,2196,14104,-1509,102,-32
447.28,1432,2312,14164,-1360,109,-36
447.29,1376,2332,14080,-1267,96,-48
447.3,1408,2184,14184,-1313,29,-39
447.31,1388,2184,14348,-1262,106,-44
447.32,1388,2168,14284,-1163,94,-25
447.33,1504,2232,14368,-1202,38,-20
447.34,1368,2188,14312,-1232,93,-13
447.35,1296,2236,14312,-1358,97,-29
447.36,1452,2188,14212,-1375,84,-13
447.37,1596,2112,14212,-1303,107,-36
447.38,1524,2080,14248,-1340,101,-47
447.39,1432,2048,14164,-1232,51,-58
447.4,1368,2020,14292,-1151,62,-52
447.41,1388,2012,14316,-1140,129,-31
447.42,1380,1976,14216,-1095,108,-34
447.43,1468,1912,14164,-1023,111,-49
447.44,1472,1912,14276,-1078,94,-8
447.45,1528,1792,14252,-1003,151,-52
447.46,1448,1944,14272,-908,91,-39
447.47,1452,1912,14184,-804,92,-11
447.48,1444,1884,14228,-744,143,-39
447.49,1452,1792,13924,-649,150,-46
447.5,1240,1812,14108,-604,64,20
447.51,1468,1772,14128,-524,102,-11
447.52,1556,1748,14116,-265,103,6
447.53,1584,1804,14300,-205,171,0
447.54,1480,1784,14256,-142,190,-25
447.55,1556,1748,14104,-99,118,26
447.56,1484,1800,14136,48,156,8
447.57,1504,1708,14100,238,253,28
447.58,1556,1692,14160,310,262,20
447.59,1344,1784,14208,509,289,4
447.6,1400,1672,14264,589,256,-3
447.61,1608,1748,14208,602,272,6
447.62,1476,1736,14200,667,284,18
447.63,1464,1892,14188,725,292,2
447.64,1492,1940,14248,778,325,18
447.65,1420,1972,14268,844,299,12
447.66,1508,2044,14236,985,339,6
447.67,1448,2016,14272,1070,361,2
447.68,1480,2036,14248,1052,392,-5
447.69,1436,2044,14232,933,343,13
447.7,1452,1992,14068,856,242,25
447.71,1420,2044,14084,857,185,48
447.72,1468,2064,14092,1153,302,5
447.73,1544,2052,14460,1639,420,-35
447.74,1460,2188,14424,1762,583,-98
447.75,1416,2300,14456,1513,606,-107
447.76,1392,2268,14172,1173,484,-48
447.77,1384,2248,14184,1091,392,-33
447.78,1452,2280,14304,1188,291,-41
447.79,1540,2276,14248,1080,473,-37
447.8,1280,2448,13788,-105,506,21
447.81,1496,2228,13912,-227,107,79
447.82,1536,2208,14784,1069,503,-79
447.83,1364,2560,14132,1561,143,-67
447.84,1340,2452,13912,542,-25,21
447.85,1508,2420,14416,1276,535,-78
447.86,1236,2500,13868,607,134,61
447.87,1400,2364,13660,-40,-36,130
447.88,1548,2256,14028,953,291,42
447.89,1488,2484,14548,1750,283,-27
447.9,1580,2724,14464,1684,380,-65
447.91,1336,2820,14320,1263,346,-5
447.92,1440,2824,14196,1153,462,-56
447.93,1228,2864,14260,1151,413,-14
447.94,1436,2836,14132,951,326,1
447.95,1388,2812,14148,775,374,1
447.96,1380,2748,13960,635,395,-7
447.97,1300,2736,13844,733,352,14
447.98,1460,2684,13736,891,262,-20
447.99,1360,2756,14132,1156,263,-25
448.0,1404,2744,14180,1341,258,-26
448.01,1404,2884,14196,1279,294,-62
448.02,1492,2792,14444,1206,355,-98
448.03,1432,2940,14176,1038,389,-83
448.04,1280,2984,13984,928,399,-55
448.05,1304,3080,14104,847,306,-40
448.06,1380,2852,14140,772,303,-48
448.07,1372,3120,14188,727,263,-71
448.08,1300,2956,13988,693,270,-41
448.09,1344,2972,13972,707,270,-50
448.1,1352,3004,14068,876,281,-56
448.11,1184,3156,14060,999,342,-81
448.12,1436,3092,14120,1092,366,-90
448.13,1300,3248,14156,1156,332,-86
448.14,1404,3276,14256,1263,553,-136
448.15,1220,3308,13936,950,512,-97
448.16,1260,3248,13900,436,324,-23
448.17,1464,3208,14052,638,305,-84
448.18,1336,3196,13932,772,148,-76
448.19,1424,3244,14124,1035,236,-132
448.2,1344,3356,13800,950,263,-118
448.21,1284,3300,14044,734,236,-50
448.22,1376,3400,14072,766,195,-26
448.23,1336,3608,13920,737,152,-71
448.24,1404,3512,13932,621,200,-60
448.25,1388,3448,14120,775,215,-109
448.26,1324,3456,14100,787,223,-96
448.27,1392,3460,14052,820,202,-79
448.28,1296,3496,14080,789,263,-85
448.29,1240,3460,14084,592,264,-84
448.3,1368,3508,14052,636,251,-80
448.31,1404,3516,14224,732,286,-79
448.32,1280,3624,14028,590,300,-78
448.33,1324,3448,14000,544,242,-87
448.34,1252,3468,13928,665,316,-68
448.35,1244,3560,14024,658,330,-79
448.36,1192,3608,13908,666,328,-93
448.37,1260,3632,14056,619,250,-81
448.38,1172,3592,13944,567,261,-66
448.39,1256,3672,13844,599,291,-51
448.4,1284,3724,14008,529,303,-46
448.41,1300,3684,14000,546,288,-64
448.42,1260,3836,14016,493,288,-51
448.43,1236,3712,13792,505,257,-32
448.44,1384,3776,13900,510,215,-61
448.45,1316,3792,13948,532,284,-115
448.46,1272,3808,13956,595,313,-63
448.47,1124,3800,13932,547,307,-74
448.48,1108,3848,13936,460,330,-80
448.49,1308,3788,13880,382,319,-58
448.5,1272,3860,13940,438,271,-49
448.51,1264,3908,13976,454,325,-81
448.52,1288,3852,13960,423,292,-51
448.53,1164,3828,14012,403,311,-79
448.54,1260,3956,13824,369,315,-51
448.55,1360,4028,13916,401,294,-64
448.56,1188,3932,13932,335,286,-55
448.57,1212,3900,13884,329,309,-71
448.58,1236,4004,13936,297,271,-79
448.59,1232,3928,13984,257,306,-60
448.6,1220,3904,14016,256,240,-58
448.61,1288,3920,13820,315,243,-85
448.62,1316,3972,13932,266,293,-65
448.63,1280,3988,13864,226,263,-49
448.64,1276,3988,13916,245,299,-58
448.65,1248,4004,13716,209,281,-57
448.66,1216,4104,13900,187,275,-52
448.67,1260,4092,13952,185,268,-70
448.68,1168,3956,13848,161,315,-62
448.69,1324,4044,13896,106,296,-49
448.7,1180,4008,14008,208,307,-39
448.71,1248,4080,13976,204,296,-79
448.72,1200,4060,13932,180,354,-76
448.73,1332,4072,13832,82,318,-37
448.74,1304,4064,13892,-8,308,-10
448.75,1200,4076,13888,-32,231,-2
448.76,1204,4016,13784,-117,216,-9
448.77,1284,4016,13832,36,280,-40
448.78,1300,4036,14032,273,389,-87
448.79,1228,4044,13960,292,419,-90
448.8,1128,4108,13772,112,350,-75
448.81,1240,4152,13692,-47,291,-43
448.82,1224,4132,13896,-57,263,-47
448.83,1144,4136,13936,-85,140,17
448.84,1016,4040,13788,-593,213,70
448.85,1116,3996,13440,-976,-18,146
448.86,1548,3916,14192,3,317,-27
448.87,1340,4252,14484,629,507,-163
448.88,1092,4172,13872,-274,72,-5
448.89,1184,4068,13796,-448,109,22
448.9,1100,4056,13804,-465,186,64
448.91,1084,3876,13500,-876,-122,131
448.92,1220,3804,13576,-468,-88,111
448.93,1256,3972,13932,28,-24,47
448.94,1216,4060,14076,140,-53,1
448.95,1244,4168,14048,26,11,37
448.96,1184,4156,13944,-89,108,42
448.97,1248,4124,14032,-86,116,24
448.98,1268,4104,13960,-139,125,25
448.99,1320,4168,13892,-164,198,0
449.0,1132,4104,13804,-131,214,-2
449.01,1224,4060,13656,-139,263,-11
449.02,1316,4096,13684,-21,238,-7
449.03,1296,3964,13700,71,184,-12
449.04,1200,4024,13940,14,185,12
449.05,1220,4008,13908,-43,190,-16
449.06,1212,4132,14072,-203,240,-30
449.07,1212,3980,14032,-332,278,-43
449.08,1208,4060,13780,-473,231,13
449.09,1216,4088,13964,-552,203,16
449.1,1308,3948,13944,-543,181,29
449.11,1284,4000,13892,-605,168,51
449.12,1196,4020,13852,-645,227,50
449.13,1308,3936,13804,-638,209,33
449.14,1168,3864,13900,-564,218,28
449.15,1236,4048,13812,-562,294,8
449.16,1176,4080,13796,-607,267,24
449.17,1156,4000,13928,-540,236,21
449.18,1208,4024,14028,-599,132,17
449.19,1284,3996,14196,-458,447,-49
449.2,1236,4092,13748,-863,387,66
449.21,1212,3940,13632,-1582,160,127
449.22,1304,3768,13788,-1166,238,76
449.23,1168,3832,14080,-661,239,-14
449.24,1276,3920,13932,-913,151,23
449.25,1312,3796,13948,-1160,138,68
449.26,1344,3824,13924,-1265,104,110
449.27,1232,3836,14068,-1248,34,113
449.28,1208,3792,14112,-1329,27,131
449.29,1276,3760,14024,-1420,45,82
449.3,1256,3672,14020,-1413,41,138
449.31,1352,3692,13988,-1389,76,118
449.32,1092,3692,14108,-1447,126,102
449.33,1260,3676,13916,-1576,143,116
449.34,1144,3492,13872,-1666,168,137
449.35,1240,3472,13888,-1635,193,106
449.36,1304,3468,14016,-1614,133,137
449.37,1204,3472,13868,-1722,132,122
449.38,1252,3480,13940,-1685,85,137
449.39,1264,3376,14160,-1597,106,104
449.4,1160,3356,14000,-1641,87,116
449.41,1148,3304,14032,-1699,100,111
449.42,1172,3308,14020,-1558,63,145
449.43,1328,3336,14068,-1548,77,115
449.44,1388,3316,14092,-1566,135,101
449.45,1240,3268,14016,-1573,118,123
449.46,1244,3248,14044,-1550,19,161
449.47,1332,3116,14140,-1524,114,91
449.48,1320,3196,14084,-1506,101,111
449.49,1304,2952,14120,-1520,82,89
449.5,1340,3104,14244,-1486,88,103
449.51,1380,3032,14164,-1505,83,80
449.52,1280,2984,14256,-1482,86,52
449.53,1216,2904,14072,-1584,95,70
449.54,1440,2880,14076,-1682,149,55
449.55,1364,2828,14144,-1665,82,67
449.56,1276,2792,14288,-1604,60,47
449.57,1412,2852,14044,-1505,53,37
449.58,1372,2796,14228,-1470,80,41
449.59,1348,2708,14116,-1494,73,48
449.6,1372,2812,14252,-1411,84,4
449.61,1428,2664,14128,-1341,44,24
449.62,1376,2756,14168,-1336,107,26
449.63,1420,2572,14144,-1308,137,6
449.64,1324,2636,14084,-1301,80,26
449.65,1316,2584,14132,-1268,47,6
449.66,1332,2640,14344,-1169,74,35
449.67,1404,2560,14196,-1234,55,18
449.68,1372,2440,14148,-1330,43,48
449.69,1416,2452,14188,-1307,105,4
449.7,1364,2472,14184,-1258,78,-12
449.71,1448,2404,14132,-1241,84,4
449.72,1432,2516,14180,-1165,96,-6
