357.27,1440,1552,14488,-845,61,-30
357.28,1564,1520,14352,-586,43,-38
357.29,1568,1536,14436,-514,78,-59
357.3,1432,1616,14276,-719,72,-55
357.31,1464,1460,14004,-809,-25,9
357.32,1484,1372,14220,-585,-79,36
357.33,1508,1504,14456,-407,60,-10
357.34,1520,1532,14508,-493,259,-43
357.35,1496,1488,13752,-1093,221,-3
357.36,1704,1312,14628,-1045,-39,59
357.37,1792,1344,14728,337,211,-89
357.38,1460,1632,13832,-156,-273,-3
357.39,1624,1244,14264,-383,-5,0
357.4,1528,1380,14444,342,133,-8
357.41,1504,1488,13680,-682,-135,82
357.42,1660,1208,13776,-303,92,113
357.43,1616,1464,14492,733,340,21
357.44,1612,1608,14756,875,418,-38
357.45,1488,1644,14476,794,398,-43
357.46,1368,1748,14228,462,491,3
357.47,1416,1680,14188,325,510,1
357.48,1416,1748,14300,255,348,21
357.49,1480,1592,14224,245,339,26
357.5,1596,1488,14184,307,360,25
357.51,1620,1496,14236,369,338,16
357.52,1516,1556,13852,416,292,32
357.53,1548,1580,14100,473,222,31
357.54,1488,1544,14192,678,151,27
357.55,1536,1480,14380,879,134,9
357.56,1600,1628,14416,908,254,-21
357.57,1568,1612,14368,830,304,-11
357.58,1532,1596,14292,809,314,-7
357.59,1524,1660,14292,806,351,-35
357.6,1544,1780,14204,818,331,-33
357.61,1616,1620,14236,823,292,9
357.62,1568,1712,14196,853,257,28
357.63,1488,1748,14268,976,277,-11
357.64,1556,1764,14160,988,292,32
357.65,1540,1912,14208,1092,357,-33
357.66,1488,1940,14308,1218,330,2
357.67,1444,1892,14260,1291,355,0
357.68,1572,1984,14240,1396,347,2
357.69,1616,2116,14220,1394,282,-31
357.7,1460,2064,14548,1487,595,-29
357.71,1356,2104,14060,1231,368,-19
357.72,1508,2088,13900,896,344,12
357.73,1584,2032,14104,1169,363,-17
357.74,1352,2092,14028,1276,78,-14
357.75,1496,2008,14164,1516,160,-37
357.76,1508,2152,14168,1653,320,-77
357.77,1484,2272,14348,1569,317,-47
357.78,1480,2296,14220,1435,307,-43
357.79,1368,2344,14272,1286,284,-65
357.8,1512,2388,14260,1266,327,-101
357.81,1544,2468,14272,1409,280,-119
357.82,1384,2464,14276,1428,323,-104
357.83,1488,2524,14224,1325,362,-105
357.84,1560,2448,14240,1177,337,-92
357.85,1540,2416,14188,1139,370,-55
357.86,1504,2400,14004,1146,300,-73
357.87,1412,2516,13964,1167,306,-60
357.88,1504,2580,14068,1154,230,-43
357.89,1496,2540,14092,1148,274,-83
357.9,1524,2428,14172,1313,302,-76
357.91,1388,2636,14204,1461,336,-114
357.92,1420,2632,14208,1436,303,-96
357.93,1344,2820,14072,1264,355,-109
357.94,1488,2744,14220,1096,381,-125
357.95,1476,2744,14080,1013,428,-99
357.96,1352,2868,14180,897,401,-85
357.97,1368,2964,14148,920,353,-87
357.98,1432,3020,14188,948,314,-91
357.99,1356,2868,14128,942,290,-98
358.0,1492,2840,14032,1024,327,-101
358.01,1332,3016,14032,1123,287,-95
358.02,1452,2912,14056,1174,318,-65
358.03,1412,3020,14108,1206,292,-61
358.04,1460,3092,14116,1212,262,-56
358.05,1492,3036,14060,1180,261,-87
358.06,1464,3108,14040,1281,303,-105
358.07,1344,3076,14096,1334,307,-112
358.08,1512,3212,14024,1374,298,-143
358.09,1472,3128,14016,1320,304,-130
358.1,1432,3132,14152,1274,295,-149
358.11,1412,3300,14064,1233,345,-128
358.12,1368,3284,13988,1109,302,-136
358.13,1416,3300,13976,1061,255,-120
358.14,1424,3280,13976,1049,344,-113
358.15,1484,3344,14032,1027,286,-101
358.16,1388,3276,13972,1029,220,-97
358.17,1264,3376,13940,879,201,-69
358.18,1244,3392,14036,838,203,-118
358.19,1388,3356,14016,849,96,-86
358.2,1300,3456,14004,858,71,-109
358.21,1404,3472,14036,955,37,-108
358.22,1432,3580,13996,884,98,-87
358.23,1496,3604,14100,754,219,-94
358.24,1396,3648,13988,678,211,-74
358.25,1292,3584,14016,728,399,-140
358.26,1344,3588,14076,767,164,-103
358.27,1508,3732,14112,632,322,-106
358.28,1428,3620,13972,504,379,-86
358.29,1384,3644,13996,350,275,-88
358.3,1324,3576,13764,334,241,-43
358.31,1360,3628,14220,425,357,-67
358.32,1408,3660,14124,600,464,-91
358.33,1452,3772,14068,506,408,-113
358.34,1336,3772,13900,281,436,-110
358.35,1264,3788,13784,122,388,-83
358.36,1368,3816,13948,173,277,-72
358.37,1404,3684,14216,322,253,-69
358.38,1268,3852,14004,100,333,-29
358.39,1348,3792,13448,-569,404,40
358.4,1324,3552,13904,-252,160,-3
358.41,1404,3732,14228,888,561,-164
358.42,1400,3908,13896,448,287,-127
358.43,1368,3772,14004,73,188,-68
358.44,1300,3840,14052,294,381,-82
358.45,1020,3712,13432,-519,170,54
358.46,1248,3528,13260,-684,-2,100
358.47,1500,3504,13724,-8,-14,20
358.48,1428,3648,14176,268,-87,7
358.49,1316,3748,14072,289,-70,24
358.5,1276,3796,14124,88,-16,13
358.51,1296,3728,13980,-28,93,19
358.52,1200,3768,14024,72,158,-4
358.53,1388,3796,13844,142,186,-23
358.54,1432,3832,13876,288,292,-43
358.55,1312,3848,13776,265,281,-87
358.56,1336,3784,13816,263,336,-89
358.57,1392,3840,13716,340,208,-67
358.58,1412,3688,13864,427,157,-58
358.59,1432,3888,13952,412,164,-35
358.6,1476,3856,13940,301,233,-35
358.61,1276,3928,14012,107,278,-32
358.62,1428,3788,14056,54,299,-47
358.63,1340,3796,13844,37,254,-28
358.64,1408,3884,13828,-39,264,-11
358.65,1192,3892,13972,-85,283,-22
358.66,1368,3896,13928,-111,263,-18
358.67,1308,3836,13808,-129,253,-38
358.68,1308,3900,13836,-128,247,-42
358.69,1400,3936,13948,-131,246,-21
358.7,1412,3956,13924,-122,246,-30
358.71,1288,3888,13980,-109,290,-19
358.72,1284,3896,13816,-121,286,-52
358.73,1380,3868,13936,-41,287,-63
358.74,1284,3972,13884,-136,229,-61
358.75,1360,3832,14220,-48,244,-79
358.76,1336,3912,13964,-202,550,-43
358.77,1292,3820,13572,-791,117,50
358.78,1400,3808,13808,-365,372,-3
358.79,1332,3932,14084,-107,256,-22
358.8,1316,3876,13944,-425,285,-29
358.81,1312,3936,13712,-581,267,-18
358.82,1356,3896,13876,-861,239,41
358.83,1224,3796,13900,-958,166,40
358.84,1268,3820,14000,-943,57,89
358.85,1388,3764,13976,-1024,66,74
358.86,1436,3868,13960,-1014,132,80
358.87,1376,3780,13988,-972,123,82
358.88,1444,3816,14104,-981,113,61
358.89,1368,3768,14020,-1069,230,52
358.9,1320,3708,14008,-1111,236,22
358.91,1332,3672,13880,-1203,242,63
358.92,1352,3608,13884,-1232,188,68
358.93,1380,3580,13920,-1244,160,69
358.94,1440,3564,13912,-1430,137,100
358.95,1460,3540,14004,-1472,117,95
358.96,1356,3608,14028,-1342,160,87
358.97,1272,3504,14032,-1491,136,87
358.98,1232,3468,13956,-1570,144,97
358.99,1212,3488,13872,-1687,115,122
359.0,1400,3448,13980,-1766,127,111
359.01,1388,3364,13980,-1818,169,144
359.02,1444,3340,14060,-1821,107,149
359.03,1328,3328,13896,-1666,73,152
359.04,1384,3256,14044,-1667,101,138
359.05,1364,3232,14024,-1635,124,130
359.06,1196,3284,13944,-1667,137,129
359.07,1328,3244,14108,-1650,111,153
359.08,1348,3104,13992,-1718,98,137
359.09,1388,3096,14040,-1732,102,141
359.1,1408,3032,13956,-1661,193,98
359.11,1340,3064,14208,-1654,141,99
359.12,1336,3016,14128,-1598,134,109
359.13,1312,2940,14224,-1709,184,102
359.14,1364,2980,14220,-1729,147,112
359.15,1432,2896,13972,-1708,125,111
359.16,1476,2904,14156,-1843,70,139
359.17,1472,2792,14132,-1877,49,129
359.18,1388,2784,14156,-1818,80,132
359.19,1384,2736,14124,-1868,70,67
359.2,1352,2728,14212,-1826,108,96
359.21,1404,2624,14112,-1871,50,74
359.22,1432,2580,14004,-1731,24,121
359.23,1440,2660,14200,-1712,63,54
359.24,1448,2504,14224,-1631,35,52
359.25,1364,2648,14188,-1606,44,76
359.26,1504,2512,14128,-1626,23,41
359.27,1444,2484,14292,-1597,127,19
359.28,1416,2484,14252,-1612,129,16
359.29,1348,2488,14248,-1700,129,11
359.3,1356,2276,14068,-1821,23,24
359.31,1444,2252,14004,-1743,-58,37
359.32,1536,2396,14092,-1615,-30,40
359.33,1408,2268,14284,-1575,51,12
359.34,1364,2256,14348,-1640,97,31
359.35,1316,2236,14304,-1633,63,7
359.36,1436,2188,14212,-1706,37,19
359.37,1424,2156,13988,-1792,59,-2
359.38,1448,2156,13960,-1819,-46,10
359.39,1500,1956,14044,-1804,-134,-9
359.4,1428,1952,14088,-1787,-112,-9
359.41,1468,1924,14296,-1403,88,-55
359.42,1476,2076,14508,-1159,126,-79
359.43,1528,2024,14436,-1295,97,-108
359.44,1356,1948,14092,-1538,23,-47
359.45,1412,1716,14128,-1694,-173,-22
359.46,1436,1792,14152,-1429,-233,39
359.47,1636,1792,14456,-1129,-133,5
359.48,1540,1952,14372,-1312,251,-28
359.49,1508,1908,13704,-2062,265,-68
359.5,1608,1628,14236,-2104,-155,13
359.51,1648,1556,14800,-847,69,-113
359.52,1352,1800,13732,-1129,-497,-22
359.53,1596,1460,14192,-1578,-270,13
359.54,1560,1472,14224,-890,59,-30
359.55,1424,1568,13860,-1454,-304,47
359.56,1664,1404,14036,-1410,-101,59
359.57,1588,1452,14292,-850,65,20
359.58,1620,1628,14880,-414,161,-38
359.59,1548,1720,14716,-635,219,-95
359.6,1572,1756,14376,-1134,212,-49
359.61,1408,1620,14392,-1487,190,-44
359.62,1448,1552,14224,-1635,52,-13
359.63,1552,1556,14344,-1745,-2,-27
359.64,1520,1392,14140,-1769,1,-20
359.65,1528,1348,13968,-1633,-161,-17
359.66,1536,1192,14036,-1423,-123,-30
359.67,1532,1092,14084,-1136,-204,68
359.68,1532,1304,14236,-886,-106,42
359.69,1776,1240,14308,-815,-162,29
359.7,1568,1188,14560,-584,32,17
359.71,1704,1232,14444,-524,-9,-6
359.72,1656,1236,14292,-729,41,42
359.73,1692,1244,14088,-799,-11,35
359.74,1688,1160,14148,-799,-54,11
359.75,1712,1188,14220,-708,-49,-5
359.76,1704,1080,14304,-538,23,-3
359.77,1596,1128,14180,-530,33,9
359.78,1756,1112,14232,-514,103,-18
359.79,1692,1076,14188,-291,104,-3
359.8,1680,1172,14160,-86,168,11
359.81,1640,1140,14112,61,240,23
359.82,1624,1180,14164,281,296,1
359.83,1560,1236,14236,492,305,-11
359.84,1652,1088,14260,567,340,-6
359.85,1704,1076,14268,983,483,-22
359.86,1608,1252,13964,573,372,28
359.87,1596,1220,14016,459,385,22
359.88,1592,1208,14112,985,324,-5
359.89,1604,1236,14272,978,193,8
359.9,1560,1244,14200,1301,300,-22
359.91,1604,1328,14324,1543,299,-8
359.92,1580,1420,14332,1385,332,-12
359.93,1636,1352,14308,1245,292,-17
359.94,1660,1516,14340,1208,342,-26
359.95,1600,1456,14400,1229,364,-30
359.96,1656,1476,14448,1364,438,-50
359.97,1636,1468,14428,1437,529,-71
359.98,1596,1568,14368,1322,490,-78
359.99,1588,1588,14292,1270,481,-80
360.0,1672,1512,14312,1203,371,-67
360.01,1624,1492,14272,1427,317,-26
360.02,1688,1632,14280,1451,289,-17
360.03,1736,1684,14228,1371,303,-23
360.04,1620,1672,14252,1349,406,-29
360.05,1596,1724,14384,1399,437,-72
360.06,1564,1772,14248,1493,350,-27
360.07,1556,1808,14332,1379,316,-26
360.08,1616,1880,14200,1252,328,-24
360.09,1724,2000,14148,1164,390,-39
360.1,1620,1880,14244,1164,393,-13
360.11,1728,1944,14136,1234,393,-12
360.12,1492,2152,14228,1308,354,-28
360.13,1572,2016,14264,1361,386,-64
360.14,1448,2100,14220,1457,323,-1
360.15,1500,2088,14212,1621,321,-30
360.16,1532,2148,14284,1747,329,-11
360.17,1732,2268,14292,1737,401,-63
360.18,1484,2232,14292,1699,404,-68
360.19,1588,2340,14184,1608,412,-60
360.2,1504,2372,14252,1404,437,-78
360.21,1612,2372,14176,1121,409,-71
360.22,1444,2376,14124,1213,394,-61
360.23,1616,2348,14156,1420,343,-68
360.24,1544,2492,14140,1434,331,-69
360.25,1408,2428,14184,1388,392,-98
360.26,1404,2476,14112,1474,404,-107
360.27,1536,2516,14136,1408,352,-117
360.28,1552,2568,14136,1431,354,-119
360.29,1540,2648,14196,1375,458,-140
360.3,1524,2632,14276,1459,477,-128
360.31,1428,2648,14184,1421,450,-138
360.32,1448,2704,14052,1296,474,-143
360.33,1452,2708,14136,1250,442,-152
360.34,1444,2716,13992,1182,372,-169
360.35,1436,2700,13900,966,287,-127
360.36,1520,2644,13864,961,166,-90
360.37,1436,2776,14076,1247,280,-137
360.38,1484,2960,14352,1439,321,-110
360.39,1476,2960,14248,1539,398,-147
360.4,1476,3100,14264,1350,442,-98
360.41,1360,3116,13952,952,425,-111
360.42,1408,3020,14028,768,390,-75
360.43,1408,2940,14248,896,239,-96
360.44,1472,3072,14216,985,326,-88
360.45,1348,3176,13928,280,452,-26
360.46,1476,3004,13968,331,211,-47
360.47,1584,3000,14580,1558,449,-171
360.48,1340,3284,14028,1549,200,-147
360.49,1472,3264,14156,781,156,-118
360.5,1408,3180,14148,1045,523,-109
360.51,1352,3240,13592,-7,61,49
360.52,1396,3040,13492,-293,63,65
360.53,1532,3084,13652,525,64,63
360.54,1504,3164,14152,1135,-148,-28
360.55,1516,3240,14396,1332,-50,-68
360.56,1416,3476,13848,866,274,-113
360.57,1500,3424,13908,974,282,-114
360.58,1392,3436,13980,1105,147,-74
360.59,1472,3456,13936,1033,130,-68
360.6,1532,3508,14076,937,185,-65
360.61,1452,3352,13996,875,233,-51
360.62,1336,3620,14012,529,248,-81
360.63,1508,3516,13956,462,245,-50
360.64,1456,3556,13908,500,271,-72
360.65,1444,3668,13960,527,256,-79
360.66,1408,3684,14032,510,226,-50
360.67,1360,3760,14048,510,296,-102
360.68,1448,3792,14004,515,288,-52
360.69,1424,3796,13776,666,274,-87
360.7,1400,3712,14156,629,291,-103
360.71,1216,3784,13968,759,483,-98
360.72,1300,3916,13540,10,159,2
360.73,1468,3768,13920,-16,337,-48
360.74,1352,3748,14124,600,287,-118
360.75,1376,3824,13936,534,178,-65
360.76,1324,3932,13756,140,269,-49
360.77,1384,3816,13860,19,237,-7
360.78,1324,3892,13992,74,153,-19
360.79,1396,3780,13896,106,89,5
360.8,1388,3892,13816,106,122,-39
360.81,1472,3988,13936,217,159,-39
360.82,1280,3908,13956,407,121,-70
360.83,1508,4104,13960,137,179,-35
360.84,1476,3904,13952,-131,378,-53
360.85,1284,3868,13912,-112,291,-48
360.86,1388,3772,13968,-18,213,-16
360.87,1312,3900,14008,-181,230,-42
360.88,1392,3876,13816,-328,284,-27
360.89,1376,3732,13960,-407,224,-35
360.9,1444,3908,14016,-484,222,-29
360.91,1404,3860,13976,-615,265,12
360.92,1316,3960,13840,-748,251,-15
360.93,1404,3900,13892,-910,181,34
360.94,1436,3884,13980,-1058,175,55
360.95,1384,3792,14064,-1135,193,38
360.96,1432,3860,13872,-1184,236,73
360.97,1340,3816,13980,-1342,190,76
360.98,1304,3752,13952,-1475,214,123
360.99,1284,3764,13812,-1482,95,114
361.0,1452,3628,13988,-1320,50,110
361.01,1368,3580,14048,-1193,53,104
361.02,1436,3720,14128,-1488,137,113
361.03,1484,3556,14012,-1548,225,106
361.04,1356,3540,13888,-1468,120,124
361.05,1344,3500,13916,-1481,100,122
361.06,1456,3504,14008,-1388,122,113
361.07,1256,3528,13844,-1381,112,121
361.08,1484,3456,14080,-1444,155,71
361.09,1488,3328,13944,-1315,178,96
361.1,1408,3368,14072,-1267,138,91
361.11,1364,3324,13956,-1244,167,97
361.12,1424,3384,14000,-1214,142,102
361.13,1360,3252,14140,-1241,134,74
361.14,1424,3356,14044,-1311,144,104
361.15,1352,3276,13884,-1355,165,70
361.16,1432,3256,14080,-1288,118,80
361.17,1464,3256,14096,-1287,98,92
361.18,1372,3208,14120,-1418,127,102
361.19,1452,3120,14040,-1386,152,87
361.2,1420,3136,14108,-1326,144,77
361.21,1420,3088,14216,-1318,168,78
361.22,1400,3120,14028,-1461,144,82
361.23,1444,3096,14060,-1587,141,101
361.24,1544,3016,14112,-1470,149,100
361.25,1436,2984,14104,-1399,154,97
361.26,1376,2932,14160,-1397,130,91
361.27,1488,3012,14196,-1361,150,89
361.28,1512,2836,14008,-1369,109,104
361.29,1384,2968,14040,-1351,154,119
361.3,1364,2772,14196,-1301,143,111
361.31,1348,2840,14076,-1322,155,71
361.32,1512,2896,14080,-1377,192,82
361.33,1464,2836,14128,-1478,175,103
361.34,1508,2732,13980,-1524,141,62
361.35,1420,2680,13936,-1463,144,75
361.36,1416,2664,14248,-1431,159,76
361.37,1376,2748,14240,-1457,122,105
361.38,1392,2608,14152,-1481,126,42
361.39,1460,2588,14176,-1433,133,56
361.4,1504,2620,14220,-1432,147,80
361.41,1452,2560,14052,-1458,152,44
361.42,1540,2572,14004,-1631,41,108
361.43,1496,2464,14068,-1723,8,65
361.44,1428,2432,14252,-1444,126,21
361.45,1372,2356,14352,-1049,188,20
361.46,1420,2472,14400,-1048,186,2
361.47,1380,2384,14188,-1281,172,6
361.48,1384,2304,13940,-1511,-8,55
361.49,1456,2228,14056,-1327,-61,79
361.5,1528,2212,14408,-994,-28,73
361.51,1588,2388,14340,-1158,326,31
361.52,1380,2476,13652,-1957,304,42
361.53,1672,2076,14180,-1824,67,48
361.54,1568,2036,14816,-476,277,-109
361.55,1392,2332,13896,-1027,-433,31
361.56,1596,2080,14016,-1561,-207,50
361.57,1588,2020,14280,-759,121,7
361.58,1332,2160,13776,-1552,-361,107
361.59,1612,1780,13828,-1688,-22,110
361.6,1596,1768,14492,-641,8,11
361.61,1652,2048,14568,-200,51,-65
361.62,1440,2216,14508,-703,185,-43
361.63,1528,2224,14400,-1158,264,-26
361.64,1432,2136,14408,-1316,308,4
361.65,1512,2060,14232,-1402,250,6
361.66,1552,1964,14252,-1437,208,-28
361.67,1480,1888,14036,-1438,155,-9
361.68,1476,1772,14096,-1432,160,-32
361.69,1600,1772,13920,-1214,71,-14
361.7,1500,1796,14104,-884,-37,-13
361.71,1608,1764,14184,-618,-46,31
361.72,1628,1764,14440,-518,48,1
361.73,1612,1680,14476,-495,20,2
361.74,1628,1836,14348,-502,135,-17
361.75,1576,1720,14340,-577,168,-30
361.76,1544,1712,14304,-669,178,-12
361.77,1624,1724,14236,-838,127,-11
361.78,1624,1776,14164,-946,69,-56
361.79,1596,1660,14116,-923,50,-49
361.8,1700,1596,14244,-897,37,-49
361.81,1648,1708,14216,-842,91,-44
361.82,1544,1696,14100,-749,114,-41
361.83,1524,1604,14148,-704,154,-14
361.84,1556,1564,14296,-623,147,-28
361.85,1556,1664,14124,-553,161,-21
361.86,1528,1600,14464,-417,146,-48
361.87,1644,1660,14328,-493,76,-8
361.88,1576,1576,14252,-219,292,-1
361.89,1588,1624,14108,-453,80,8
361.9,1652,1544,14132,-754,98,-9
361.91,1524,1516,14140,-436,-13,15
361.92,1660,1500,14412,-170,18,-2
361.93,1652,1496,14196,-54,71,-22
361.94,1616,1596,14184,-99,124,-25
361.95,1468,1496,14216,-66,71,25
361.96,1604,1592,14156,-78,47,6
361.97,1620,1520,14288,-90,136,-12
361.98,1576,1588,14132,108,152,-20
361.99,1572,1572,14232,321,179,-10
362.0,1568,1520,14176,432,231,-39
362.01,1576,1588,14292,493,323,-55
362.02,1516,1608,14264,339,369,-43
362.03,1484,1632,14368,240,342,-10
362.04,1448,1620,14268,363,263,-28
362.05,1624,1656,14332,417,255,-36
362.06,1524,1704,14204,365,259,-41
362.07,1604,1660,14160,436,261,-50
362.08,1516,1708,14144,552,196,-30
362.09,1572,1652,14332,532,222,-24
362.1,1564,1780,14224,542,241,-40
362.11,1552,1828,14140,426,264,0
362.12,1604,1728,14052,323,320,19
362.13,1660,1748,14236,390,344,-13
362.14,1648,1748,14276,456,321,10
362.15,1696,1716,14284,468,263,-7
362.16,1664,1828,14136,504,217,-1
362.17,1488,1788,14232,506,212,37
362.18,1508,1776,14356,607,191,9
362.19,1600,1892,14344,640,196,15
362.2,1704,1880,14192,674,217,6
362.21,1680,1876,14128,743,259,-22
362.22,1584,1856,14260,785,325,-23
362.23,1616,1912,14108,804,297,-35
362.24,1524,1924,14160,848,328,-9
362.25,1636,2084,14140,885,313,-37
362.26,1528,1976,14224,925,338,-69
362.27,1564,2044,14092,977,269,-15
362.28,1652,2028,14220,977,350,-14
362.29,1540,2004,14272,1046,337,-39
362.3,1596,2112,14212,1049,331,-44
362.31,1596,2088,14196,1020,355,-61
362.32,1616,2136,14204,1093,352,-69
362.33,1476,2244,14124,1097,319,-70
362.34,1636,2264,14148,1136,312,-71
362.35,1432,2256,14320,1182,381,-72
362.36,1584,2284,14220,1147,301,-52
362.37,1536,2360,14160,1149,317,-54
362.38,1632,2380,14256,1165,312,-71
362.39,1676,2324,14204,1146,326,-90
362.4,1696,2432,14140,1134,440,-109
362.41,1628,2520,14268,1031,455,-95
362.42,1584,2456,14140,850,483,-96
362.43,1476,2424,14148,869,440,-124
362.44,1572,2580,14140,907,368,-83
362.45,1508,2608,14072,806,405,-82
362.46,1516,2564,13968,636,291,-63
362.47,1556,2464,14040,670,209,-58
362.48,1520,2440,14332,992,312,-51
362.49,1584,2684,14328,1401,320,-98
362.5,1528,2720,14292,1361,411,-136
362.51,1532,2760,14188,1075,434,-120
362.52,1332,2708,14080,735,294,-73
362.53,1552,2644,14132,762,234,-70
362.54,1452,2692,14248,991,200,-67
362.55,1436,2788,14288,890,403,-6
362.56,1380,2884,13744,31,389,21
362.57,1640,2552,14440,734,421,-88
362.58,1492,2884,14512,1866,409,-197
362.59,1360,2964,13896,647,95,-71
362.6,1508,2844,14196,588,393,-104
362.61,1456,2832,13916,609,255,-60
362.62,1372,2872,13376,-364,-100,81
362.63,1484,2652,13784,256,136,21
362.64,1632,2756,14164,1138,18,-62
362.65,1556,2940,14420,1339,-1,-110
362.66,1456,3044,14208,1186,98,-113
362.67,1368,3132,14316,869,211,-42
362.68,1336,3136,14220,780,278,-48
362.69,1464,3016,14044,746,323,-73
362.7,1456,3108,14108,749,332,-78
362.71,1480,3052,13864,773,395,-99
362.72,1504,3032,13908,872,318,-120
362.73,1424,3096,13968,964,208,-107
362.74,1528,3032,13908,1031,148,-80
362.75,1568,3092,14124,1057,131,-109
362.76,1556,3176,14056,1092,92,-42
362.77,1520,3196,14112,1000,169,-98
362.78,1468,3300,14184,941,228,-76
362.79,1504,3204,14044,844,285,-107
362.8,1404,3320,14012,739,236,-77
362.81,1568,3284,13968,686,196,-51
362.82,1332,3360,14084,701,240,-59
362.83,1508,3400,14016,592,239,-60
362.84,1372,3316,13984,655,198,-100
362.85,1520,3364,13820,718,148,-73
362.86,1472,3388,13904,739,211,-66
362.87,1480,3360,14060,800,213,-36
362.88,1376,3424,13864,846,228,-49
362.89,1404,3604,13928,957,241,-94
362.9,1496,3496,13992,861,117,-74
362.91,1548,3592,14320,1046,449,-102
362.92,1408,3572,13844,844,423,-81
362.93,1328,3560,13536,166,302,-68
362.94,1460,3424,13832,409,290,-105
362.95,1436,3516,14228,950,182,-115
362.96,1512,3588,14024,771,139,-97
362.97,1380,3648,13912,416,224,-87
362.98,1372,3576,13900,365,140,-43
362.99,1324,3620,14012,444,83,-21
363.0,1560,3688,13968,472,71,-63
363.01,1556,3696,14044,522,200,-98
363.02,1484,3728,13868,606,150,-72
363.03,1508,3736,14008,658,175,-86
363.04,1460,3756,13908,514,247,-77
363.05,1432,3776,13840,405,296,-84
363.06,1512,3696,13820,357,289,-68
363.07,1516,3756,13972,377,243,-87
363.08,1472,3732,13852,314,219,-53
363.09,1356,3704,13808,240,206,-44
363.1,1420,3780,13832,351,218,-62
363.11,1556,3748,13840,349,239,-67
363.12,1532,3852,13900,356,228,-60
363.13,1388,3764,13892,310,231,-55
363.14,1460,3760,14060,234,200,-41
363.15,1460,3772,13824,191,260,-54
363.16,1488,3796,13904,185,266,-55
363.17,1512,3816,13996,173,266,-55
363.18,1448,3928,13868,198,257,-62
363.19,1504,3976,13936,132,248,-43
363.2,1440,3828,13972,151,232,-11
363.21,1356,3928,14016,160,257,-42
363.22,1452,3900,14032,210,234,-26
363.23,1540,3968,13988,165,255,-66
363.24,1460,3900,13816,95,238,-63
363.25,1420,3932,13780,18,250,-2
363.26,1516,3952,13808,-38,234,-38
363.27,1416,3956,13816,-44,242,-21
363.28,1412,3896,13856,-79,249,-28
363.29,1484,3876,13856,-107,282,-62
363.3,1472,3816,13964,-135,265,-37
363.31,1484,3892,13920,-226,249,-57
363.32,1464,3912,14000,-206,282,-54
363.33,1496,3948,13936,-368,405,-48
363.34,1360,3920,14044,-579,357,-40
363.35,1376,3972,13880,-712,338,-26
363.36,1492,3900,14008,-895,388,-8
363.37,1408,3916,13960,-1103,330,19
363.38,1448,3984,14104,-1362,330,15
363.39,1344,3904,14040,-1610,370,53
363.4,1392,3784,14068,-1791,339,41
363.41,1336,3796,13864,-2157,311,86
363.42,1368,3616,13956,-2298,290,102
363.43,1300,3540,14004,-2146,192,105
363.44,1388,3520,13856,-1942,150,94
363.45,1524,3536,13732,-1850,96,126
363.46,1424,3480,13876,-1636,147,107
363.47,1520,3448,13860,-1411,93,127
363.48,1568,3472,13864,-1331,141,126
363.49,1428,3416,14084,-1279,180,123
363.5,1432,3392,13980,-1176,165,110
363.51,1412,3460,13988,-1285,209,122
363.52,1420,3376,14112,-1351,163,98
363.53,1376,3272,14052,-1347,202,90
363.54,1468,3388,13992,-1376,176,119
363.55,1400,3356,13912,-1460,185,128
363.56,1504,3380,14176,-1517,241,80
363.57,1512,3356,13936,-1662,170,101
363.58,1464,3152,13896,-1858,74,135
363.59,1272,3036,13784,-1799,81,138
363.6,1540,3032,14076,-1430,195,110
363.61,1436,3084,14160,-1230,179,76
363.62,1404,3112,14156,-1282,243,32
363.63,1420,3164,14064,-1387,182,61
363.64,1292,3028,13924,-1633,102,120
363.65,1484,3000,13980,-1643,-38,140
363.66,1388,2832,14232,-1356,-16,149
363.67,1432,2896,14240,-1363,255,142
363.68,1384,2956,13708,-2250,308,158
363.69,1728,2668,14228,-1985,101,144
363.7,1608,2752,14544,-671,230,-12
363.71,1268,2852,13844,-1431,-309,129
363.72,1548,2620,14108,-1671,15,129
363.73,1360,2604,14068,-1385,9,144
363.74,1320,2612,13504,-2148,-371,249
363.75,1504,2332,13708,-1747,-107,173
363.76,1596,2400,14512,-676,-45,87
363.77,1496,2676,14576,-560,9,11
363.78,1476,2784,14468,-1037,73,74
363.79,1428,2780,14396,-1394,143,81
363.8,1476,2692,14276,-1526,181,97
363.81,1556,2700,14232,-1606,178,105
363.82,1416,2684,13972,-1633,220,86
363.83,1560,2564,14180,-1644,218,83
363.84,1472,2344,14040,-1662,204,44
363.85,1428,2312,13832,-1615,11,80
363.86,1624,2320,14024,-1291,-32,70
363.87,1648,2204,14268,-1047,-21,46
363.88,1616,2272,14232,-936,15,27
363.89,1612,2280,14360,-883,53,9
363.9,1592,2304,14368,-997,158,28
363.91,1588,2200,14112,-1132,152,9
363.92,1524,2188,14220,-1171,120,-16
363.93,1580,2148,14220,-1215,111,1
363.94,1636,2204,14252,-1374,123,7
363.95,1464,2072,14068,-1440,97,-25
363.96,1572,1988,14120,-1355,47,28
363.97,1572,2116,14100,-1315,78,-23
363.98,1628,2076,14056,-1191,99,-23
363.99,1604,2104,14204,-1145,120,-11
364.0,1456,2020,14272,-1055,112,-36
364.01,1364,1980,14132,-887,90,-22
364.02,1476,2056,14316,-842,141,-46
364.03,1500,2008,14268,-975,108,-27
364.04,1600,1876,14340,-747,314,-69
364.05,1488,1920,14128,-1010,127,-31
364.06,1612,1840,13816,-1428,-32,5
364.07,1640,1848,14436,-917,-55,-7
364.08,1636,1940,14444,-730,-45,-36
364.09,1624,2016,14220,-1072,-2,-73
364.1,1500,1984,14216,-1335,4,-18
364.11,1600,1836,14276,-1271,-131,-3
364.12,1600,1848,14228,-1260,-88,-42
364.13,1744,1712,14384,-1228,53,-42
364.14,1688,1696,14296,-1040,59,-73
364.15,1628,1740,14136,-970,128,-78
364.16,1640,1688,14280,-1024,139,-43
364.17,1732,1672,14224,-1034,91,-59
364.18,1772,1672,14168,-1000,94,-40
364.19,1624,1580,14344,-1017,133,-43
364.2,1520,1608,14288,-843,65,-46
364.21,1636,1468,14188,-804,64,-54
364.22,1564,1568,14148,-761,72,-72
364.23,1728,1464,14156,-574,8,-13
364.24,1516,1480,14248,-450,62,-14
364.25,1636,1536,14220,-401,106,-13
364.26,1724,1516,14064,-400,112,-5
364.27,1596,1548,14184,-376,113,21
364.28,1636,1512,14120,-300,186,10
364.29,1660,1528,14188,-218,206,29
364.3,1632,1472,14112,-86,207,-6
364.31,1640,1580,14168,39,191,-13
364.32,1576,1576,14164,141,190,17
364.33,1648,1508,14112,299,229,5
364.34,1624,1476,14188,448,248,7
364.35,1680,1548,14156,581,230,-4
364.36,1612,1572,14260,603,293,-3
364.37,1652,1640,14156,703,274,-3
364.38,1620,1520,14180,779,260,-1
364.39,1648,1644,14308,946,262,-15
364.4,1660,1752,14088,1019,330,-34
364.41,1580,1720,14368,1041,321,-22
364.42,1636,1716,14308,973,341,-43
364.43,1704,1704,14312,948,318,-5
364.44,1660,1780,14384,913,322,-10
364.45,1688,1764,14272,871,291,-45
364.46,1636,1776,14156,831,239,-41
364.47,1652,1776,14160,971,204,-4
364.48,1688,1788,14312,1079,256,-33
364.49,1604,1876,14252,1066,279,-19
364.5,1524,1840,14220,1057,274,-16
364.51,1656,1980,14264,1143,272,-35
364.52,1672,1928,14156,1192,329,-44
364.53,1572,1996,14204,1147,327,-50
364.54,1584,2020,14160,1239,340,-46
364.55,1576,2128,14204,1348,368,-58
364.56,1468,2072,14304,1189,358,-77
364.57,1676,2156,14120,1114,356,-67
364.58,1476,2184,13976,1024,198,-24
364.59,1536,2132,14132,1061,272,-54
364.6,1684,2172,14232,1378,376,-63
364.61,1560,2332,14448,1606,515,-85
364.62,1556,2304,14300,1405,452,-99
364.63,1484,2316,14216,1142,375,-67
364.64,1532,2304,14108,958,266,-26
364.65,1628,2372,14100,1028,160,-5
364.66,1616,2368,14268,1248,227,-50
364.67,1520,2488,14164,1009,504,26
364.68,1476,2544,13664,218,190,29
364.69,1776,2300,14488,1001,405,-58
364.7,1604,2508,14480,2243,352,-180
364.71,1324,2808,13944,1058,63,-36
364.72,1624,2484,14296,908,330,-68
364.73,1456,2576,13988,1096,346,-87
364.74,1492,2644,13484,-51,-51,76
364.75,1712,2380,13960,603,203,-5
364.76,1612,2528,14148,1489,122,-84
364.77,1712,2616,14584,1569,65,-160
364.78,1520,2948,14356,1290,162,-139
364.79,1544,2904,14188,977,223,-77
364.8,1452,2844,14244,921,308,-49
364.81,1436,2832,14116,821,327,-74
364.82,1520,2800,14212,938,322,-93
364.83,1512,2892,13944,1002,326,-91
364.84,1484,2748,14060,1030,325,-104
364.85,1536,2812,14008,1085,249,-86
364.86,1512,2920,13852,1242,133,-97
364.87,1596,2896,13912,1350,110,-81
364.88,1576,2908,14040,1373,155,-103
364.89,1584,2976,14180,1387,157,-86
364.9,1528,3080,14080,1275,226,-80
364.91,1488,3008,14216,1160,260,-76
364.92,1424,3108,14028,1089,286,-81
364.93,1552,3128,14148,1056,290,-105
364.94,1480,3084,13896,891,300,-102
364.95,1616,3132,13936,766,231,-107
364.96,1576,3212,14008,672,261,-100
364.97,1528,3148,14060,686,248,-84
364.98,1516,3320,14040,726,225,-46
364.99,1572,3204,14044,781,217,-84
365.0,1496,3184,14000,844,199,-72
365.01,1580,3336,14000,1002,195,-95
365.02,1456,3324,14160,1026,106,-82
365.03,1604,3324,14428,1256,465,-149
365.04,1516,3460,13868,939,364,-63
365.05,1480,3404,13820,510,353,-78
365.06,1416,3328,13748,594,180,-112
365.07,1548,3272,14020,1008,188,-142
365.08,1500,3428,14068,1163,213,-128
365.09,1496,3496,13948,766,198,-85
365.1,1532,3444,14000,565,235,-68
365.11,1480,3532,13916,640,97,-64
365.12,1472,3612,13996,642,106,-73
365.13,1564,3592,13928,657,162,-74
365.14,1376,3612,13888,699,105,-90
365.15,1452,3624,14000,771,189,-115
365.16,1540,3656,14180,821,199,-141
365.17,1600,3616,14008,593,271,-99
365.18,1604,3604,13920,502,277,-93
365.19,1560,3648,14040,560,257,-107
365.2,1464,3768,13860,607,233,-82
365.21,1472,3652,13852,441,246,-81
365.22,1512,3700,13924,417,201,-76
365.23,1580,3592,13816,527,312,-64
365.24,1460,3616,13896,582,305,-53
365.25,1528,3664,13784,473,309,-89
365.26,1480,3812,13960,430,206,-55
365.27,1508,3780,14032,368,232,-74
365.28,1496,3744,14000,343,262,-61
365.29,1544,3868,14048,385,260,-69
365.3,1496,3804,14104,361,269,-63
365.31,1496,3908,13908,331,263,-57
365.32,1452,3932,13908,286,243,-67
365.33,1552,3828,14052,351,249,-94
365.34,1468,3904,14024,320,245,-55
365.35,1484,3880,13900,270,271,-45
365.36,1436,3876,13828,211,236,-53
365.37,1512,3872,13860,202,244,-33
365.38,1488,3856,13880,235,235,-38
365.39,1480,3820,13764,194,264,-58
365.4,1476,3872,13852,174,233,-82
365.41,1536,3904,13940,107,244,-70
365.42,1520,3912,13832,100,285,-41
365.43,1424,3816,14028,76,300,-57
365.44,1532,3916,13784,89,254,-76
365.45,1628,3888,13900,11,265,-60
365.46,1436,3928,13832,-36,254,-57
365.47,1508,4020,13940,-58,283,-61
365.48,1484,3916,13960,-92,305,-34
365.49,1492,3916,13816,-154,261,-43
365.5,1540,3944,13920,-143,265,-48
365.51,1548,3816,13864,-233,271,-34
365.52,1444,3864,13892,-255,277,-40
365.53,1464,3908,13880,-303,232,-34
365.54,1496,3980,13992,-344,233,-39
365.55,1416,3924,13948,-354,269,-24
365.56,1424,4012,13824,-376,247,-14
365.57,1540,3944,13948,-437,277,-17
365.58,1424,3968,13960,-534,285,-13
365.59,1484,3908,13912,-641,278,0
365.6,1452,3808,13888,-701,238,16
365.61,1548,3848,13932,-775,155,40
365.62,1532,3828,13968,-815,228,44
365.63,1520,3960,13788,-753,231,22
365.64,1524,3836,14016,-810,289,22
365.65,1536,3872,14032,-895,355,-4
365.66,1492,3888,14128,-1006,293,10
365.67,1428,3692,13992,-1137,293,10
365.68,1484,3832,13856,-1273,337,23
365.69,1408,3716,13944,-1436,263,42
365.7,1472,3704,13832,-1602,154,96
365.71,1424,3524,13980,-1387,273,74
365.72,1372,3556,14088,-1118,363,39
365.73,1428,3640,13896,-1246,297,53
365.74,1392,3644,13944,-1509,190,69
365.75,1440,3572,13844,-1568,144,112
365.76,1552,3428,13888,-1513,41,105
365.77,1480,3556,14268,-1426,27,150
365.78,1464,3512,13956,-1809,287,174
365.79,1424,3444,13476,-2310,70,225
365.8,1676,3224,14420,-1258,236,60
365.81,1564,3428,14348,-426,336,1
365.82,1376,3504,13888,-1435,-83,109
365.83,1468,3220,14076,-1590,153,137
365.84,1412,3236,13652,-1597,53,203
365.85,1272,3052,13556,-2168,-194,264
365.86,1552,2900,13848,-1472,-102,187
365.87,1608,3100,14476,-522,-153,90
365.88,1596,3208,14364,-786,-67,91
365.89,1476,3196,14328,-1164,-1,120
365.9,1380,3324,14236,-1396,151,169
365.91,1444,3172,14144,-1482,242,134
365.92,1600,3140,14024,-1523,269,112
365.93,1464,2976,13960,-1546,261,124
365.94,1576,3032,13920,-1505,332,107
365.95,1420,2956,13720,-1552,188,150
365.96,1520,2820,13924,-1488,128,127
365.97,1480,2824,13900,-1193,90,128
365.98,1476,2764,14128,-1015,100,105
365.99,1512,2780,14300,-864,147,72
366.0,1632,2860,14240,-864,238,56
366.01,1540,2800,14044,-908,262,46
366.02,1524,2808,14116,-1077,259,94
366.03,1412,2828,13984,-1184,164,100
366.04,1560,2748,14200,-1245,203,93
366.05,1448,2832,14164,-1268,193,89
366.06,1584,2732,14100,-1390,193,99
366.07,1556,2568,14224,-1329,209,51
366.08,1432,2620,14212,-1153,188,60
366.09,1400,2588,14000,-1140,191,59
366.1,1460,2664,14152,-1027,243,24
366.11,1452,2728,14052,-909,263,11
366.12,1496,2568,14256,-822,273,26
366.13,1508,2692,14300,-799,313,6
366.14,1528,2436,14188,-840,280,-15
366.15,1404,2536,14320,-720,422,-7
366.16,1420,2628,14036,-1027,260,8
366.17,1464,2516,13824,-1433,184,60
366.18,1516,2328,14068,-746,119,-21
366.19,1560,2448,14432,-483,123,-56
366.2,1500,2500,14116,-884,107,-11
366.21,1560,2492,14184,-1092,125,-10
366.22,1592,2532,14128,-986,87,12
366.23,1568,2364,14168,-956,73,-3
366.24,1576,2492,14392,-1099,172,-38
366.25,1616,2372,14392,-1138,234,-10
366.26,1524,2252,14120,-1035,273,-66
366.27,1604,2424,14068,-1100,220,-59
366.28,1444,2264,14312,-1171,283,-45
366.29,1484,2168,14176,-1278,237,-45
366.3,1448,2280,14212,-1359,274,-31
366.31,1516,2120,14212,-1284,155,-41
366.32,1580,2080,14108,-1171,139,-49
366.33,1452,2128,14044,-1197,128,2
366.34,1444,2132,14132,-1087,136,-56
366.35,1460,2060,14124,-925,177,-36
366.36,1584,2108,14456,-828,125,-31
366.37,1536,2080,14360,-925,197,-24
366.38,1464,2100,14148,-1082,160,20
366.39,1460,2120,14260,-1175,185,4
366.4,1560,1980,14220,-1043,171,-21
366.41,1512,2060,14256,-964,191,-36
366.42,1544,1944,14284,-903,213,-66
366.43,1496,2040,14204,-874,185,-13
366.44,1544,2076,14192,-947,202,-22
366.45,1580,2000,14220,-897,219,-36
366.46,1484,1940,14320,-734,190,-29
366.47,1452,1960,14288,-734,240,-22
366.48,1472,1864,14288,-706,211,-35
366.49,1556,1848,14268,-708,134,-38
366.5,1584,1876,14172,-704,204,-47
366.51,1568,1872,14160,-679,234,-36
366.52,1552,1928,14176,-728,214,-63
366.53,1528,1820,14172,-736,164,-34
366.54,1488,1824,14148,-631,156,-49
366.55,1528,1780,14148,-514,166,-33
366.56,1524,1804,14184,-482,179,-51
366.57,1680,1776,14176,-434,172,-50
366.58,1576,1736,14212,-403,212,-11
366.59,1540,1660,14044,-375,158,-23
366.6,1492,1704,14216,-223,143,7
366.61,1572,1756,14160,-133,130,-15
366.62,1540,1700,14100,-13,161,4
366.63,1520,1752,14132,127,194,-7
366.64,1556,1748,14088,208,206,-5
366.65,1544,1616,14196,322,241,4
366.66,1656,1816,14072,443,271,1
366.67,1572,1876,14116,524,299,-12
366.68,1496,1904,14108,663,317,2
366.69,1596,1880,14236,680,341,-20
366.7,1572,1992,14160,579,338,-28
366.71,1488,1908,14060,541,273,-36
366.72,1464,1860,14112,510,232,-7
366.73,1584,1920,14344,792,314,-18
366.74,1552,2056,14392,1045,404,-57
366.75,1472,2076,14204,899,383,-49
366.76,1440,2044,14200,699,232,1
366.77,1488,1924,14024,725,110,-2
366.78,1560,1940,14088,970,101,15
366.79,1508,1968,14396,1226,228,20
366.8,1536,2100,14084,927,519,37
366.81,1524,2132,13516,247,322,28
366.82,1748,1888,14596,1081,263,-2
366.83,1616,2228,14536,2500,231,-99
366.84,1448,2472,13992,1140,38,-36
366.85,1536,2184,14384,1328,400,-79
366.86,1400,2296,13908,1179,190,12
366.87,1412,2284,13536,140,-39,104
366.88,1528,2104,13980,1087,226,18
366.89,1680,2376,14492,1967,191,-70
366.9,1500,2604,14608,1626,283,-111
366.91,1444,2544,14376,1129,337,-91
366.92,1484,2496,14360,913,371,-1
366.93,1480,2576,14296,903,380,6
366.94,1408,2528,14232,908,351,-22
366.95,1484,2584,14088,892,320,-40
366.96,1488,2528,13988,869,303,-48
366.97,1500,2612,13908,915,309,-32
366.98,1512,2556,13960,1071,183,-28
366.99,1556,2628,14120,1377,126,-61
367.0,1608,2512,14184,1614,139,-113
367.01,1588,2744,14284,1665,222,-114
367.02,1504,2840,14248,1482,315,-126
367.03,1420,2744,14088,1366,329,-128
367.04,1536,2800,14048,1215,262,-59
367.05,1404,2836,14040,1027,273,-99
367.06,1516,2804,14196,1055,236,-90
367.07,1408,2916,14204,1074,239,-110
367.08,1536,2960,14060,984,186,-93
367.09,1536,3036,13964,966,196,-71
367.1,1516,2924,14016,990,187,-129
367.11,1504,3036,14024,1047,190,-74
367.12,1464,3048,14060,1122,230,-96
367.13,1488,3132,14000,1288,130,-97
367.14,1444,3164,14032,1414,80,-133
367.15,1536,3264,14284,1501,520,-166
367.16,1320,3332,13908,1076,437,-78
367.17,1388,3220,13760,697,335,-83
367.18,1444,3128,13820,796,276,-77
367.19,1420,3188,13936,1004,122,-116
367.2,1460,3200,14080,1209,179,-138
367.21,1560,3328,14024,1074,160,-110
367.22,1468,3316,14116,832,146,-76
367.23,1396,3320,14052,854,97,-85
367.24,1552,3340,13984,761,93,-52
367.25,1516,3444,14128,766,132,-83
367.26,1552,3332,14092,875,137,-85
367.27,1508,3512,14128,1052,139,-131
367.28,1520,3532,14020,948,214,-122
367.29,1584,3400,13944,780,273,-100
367.3,1360,3496,13960,685,252,-92
367.31,1504,3448,14080,760,272,-103
367.32,1508,3444,14052,717,271,-69
367.33,1528,3572,13936,550,254,-70
367.34,1520,3484,13792,604,263,-87
367.35,1404,3588,13912,730,275,-64
367.36,1292,3584,13928,765,299,-77
367.37,1448,3572,13812,604,271,-81
367.38,1408,3544,13932,501,213,-84
367.39,1416,3620,14028,529,221,-58
367.4,1440,3700,13944,543,224,-79
367.41,1492,3776,13916,499,267,-57
367.42,1356,3720,13936,468,252,-74
367.43,1416,3644,14076,535,298,-70
367.44,1420,3764,13964,479,224,-65
367.45,1484,3780,13928,477,277,-68
367.46,1384,3724,14076,495,271,-46
367.47,1404,3864,13788,435,258,-58
367.48,1444,3796,13908,336,264,-28
367.49,1412,3752,13884,285,293,-37
367.5,1504,3764,14064,334,262,-84
367.51,1492,3804,14032,322,280,-83
367.52,1444,3812,13912,260,262,-64
367.53,1448,3796,14008,316,306,-70
367.54,1496,3776,13864,333,243,-72
367.55,1336,3804,13872,356,280,-57
367.56,1492,3832,13900,312,263,-57
367.57,1364,3800,13888,272,267,-68
367.58,1420,3932,13832,271,247,-62
367.59,1452,3956,13800,163,313,-72
367.6,1468,3904,13844,168,263,-61
367.61,1448,3888,13916,94,279,-25
367.62,1516,3932,14072,126,241,-38
367.63,1360,3792,13844,111,266,-38
367.64,1372,3984,13932,68,287,-63
367.65,1420,3828,13824,38,302,-72
367.66,1384,3996,13956,71,306,-63
367.67,1400,3960,13900,48,347,-68
367.68,1356,3920,14052,-16,347,-51
367.69,1324,3916,13824,-108,310,-71
367.7,1388,3840,13800,-247,251,-41
367.71,1428,3848,13820,-306,224,-21
367.72,1512,3900,13896,-191,260,-13
367.73,1444,3948,14080,-25,397,-74
367.74,1452,4044,14100,-65,382,-90
367.75,1356,3924,13928,-209,329,-66
367.76,1372,4000,13816,-378,281,-27
367.77,1312,3880,13876,-380,187,-4
367.78,1460,3964,13988,-353,100,20
367.79,1420,3952,13860,-805,295,86
367.8,1356,3728,13500,-1355,85,113
367.81,1636,3748,14256,-501,281,41
367.82,1556,4072,14472,218,431,-119
367.83,1344,4056,13984,-859,136,6
367.84,1416,3872,13852,-943,281,35
367.85,1360,3840,13692,-1056,172,96
367.86,1276,3716,13524,-1627,13,157
367.87,1388,3548,13724,-1156,-57,139
367.88,1556,3668,14064,-609,-153,60
367.89,1520,3856,14356,-780,-145,82
367.9,1400,3784,14144,-1127,-145,117
367.91,1288,3812,13800,-1279,-124,152
367.92,1424,3808,13928,-1256,-41,127
367.93,1428,3680,13820,-1000,22,122
367.94,1440,3648,14016,-887,149,99
367.95,1400,3636,13912,-917,272,55
367.96,1476,3660,13752,-1074,336,31
367.97,1484,3536,13916,-1079,241,33
367.98,1428,3492,13852,-956,237,43
367.99,1432,3540,13888,-1023,200,84
368.0,1496,3540,14036,-1072,191,83
368.01,1532,3424,14076,-1163,250,81
368.02,1456,3372,13856,-1241,234,85
368.03,1552,3436,14088,-1314,254,123
368.04,1368,3452,14104,-1350,295,83
368.05,1420,3316,14056,-1339,286,100
368.06,1372,3316,14064,-1428,284,102
368.07,1408,3376,14020,-1475,282,70
368.08,1404,3340,14012,-1460,232,106
368.09,1496,3276,13832,-1364,210,80
368.1,1464,3228,14020,-1290,235,79
368.11,1360,3196,14008,-1118,294,94
368.12,1416,3140,14036,-978,336,66
368.13,1416,3240,14052,-930,357,19
368.14,1384,3272,14412,-944,292,13
368.15,1436,3228,14244,-884,571,16
368.16,1292,3140,13960,-1343,425,98
368.17,1288,2928,13684,-1749,260,91
368.18,1432,2972,14092,-1238,235,49
368.19,1424,3028,14280,-789,208,16
368.2,1388,3016,14176,-1210,186,68
368.21,1420,3016,14100,-1486,185,117
368.22,1372,3004,14052,-1409,137,114
368.23,1428,2948,14084,-1365,127,78
368.24,1432,2920,13984,-1350,169,77
368.25,1360,2940,14208,-1342,289,26
368.26,1408,2932,14248,-1376,284,-17
368.27,1376,2916,14132,-1461,317,54
368.28,1436,2776,14156,-1480,278,34
368.29,1292,2712,14072,-1526,264,45
368.3,1444,2568,14056,-1569,197,32
368.31,1460,2660,14220,-1463,144,51
368.32,1456,2624,14176,-1440,173,18
368.33,1428,2620,14196,-1511,92,65
368.34,1460,2568,14028,-1423,115,14
368.35,1440,2544,14152,-1264,183,4
368.36,1388,2580,14076,-1371,191,8
368.37,1408,2572,13920,-1530,178,16
368.38,1320,2456,14136,-1463,160,1
368.39,1456,2424,14088,-1411,134,-7
368.4,1452,2452,14080,-1417,150,8
368.41,1424,2304,14076,-1174,112,-5
368.42,1508,2404,14216,-1056,172,-2
368.43,1508,2356,14204,-1234,199,29
368.44,1448,2308,14192,-1219,286,-34
368.45,1292,2344,14156,-1073,152,-20
368.46,1400,2408,14056,-1234,169,-58
368.47,1444,2160,14228,-1129,154,-8
368.48,1372,2308,14328,-1143,162,-32
368.49,1508,2272,14240,-1156,169,-14
368.5,1368,2180,14196,-1125,177,-42
368.51,1508,2188,14268,-1116,208,-42
368.52,1420,2136,14160,-1177,241,-97
368.53,1468,2200,14208,-1187,185,-44
368.54,1428,2196,14088,-1137,101,-32
368.55,1508,2072,14100,-1122,152,-46
368.56,1460,1972,14224,-989,110,-38
368.57,1576,2148,14208,-962,174,-56
368.58,1488,2036,14208,-969,181,-62
368.59,1412,1964,14268,-979,142,-66
368.6,1420,1968,14156,-942,164,-55
368.61,1412,1864,14168,-976,146,-68
368.62,1500,1884,14200,-939,178,-81
368.63,1488,1916,14284,-870,180,-49
368.64,1424,1920,14352,-811,189,-38
368.65,1364,1880,14272,-844,136,-51
368.66,1428,1868,14004,-862,122,4
368.67,1380,1780,13988,-845,27,-11
368.68,1520,1760,14128,-701,56,3
368.69,1484,1652,14332,-292,185,-1
368.7,1452,1892,14292,-48,256,-39
368.71,1488,1844,14288,-21,260,-13
368.72,1408,1876,14128,-28,187,15
368.73,1448,1828,14108,60,115,21
368.74,1392,1800,14240,264,125,12
368.75,1440,1844,14432,294,290,32
368.76,1408,1968,13916,-208,512,48
368.77,1400,1724,13672,-543,-71,129
368.78,1620,1696,14656,667,284,20
368.79,1552,2080,14304,1323,76,-66
368.8,1404,1896,13824,142,-79,53
368.81,1612,1708,14544,910,330,-40
368.82,1368,2112,13780,734,112,10
368.83,1316,1828,13632,20,68,105
368.84,1492,1848,14208,906,114,68
368.85,1536,2128,14812,1588,246,-12
368.86,1524,2260,14656,1268,378,-55
368.87,1424,2192,14420,853,329,-18
368.88,1372,2148,14176,667,272,36
368.89,1388,2228,14096,621,254,48
368.9,1432,2276,14332,724,252,58
368.91,1496,2128,14064,790,264,15
368.92,1512,2124,14100,783,260,52
368.93,1504,2120,13940,814,184,36
368.94,1504,2156,13852,1021,154,36
368.95,1460,2136,14136,1426,159,41
368.96,1584,2164,14236,1606,135,-25
368.97,1524,2284,14452,1680,247,-47
368.98,1484,2312,14380,1568,305,-40
368.99,1388,2448,14272,1414,415,-58
369.0,1416,2380,14268,1229,402,-52
369.01,1460,2512,14080,1081,297,-55
369.02,1520,2456,14052,987,249,-49
369.03,1460,2524,14068,1055,266,-22
369.04,1480,2468,14216,1115,272,-61
369.05,1568,2536,14108,1042,261,-26
369.06,1488,2584,14144,1003,237,-55
369.07,1408,2652,14132,1142,251,-45
369.08,1304,2656,14256,1375,255,-60
369.09,1324,2768,14040,1424,235,-95
369.1,1528,2788,14428,1506,535,-85
369.11,1296,2808,14136,1350,563,-105
369.12,1428,2868,14020,768,372,-43
369.13,1292,2748,14008,864,361,-97
369.14,1308,2796,14040,1144,220,-94
369.15,1476,2864,14156,1151,203,-122
369.16,1508,2860,14044,1227,264,-139
369.17,1560,2904,14180,1107,205,-113
369.18,1268,2980,14168,1043,166,-107
369.19,1316,2924,14100,1071,137,-52
369.2,1408,2976,13896,973,167,-98
369.21,1408,3072,14188,1012,197,-116
369.22,1396,3040,14156,1087,172,-118
369.23,1500,3068,14176,1098,203,-126
369.24,1448,3104,14152,972,234,-117
369.25,1344,3164,14096,881,253,-75
369.26,1376,3052,14244,898,270,-118
369.27,1352,3156,14076,915,273,-73
369.28,1424,3092,13920,759,252,-51
369.29,1420,3132,13952,776,198,-94
369.3,1456,3184,14052,903,254,-111
369.31,1472,3204,14212,1021,270,-94
369.32,1364,3224,13948,1001,286,-94
369.33,1380,3300,13980,888,250,-78
369.34,1412,3284,14140,855,265,-110
369.35,1352,3408,14028,799,228,-67
369.36,1468,3400,14068,745,223,-49
369.37,1360,3472,13948,788,255,-91
369.38,1324,3488,13936,751,236,-77
369.39,1368,3468,14000,778,221,-66
369.4,1396,3428,13936,748,223,-89
369.41,1280,3480,14048,780,256,-101
369.42,1248,3460,14072,799,251,-80
369.43,1328,3564,13976,750,271,-85
369.44,1420,3532,13888,654,298,-94
369.45,1420,3476,13992,665,330,-96
369.46,1348,3600,13968,628,293,-112
369.47,1416,3536,14088,599,290,-101
369.48,1404,3584,13924,581,283,-104
369.49,1400,3680,13908,582,257,-117
369.5,1324,3632,13932,612,288,-109
369.51,1260,3768,13900,539,261,-110
369.52,1388,3624,13896,570,230,-106
369.53,1400,3648,13952,539,237,-77
369.54,1384,3716,13920,537,232,-65
369.55,1300,3704,13976,558,262,-68
369.56,1376,3732,13924,489,280,-72
369.57,1308,3676,14040,562,281,-85
369.58,1356,3740,13880,528,316,-84
369.59,1376,3732,13940,489,300,-97
369.6,1380,3776,13812,325,273,-84
369.61,1288,3752,13952,262,257,-37
369.62,1420,3768,13696,257,269,-66
369.63,1388,3744,13868,255,345,-91
369.64,1460,3792,14048,390,283,-62
369.65,1396,3904,14112,456,335,-106
369.66,1256,4032,13860,276,391,-106
369.67,1252,3872,13840,90,295,-59
369.68,1268,3908,13972,208,175,-75
369.69,1360,3864,14100,104,193,-22
369.7,1272,4000,13340,-628,325,70
369.71,1400,3660,13740,-579,29,70
369.72,1548,3944,14472,637,378,-109
369.73,1280,4056,14168,489,258,-131
369.74,1324,3900,13752,-212,191,-27
369.75,1376,3888,13852,-83,329,-19
369.76,1152,3924,13468,-518,150,75
369.77,1400,3544,13576,-488,-3,114
369.78,1360,3696,13896,-69,-87,65
369.79,1436,3888,14164,40,-187,4
369.8,1328,4012,14068,-256,-127,1
369.81,1292,3944,14112,-435,-72,75
369.82,1248,3852,13916,-396,-32,23
369.83,1200,3836,13856,-266,96,33
369.84,1356,4004,13992,-287,292,-17
369.85,1312,3844,13788,-521,258,49
369.86,1400,3768,13992,-410,211,22
369.87,1408,3868,13968,-300,199,12
369.88,1400,3780,14132,-405,205,25
369.89,1312,3756,14136,-591,262,18
369.9,1312,3748,13992,-834,311,30
369.91,1496,3808,13888,-1059,304,68
369.92,1444,3736,14084,-1207,313,71
369.93,1316,3744,13924,-1265,265,68
369.94,1432,3660,13800,-1196,221,85
369.95,1404,3728,13896,-1189,257,71
369.96,1392,3632,13928,-1215,244,61
369.97,1368,3592,13844,-1218,188,40
369.98,1360,3624,13892,-1056,220,46
369.99,1392,3660,14148,-1002,315,32
370.0,1360,3676,14004,-1074,305,29
370.01,1316,3560,13872,-1034,263,35
370.02,1408,3640,13880,-1055,288,14
370.03,1416,3520,14336,-897,458,4
370.04,1348,3596,13980,-1260,470,70
370.05,1284,3460,13780,-1857,270,105
370.06,1404,3360,13860,-1435,289,42
370.07,1324,3284,14052,-1085,104,64
370.08,1380,3360,13932,-1334,130,87
370.09,1312,3284,13900,-1402,173,81
370.1,1400,3252,14020,-1369,154,92
370.11,1360,3276,14024,-1228,147,47
370.12,1396,3240,14112,-1210,214,73
370.13,1304,3268,14016,-1259,233,49
370.14,1384,3252,14184,-1231,256,33
370.15,1412,3176,14096,-1173,292,55
370.16,1372,3188,14000,-1309,341,38
370.17,1312,3200,14176,-1478,307,55
370.18,1416,3036,13984,-1517,304,39
370.19,1364,3044,14000,-1468,253,26
370.2,1408,3052,14000,-1420,285,61
370.21,1304,3072,13916,-1502,208,49
370.22,1272,2916,13904,-1544,186,43
370.23,1244,2988,14076,-1373,138,71
370.24,1328,2820,14160,-1247,117,61
370.25,1348,2856,14064,-1296,141,56
370.26,1448,2964,14144,-1267,191,39
370.27,1400,2868,14256,-1355,225,32
370.28,1344,2888,14116,-1353,173,77
370.29,1444,2772,14140,-1316,206,74
370.3,1340,2748,14116,-1326,209,41
370.31,1336,2708,14176,-1422,194,62
370.32,1312,2804,14276,-1385,199,4
370.33,1360,2652,14104,-1323,113,32
370.34,1304,2720,14072,-1297,107,70
370.35,1344,2704,14132,-1261,126,18
370.36,1376,2644,14192,-1200,93,22
370.37,1256,2644,13988,-1216,158,19
370.38,1416,2640,14104,-1197,183,-15
370.39,1396,2644,14148,-1103,153,-20
370.4,1332,2512,14156,-1107,190,-1
370.41,1356,2512,14224,-1012,187,-11
370.42,1364,2532,14268,-987,200,-19
370.43,1272,2524,14236,-1033,160,-12
370.44,1416,2420,14304,-1069,169,-48
370.45,1248,2420,14248,-1060,175,-12
370.46,1396,2464,14156,-1052,163,-39
370.47,1368,2320,14284,-1020,136,-35
370.48,1444,2356,14352,-1041,172,-37
370.49,1448,2384,13988,-1149,160,-28
370.5,1236,2328,13944,-1296,78,-34
370.51,1372,2208,14132,-1223,41,-37
370.52,1572,2344,14224,-950,133,-23
370.53,1576,2272,14344,-826,242,-70
370.54,1408,2252,14264,-787,217,-57
370.55,1308,2204,14252,-861,236,-37
370.56,1336,2168,14184,-1040,192,-36
370.57,1340,2116,13920,-1076,96,0
370.58,1520,2192,14420,-879,81,-6
370.59,1368,2272,14556,-1141,352,-8
370.6,1188,2336,13628,-2018,147,5
370.61,1476,1896,14224,-1674,-67,26
370.62,1628,1988,14724,-162,212,-140
370.63,1272,2136,13884,-681,-156,-25
370.64,1456,1920,13960,-1324,-200,40
370.65,1376,1852,14264,-491,220,3
370.66,1344,1920,13796,-1126,-242,105
370.67,1404,1808,13780,-1212,-47,95
370.68,1516,1860,14436,-211,45,25
370.69,1548,2088,14688,169,159,-43
370.7,1512,2160,14520,-142,237,-35
370.71,1380,2128,14324,-402,182,8
370.72,1292,2112,14316,-470,228,9
370.73,1408,2032,14128,-387,234,18
370.74,1492,1984,14192,-401,258,17
370.75,1428,1932,14108,-388,243,30
370.76,1356,1812,14108,-303,175,22
370.77,1388,1836,14024,-123,145,62
370.78,1408,1884,14204,203,120,40
370.79,1492,1832,14144,565,150,29
370.8,1488,1900,14212,765,118,7
370.81,1544,1960,14320,722,203,-5
370.82,1500,2016,14260,710,286,8
370.83,1376,2044,14184,678,294,-8
370.84,1400,2120,14196,608,297,-46
370.85,1496,2140,14232,586,321,-51
370.86,1444,2116,14104,613,261,-21
370.87,1524,2152,14204,578,283,-23
370.88,1432,2076,14160,682,243,25
370.89,1384,2092,14252,711,242,20
370.9,1460,2224,14188,792,254,5
370.91,1376,2288,14148,890,260,5
370.92,1456,2312,14220,1057,294,-32
370.93,1328,2228,14228,1036,235,-41
370.94,1372,2292,14424,1163,561,-44
370.95,1392,2396,14052,861,348,-1
370.96,1432,2216,14004,528,297,1
370.97,1388,2236,14148,878,271,-18
370.98,1352,2304,14204,1011,125,-31
370.99,1384,2336,14036,1135,149,-37
371.0,1464,2468,14164,1135,174,-29
371.01,1412,2540,14180,1106,202,-12
371.02,1412,2584,14180,1124,188,-19
371.03,1372,2504,14104,1124,176,-62
371.04,1420,2468,14060,1135,169,-51
371.05,1300,2560,14160,1346,260,-88
371.06,1448,2688,14160,1436,287,-84
371.07,1532,2676,14276,1360,361,-93
371.08,1464,2640,14360,1176,371,-122
371.09,1372,2720,14220,985,343,-66
371.1,1340,2676,14288,916,402,-106
371.11,1476,2704,14244,951,504,-107
371.12,1360,2760,14100,573,470,-119
371.13,1328,2780,13988,266,389,-75
371.14,1320,2812,13968,202,336,-93
371.15,1344,2672,14176,346,262,-93
371.16,1324,2656,14068,456,198,-82
371.17,1480,2724,13952,499,200,-63
371.18,1444,2720,14096,560,196,-33
371.19,1376,2928,14012,617,219,-37
371.2,1336,2912,14160,765,274,-59
371.21,1320,2912,13972,851,275,-57
371.22,1336,2948,14176,856,260,-45
371.23,1364,2828,13996,815,245,-70
371.24,1332,2924,14024,910,248,-55
371.25,1384,2960,14156,947,228,-54
371.26,1448,2972,14224,887,254,-57
371.27,1316,3024,14164,817,177,-69
371.28,1292,3136,14112,811,216,-47
371.29,1348,2996,13956,829,240,-47
371.3,1280,3044,14040,844,232,-89
371.31,1304,3124,14104,804,283,-90
371.32,1284,3136,14296,900,227,-76
371.33,1312,3084,14000,950,258,-60
371.34,1344,3252,13968,906,232,-102
371.35,1264,3248,13904,898,271,-92
371.36,1332,3284,14068,834,257,-66
371.37,1388,3164,13976,923,224,-94
371.38,1312,3208,14096,991,226,-119
371.39,1344,3228,13988,1019,244,-102
371.4,1348,3300,14116,953,249,-77
371.41,1360,3320,13988,884,218,-65
371.42,1416,3360,13796,755,165,-81
371.43,1368,3412,13980,734,134,-47
371.44,1324,3360,13996,837,218,-64
371.45,1436,3372,14036,1003,297,-77
371.46,1212,3452,14112,1086,350,-124
371.47,1224,3572,14020,953,353,-126
371.48,1228,3512,13944,782,322,-102
371.49,1260,3508,13896,622,272,-88
371.5,1356,3508,14172,659,192,-55
371.51,1284,3472,13948,470,325,-17
371.52,1256,3612,13440,-364,255,20
371.53,1508,3400,14096,82,182,-14
371.54,1532,3668,14536,1380,388,-143
371.55,1280,3848,13996,593,105,-68
371.56,1404,3564,14092,325,358,-70
371.57,1188,3680,13808,174,229,24
371.58,1224,3464,13408,-402,-94,120
371.59,1352,3396,13712,188,-26,80
371.6,1400,3524,13988,778,-253,31
371.61,1476,3776,14204,897,-278,-21
371.62,1340,3760,14184,596,-85,-49
371.63,1256,3676,14016,418,78,-6
371.64,1200,3756,14004,479,172,-13
371.65,1316,3764,13856,431,244,-44
371.66,1384,3844,14020,353,325,-48
371.67,1384,3748,13944,305,376,-89
371.68,1252,3724,13676,297,360,-80
371.69,1308,3788,13908,501,299,-86
371.7,1276,3796,13780,574,244,-113
371.71,1360,3796,14120,577,192,-83
371.72,1332,3708,14112,399,219,-44
371.73,1364,3740,14132,296,228,-47
371.74,1348,3796,13980,213,252,-29
371.75,1324,3740,13784,108,296,-44
371.76,1404,3824,13932,84,254,-15
371.77,1268,3828,13968,45,235,-28
371.78,1284,3784,13832,27,297,-48
371.79,1320,3848,13944,-60,264,-25
371.8,1496,3864,13872,-10,282,-50
371.81,1284,3904,13872,22,273,-46
371.82,1232,3828,13940,4,304,-33
371.83,1244,3856,13888,70,289,-21
371.84,1300,3912,14148,172,296,-47
371.85,1336,3912,13964,143,191,-32
371.86,1452,3848,14124,317,526,-76
371.87,1204,3932,13808,-19,451,-35
371.88,1268,3876,13632,-430,291,-13
371.89,1316,3732,13936,71,397,-74
371.9,1344,3820,14104,301,280,-99
371.91,1356,3856,13984,91,254,-55
371.92,1296,3900,13892,-162,266,-27
371.93,1316,3908,13872,-272,207,24
371.94,1256,3944,14032,-242,165,-9
371.95,1380,3848,13844,-257,163,6
371.96,1380,4004,13896,-382,230,-4
371.97,1432,4048,14032,-331,228,-28
371.98,1332,3960,14080,-361,312,-37
371.99,1268,4008,14040,-518,317,-26
372.0,1232,3972,13876,-648,296,-39
372.01,1308,3908,14004,-793,291,-19
372.02,1248,3872,14048,-976,294,-15
372.03,1240,3736,14048,-1101,259,22
372.04,1304,3804,13856,-1339,251,38
372.05,1248,3724,13996,-1577,182,99
372.06,1184,3716,13964,-1536,150,68
372.07,1388,3684,14088,-1640,172,91
372.08,1220,3652,13880,-1798,217,89
372.09,1260,3540,13920,-1837,177,80
372.1,1308,3504,13932,-1910,178,98
372.11,1300,3508,13976,-1989,161,140
372.12,1364,3472,14064,-1950,183,153
372.13,1332,3480,13996,-1931,281,149
372.14,1284,3360,13944,-1970,228,104
372.15,1348,3332,14056,-1995,164,123
372.16,1276,3368,13884,-1976,158,117
372.17,1212,3292,14012,-1917,217,89
372.18,1264,3304,14000,-1836,246,118
372.19,1364,3196,14172,-1796,298,58
372.2,1248,3272,14048,-2052,230,130
372.21,1292,3180,14092,-2093,227,143
372.22,1316,3092,14160,-2061,177,113
372.23,1356,3116,14136,-2051,188,115
372.24,1256,3056,14172,-2032,224,86
372.25,1232,2980,14240,-2076,209,93
372.26,1208,2792,14088,-2223,90,118
372.27,1272,2760,13904,-2191,-19,85
372.28,1392,2748,14008,-1999,-3,106
372.29,1328,2788,14196,-1726,106,34
372.3,1356,2764,14292,-1486,183,12
372.31,1356,2768,14312,-1511,234,6
372.32,1184,2728,14100,-1747,144,26
372.33,1272,2572,13992,-1751,15,46
372.34,1384,2620,14248,-1487,-72,58
372.35,1304,2636,14360,-1709,336,29
372.36,1236,2664,13724,-2482,208,39
372.37,1432,2248,14036,-2250,-8,17
372.38,1520,2320,14704,-1011,240,-80
372.39,1296,2352,14040,-1227,-120,7
372.4,1360,2384,13900,-2132,-291,42
372.41,1472,2112,14320,-1390,154,15
372.42,1368,2288,13752,-1714,-214,35
372.43,1340,2196,13836,-2270,-139,100
372.44,1392,2120,14248,-1534,-29,43
372.45,1504,2244,14680,-811,79,-48
372.46,1388,2488,14708,-1166,190,-76
372.47,1236,2412,14528,-1585,222,-53
372.48,1272,2320,14404,-1836,324,-62
372.49,1260,2300,14236,-2001,223,-24
372.5,1356,2168,14216,-2093,128,-5
372.51,1352,2052,14180,-2127,100,-5
372.52,1292,1912,14080,-2017,59,-47
372.53,1340,1844,14064,-1916,65,-32
372.54,1340,1780,14100,-1748,-39,-24
372.55,1368,1764,14124,-1533,-121,-20
372.56,1552,1792,14392,-1426,-76,-22
372.57,1444,1724,14544,-1231,-38,-64
372.58,1444,1796,14336,-1111,58,-80
372.59,1472,1804,14272,-1274,-1,-75
372.6,1348,1844,14336,-1415,-11,-84
372.61,1508,1676,14368,-1492,32,-80
372.62,1404,1772,14384,-1726,-31,-114
372.63,1416,1604,14244,-1956,-166,-159
372.64,1440,1472,14104,-2020,-190,-146
372.65,1388,1360,14288,-1846,-128,-110
372.66,1372,1324,14196,-1610,-264,-48
372.67,1372,1468,14212,-1638,86,135
372.68,1556,1596,14072,-1630,-174,232
372.69,1796,1772,14568,-1555,-188,-49
372.7,1440,1444,14252,-1462,248,-72
372.71,1308,1380,14528,-1019,-107,-28
372.72,1436,1428,14052,-1564,-138,-23
372.73,1452,1180,13952,-2138,-341,-38
372.74,1516,1016,14364,-1881,-353,-27
372.75,1512,1268,14416,-1394,-366,-62
372.76,1612,1280,14356,-1432,-132,-67
372.77,1552,1200,14324,-1556,-93,-31
372.78,1472,1208,14200,-1713,-178,-63
372.79,1532,1160,14404,-1641,-349,-48
372.8,1688,1128,14412,-1667,-247,-124
372.81,1588,992,14248,-1685,-130,-133
372.82,1640,964,14212,-1739,-209,-120
372.83,1716,896,14356,-1665,-136,-117
372.84,1540,988,14340,-1424,-91,-135
372.85,1636,760,14152,-1517,-148,-107
372.86,1684,736,14128,-1392,-39,-107
372.87,1676,712,14220,-1162,-121,-73
372.88,1692,804,14176,-987,-47,-36
372.89,1596,756,14184,-770,-126,-30
372.9,1616,736,14188,-538,-65,-44
372.91,1652,624,14136,-451,-52,3
372.92,1600,684,14100,-375,-63,3
372.93,1712,720,14196,-205,-40,-6
372.94,1680,732,14116,-98,3,-5
372.95,1676,628,14064,22,149,21
372.96,1652,772,14024,187,173,34
372.97,1684,708,14096,472,301,40
372.98,1664,768,14032,875,390,20
372.99,1652,816,14000,1144,486,8
373.0,1520,832,14032,1318,481,35
373.01,1632,732,13932,1461,412,53
373.02,1580,868,14192,1647,510,33
373.03,1604,1064,14320,1874,521,5
373.04,1588,1100,14412,1789,541,-5
373.05,1568,1052,14360,1651,638,4
373.06,1528,1228,14256,1476,560,9
373.07,1496,1144,14336,1407,584,-11
373.08,1412,1252,14328,1335,598,-38
373.09,1536,1240,14244,1260,528,-41
373.1,1548,1228,14192,1277,536,-14
373.11,1540,1284,14176,1253,412,-20
373.12,1632,1228,14012,1158,305,2
373.13,1588,1264,14056,1222,310,15
373.14,1560,1372,14272,1577,425,26
373.15,1644,1396,14452,2070,507,-47
373.16,1564,1512,14248,2165,489,-48
373.17,1404,1552,14300,2126,670,-62
373.18,1500,1500,14252,2048,582,-17
373.19,1464,1600,14312,1957,470,-10
373.2,1584,1688,14572,1616,517,16
373.21,1388,2008,14092,811,706,-8
373.22,1568,1660,13880,222,226,66
373.23,1728,1556,14572,1238,469,-56
373.24,1584,1844,14752,2386,389,-86
373.25,1472,1992,13828,730,-15,57
373.26,1528,1692,14440,991,517,-3
373.27,1376,1828,14068,1202,294,53
373.28,1476,1852,13628,298,-32,143
373.29,1472,1656,13892,626,186,131
373.3,1572,1820,14520,1816,208,34
373.31,1504,2048,14716,2135,387,-88
373.32,1424,2272,14484,1692,492,-30
373.33,1312,2136,14464,1374,603,-40
373.34,1388,2176,14500,1344,575,-36
373.35,1368,2340,14460,1203,561,19
373.36,1420,2304,14376,1022,588,-38
373.37,1448,2236,14136,807,506,-26
373.38,1420,2132,13964,729,443,-21
373.39,1460,2200,13900,1011,237,-5
373.4,1488,2140,14216,1273,153,-31
373.41,1532,2160,14156,1471,185,-14
373.42,1392,2256,14220,1554,227,-44
373.43,1448,2292,14304,1620,309,-45
373.44,1300,2352,14236,1534,362,-60
373.45,1424,2424,14168,1487,355,-64
373.46,1460,2460,14160,1415,352,-63
373.47,1476,2492,14272,1338,332,-75
373.48,1492,2456,14184,1315,314,-57
373.49,1528,2472,14264,1163,335,-91
373.5,1528,2516,14044,1129,332,-75
373.51,1324,2652,14244,1268,284,-87
373.52,1332,2664,14168,1309,291,-56
373.53,1324,2660,14224,1452,349,-111
373.54,1376,2872,14256,1478,315,-105
373.55,1344,2788,14392,1462,564,-146
373.56,1332,2956,14056,1268,420,-17
373.57,1312,2908,13804,657,322,-20
373.58,1360,2744,13932,681,227,-41
373.59,1348,2824,14296,1359,130,-84
373.6,1476,2940,14192,1469,159,-84
373.61,1448,3032,14048,1083,250,-93
373.62,1436,2992,14136,1030,268,-69
373.63,1424,3024,14080,1054,145,-74
373.64,1380,3056,14048,1031,144,-70
373.65,1396,3044,14080,955,204,-16
373.66,1236,3052,13944,1042,207,-73
373.67,1368,3100,14100,1142,305,-125
373.68,1384,3144,14132,1147,310,-81
373.69,1420,3180,14308,967,345,-102
373.7,1500,3124,14008,842,345,-63
373.71,1364,3132,14052,770,337,-88
373.72,1348,3268,13944,815,305,-58
373.73,1388,3200,13944,690,271,-56
373.74,1340,3156,14032,690,256,-51
373.75,1336,3232,14152,781,207,-68
373.76,1316,3272,14016,836,257,-77
373.77,1300,3276,13964,904,234,-80
373.78,1348,3268,14080,841,288,-102
373.79,1424,3348,14008,811,264,-76
373.8,1372,3408,13944,738,234,-37
373.81,1340,3416,14068,665,283,-53
373.82,1400,3452,14032,712,265,-59
373.83,1336,3472,14052,710,340,-59
373.84,1476,3472,13976,696,268,-52
373.85,1228,3504,13924,711,294,-56
373.86,1180,3428,13968,703,277,-75
373.87,1348,3544,13992,772,335,-55
373.88,1304,3544,14056,704,291,-66
373.89,1336,3644,13968,591,238,-68
373.9,1272,3584,13888,559,250,-71
373.91,1432,3548,14160,563,259,-41
373.92,1392,3628,13800,562,265,-80
373.93,1188,3612,13852,620,247,-87
373.94,1392,3672,13808,559,323,-103
373.95,1396,3624,13964,483,333,-108
373.96,1396,3708,13908,475,265,-64
373.97,1292,3680,13836,413,330,-72
373.98,1216,3668,14056,400,267,-53
373.99,1376,3696,14084,395,288,-61
374.0,1260,3624,14068,343,281,-72
374.01,1412,3668,14044,333,270,-70
374.02,1300,3732,13892,243,246,-50
374.03,1236,3680,13948,176,293,-45
374.04,1224,3668,13896,125,222,-34
374.05,1300,3732,13976,99,220,-15
374.06,1268,3740,13968,21,278,-38
374.07,1364,3748,13888,15,257,-35
374.08,1256,3792,14080,-60,237,-48
374.09,1192,3840,13932,-98,286,-39
374.1,1228,3804,14116,-220,317,-40
374.11,1304,3792,13964,-285,305,-56
374.12,1304,3764,14040,-389,257,-24
374.13,1320,3772,13996,-539,261,-19
374.14,1288,3776,13904,-602,261,-15
374.15,1412,3796,14036,-770,249,23
374.16,1256,3796,14112,-961,273,20
374.17,1304,3760,14044,-1108,270,74
374.18,1184,3744,14040,-1258,225,58
374.19,1320,3712,14028,-1461,200,67
374.2,1220,3684,13936,-1631,126,45
374.21,1256,3532,13976,-1749,46,106
374.22,1360,3476,13828,-1774,74,81
374.23,1372,3432,14088,-1576,230,73
374.24,1380,3508,14080,-1439,237,91
374.25,1316,3440,14096,-1392,228,45
374.26,1256,3412,13900,-1510,233,46
374.27,1212,3292,13936,-1641,111,80
374.28,1344,3264,13844,-1489,21,102
374.29,1208,3340,14228,-1422,112,117
374.3,1096,3448,13708,-2207,381,177
374.31,1352,3168,13720,-2540,1,171
374.32,1552,3120,14660,-1132,342,17
374.33,1264,3252,13972,-970,64,89
374.34,1348,3084,13860,-2107,-275,183
374.35,1416,3032,14232,-1642,151,172
374.36,1204,3032,13660,-1980,-105,234
374.37,1208,2788,13640,-2090,-213,285
374.38,1344,3164,14460,-960,29,50
374.39,1356,3032,14236,-1527,262,66
374.4,1344,2976,14176,-1704,292,97
374.41,1384,2784,14116,-1824,343,99
374.42,1380,2740,13832,-1957,255,111
374.43,1320,2708,13784,-1764,29,135
374.44,1396,2640,13936,-1284,-7,100
374.45,1404,2584,14232,-1013,55,46
374.46,1392,2572,14212,-1003,54,67
374.47,1400,2584,14216,-1089,151,42
374.48,1368,2536,14240,-1226,185,69
374.49,1340,2560,14256,-1361,191,44
374.5,1392,2624,14328,-1409,125,90
374.51,1420,2452,14216,-1520,63,107
374.52,1432,2436,14076,-1514,79,73
374.53,1432,2352,14212,-1573,127,57
374.54,1232,2400,14184,-1588,100,-3
374.55,1368,2308,14272,-1490,110,42
374.56,1460,2360,14224,-1313,206,12
374.57,1360,2420,14268,-1287,160,24
374.58,1436,2416,13988,-1352,107,12
374.59,1444,2304,14256,-1205,211,2
374.6,1264,2240,14140,-1208,152,34
374.61,1404,2216,14044,-1591,86,66
374.62,1312,2052,14136,-1575,-47,4
374.63,1384,2116,14392,-925,-37,-26
374.64,1508,2248,14396,-992,-11,-26
374.65,1532,2272,14188,-1367,64,-38
374.66,1416,2024,14220,-1487,21,6
374.67,1396,2084,14140,-1395,-40,-15
374.68,1552,2028,14328,-1488,-35,-13
374.69,1448,2092,14332,-1561,43,-53
374.7,1444,2084,14364,-1587,112,-61
374.71,1328,2088,14212,-1688,47,-89
374.72,1504,1896,14228,-1641,-31,-56
374.73,1408,1780,14180,-1647,18,-73
374.74,1472,1812,14244,-1599,-9,-39
374.75,1508,1720,14248,-1652,-58,-52
374.76,1580,1548,14288,-1420,-56,-42
374.77,1440,1684,14132,-1246,-29,-60
374.78,1372,1712,14200,-1223,-27,-40
374.79,1464,1624,14224,-1075,-57,-37
374.8,1452,1564,14356,-825,9,-43
374.81,1504,1624,14416,-840,-3,-48
374.82,1556,1552,14384,-908,26,-28
374.83,1348,1576,14296,-1050,55,-24
374.84,1440,1612,14428,-1158,78,-30
374.85,1492,1684,14232,-1329,68,-62
374.86,1516,1628,14212,-1447,31,-54
374.87,1424,1616,14228,-1508,-7,-51
374.88,1344,1512,14212,-1320,-83,-30
374.89,1492,1504,14348,-1245,-99,-16
374.9,1512,1436,14392,-1158,-60,-37
374.91,1532,1372,14424,-1015,-8,-12
374.92,1552,1316,14404,-939,66,-20
374.93,1476,1404,14256,-902,19,-19
374.94,1572,1284,14204,-865,-24,-3
374.95,1524,1252,14196,-727,25,-23
374.96,1560,1316,14136,-560,52,-30
374.97,1676,1236,14260,-477,42,-22
374.98,1696,1264,14216,-335,69,-12
374.99,1576,1320,14232,-112,161,-2
375.0,1528,1340,14168,-51,135,24
375.01,1524,1400,14144,37,141,0
375.02,1652,1264,14288,197,163,-2
375.03,1580,1280,14124,346,252,-6
375.04,1608,1324,14204,428,321,-28
375.05,1540,1284,14184,477,315,-27
375.06,1536,1300,14000,504,272,-12
375.07,1440,1384,14328,705,352,-26
375.08,1408,1372,14216,791,371,-33
375.09,1448,1368,14168,878,364,-22
375.1,1392,1396,14352,948,389,-42
375.11,1480,1508,14348,848,361,-24
375.12,1452,1564,14288,839,322,-20
375.13,1516,1560,14236,832,309,-8
375.14,1588,1592,14284,813,335,-6
375.15,1548,1568,14256,794,339,-20
375.16,1468,1616,14224,859,394,-7
375.17,1580,1612,14388,848,400,-8
375.18,1448,1644,14256,854,398,-11
375.19,1584,1720,14444,848,395,-2
375.2,1536,1676,14128,825,321,7
375.21,1528,1616,14012,782,202,-15
375.22,1440,1624,14212,935,244,22
375.23,1608,1736,14304,1345,417,-19
375.24,1624,1904,14428,1596,537,-72
375.25,1524,1796,14384,1484,548,-70
375.26,1384,1960,14256,1291,439,-63
375.27,1436,1904,14248,1094,317,5
375.28,1468,1964,14220,1117,167,-16
375.29,1500,2040,14576,1105,378,15
375.3,1336,2208,13924,291,580,2
375.31,1600,1828,14016,-46,124,59
375.32,1580,1784,14952,1643,549,-90
375.33,1348,2224,14104,1932,177,-88
375.34,1468,2068,14120,805,59,11
375.35,1436,1976,14208,1347,624,-79
375.36,1372,2124,13736,740,40,69
375.37,1460,1964,13684,437,181,98
375.38,1560,1876,14448,1559,388,-63
375.39,1420,2420,14776,1983,353,-112
375.4,1496,2444,14380,1509,438,-92
375.41,1420,2552,14220,1025,426,-52
375.42,1332,2552,14164,945,469,-8
375.43,1336,2428,14296,833,455,37
375.44,1404,2380,14112,734,397,10
375.45,1380,2280,14124,668,432,-13
375.46,1340,2276,13968,599,444,-20
375.47,1452,2344,13888,652,357,-33
375.48,1408,2328,13880,898,292,-37
375.49,1440,2280,14052,1219,222,-58
375.5,1544,2544,14284,1403,237,-52
375.51,1520,2536,14240,1329,295,-77
375.52,1404,2552,14404,1258,395,-87
375.53,1336,2628,14176,1098,422,-102
375.54,1336,2620,14180,944,334,-52
375.55,1384,2568,14112,859,316,-58
375.56,1384,2636,14184,821,291,-48
375.57,1460,2672,14088,710,278,-39
375.58,1376,2744,14052,572,224,-66
375.59,1384,2756,14016,677,224,-12
375.6,1544,2684,14132,709,221,-46
375.61,1308,2664,14116,873,259,-42
375.62,1404,2864,14136,1093,318,-95
375.63,1480,2896,14140,1190,333,-112
375.64,1248,2868,14268,1330,574,-104
375.65,1300,2904,14224,1242,628,-107
375.66,1176,2924,14016,719,308,-53
375.67,1352,2852,13888,608,343,-56
375.68,1296,2832,14032,797,193,-97
375.69,1384,2924,14320,1066,209,-107
375.7,1452,2992,14148,1045,189,-94
375.71,1400,3060,14060,788,211,-64
375.72,1260,3004,14032,760,235,-92
375.73,1388,3096,14056,742,128,-44
375.74,1428,3128,14124,671,198,-79
375.75,1464,3176,14048,679,223,-56
375.76,1400,3060,14124,775,263,-48
375.77,1412,3140,14224,845,271,-97
375.78,1384,3064,14264,780,252,-109
375.79,1364,3028,13908,706,292,-83
375.8,1448,2996,14032,670,269,-74
375.81,1320,3132,14076,758,284,-78
375.82,1324,3172,14108,714,279,-57
375.83,1408,3200,13904,635,296,-74
375.84,1352,3088,13780,681,354,-50
375.85,1372,3204,14192,809,348,-88
375.86,1232,3216,13968,808,319,-103
375.87,1240,3292,14100,764,277,-75
375.88,1316,3288,13996,646,260,-77
375.89,1436,3332,14004,631,236,-53
375.9,1296,3324,14052,662,252,-39
375.91,1316,3436,13900,617,271,-55
375.92,1364,3460,14000,636,302,-61
375.93,1280,3372,13936,661,233,-84
375.94,1292,3464,13904,684,307,-85
375.95,1324,3504,14072,724,307,-78
375.96,1284,3592,14064,789,246,-30
375.97,1336,3532,13912,649,300,-84
375.98,1280,3452,14040,711,295,-83
375.99,1236,3556,14052,658,257,-73
376.0,1332,3576,13980,675,232,-17
376.01,1320,3608,14036,673,244,35
376.02,1280,3564,14056,697,329,-5
376.03,1376,3540,13900,507,337,-46
376.04,1272,3548,13988,587,288,-136
376.05,1280,3656,13936,694,310,-163
376.06,1256,3692,14032,755,213,-139
376.07,1280,3660,13940,687,257,-71
376.08,1280,3712,13928,615,259,-104
376.09,1348,3708,13880,580,271,-53
376.1,1352,3652,13932,563,285,-97
376.11,1368,3696,13908,551,332,-102
376.12,1232,3808,13900,523,265,-79
376.13,1216,3760,13920,519,283,-66
376.14,1216,3796,14032,519,235,-60
376.15,1272,3812,14008,451,269,-80
376.16,1260,3832,13888,476,259,-101
376.17,1220,3840,13980,451,236,-71
376.18,1288,3884,13944,392,246,-79
376.19,1336,3812,13896,395,254,-72
376.2,1332,3924,14008,416,268,-73
376.21,1284,3864,14060,470,279,-64
376.22,1308,3968,13964,511,325,-74
376.23,1256,3896,13996,470,303,-102
376.24,1296,4032,13832,361,309,-86
376.25,1204,4016,13760,300,261,-51
376.26,1324,3920,13744,121,244,-59
376.27,1288,3996,13944,202,202,-50
376.28,1240,3968,14024,367,308,-86
376.29,1348,3932,14072,452,345,-113
376.3,1300,3996,14120,326,380,-81
376.31,1180,3976,13896,140,361,-92
376.32,1244,3904,13736,20,222,-71
376.33,1304,3940,14152,57,176,-43
376.34,1168,3988,14096,-79,169,-17
376.35,1208,3968,13400,-855,341,83
376.36,1348,3836,13804,-707,76,83
376.37,1580,3936,14432,513,544,-113
376.38,1172,4308,14080,231,193,-116
376.39,1200,4200,13980,-422,116,-23
376.4,1204,4032,13712,-279,293,-12
376.41,1088,4004,13412,-898,43,107
376.42,1368,3628,13556,-924,-53,141
376.43,1372,3776,13876,-217,-39,78
376.44,1280,3916,14224,-91,-50,17
376.45,1200,3964,14152,-256,-29,-2
376.46,1116,4100,14020,-504,37,28
376.47,1204,4016,14028,-580,81,49
376.48,1244,4036,13936,-469,84,40
376.49,1428,3988,13928,-376,177,15
376.5,1352,3988,13828,-349,291,11
376.51,1200,3964,13864,-499,305,-19
376.52,1216,3888,13748,-525,304,-5
376.53,1264,3864,13996,-476,231,-11
376.54,1388,3868,13976,-465,110,9
376.55,1340,3904,13924,-520,141,39
376.56,1316,3804,14124,-648,172,36
376.57,1368,3848,14008,-828,174,25
376.58,1284,3852,13984,-952,167,58
376.59,1216,3728,13924,-928,222,84
376.6,1244,3900,13968,-1005,234,78
376.61,1368,3740,13924,-1206,153,74
376.62,1248,3696,13960,-1263,126,97
376.63,1304,3748,13988,-1208,168,100
376.64,1348,3680,13972,-1201,161,89
376.65,1348,3548,13944,-1164,154,62
376.66,1320,3544,13932,-1032,114,75
376.67,1260,3660,13996,-985,189,74
376.68,1276,3652,14032,-978,200,46
376.69,1312,3696,13952,-1002,189,19
376.7,1332,3580,14244,-841,363,-16
376.71,1208,3664,13884,-992,335,41
376.72,1236,3512,13676,-1543,188,124
376.73,1248,3376,13856,-1309,156,71
376.74,1300,3396,14028,-670,162,12
376.75,1216,3556,14032,-774,85,17
376.76,1360,3484,13880,-1072,136,85
376.77,1284,3520,14044,-1140,120,106
376.78,1384,3528,14088,-1128,71,100
376.79,1372,3444,13952,-1209,63,113
376.8,1252,3352,13996,-1201,156,71
376.81,1340,3388,14096,-1142,117,67
376.82,1388,3384,13888,-1125,167,48
376.83,1396,3308,13952,-1278,243,48
376.84,1292,3208,14068,-1341,208,65
376.85,1284,3192,14180,-1355,133,52
376.86,1344,3220,14024,-1295,169,96
376.87,1272,3160,14080,-1267,182,90
376.88,1288,3108,13940,-1434,152,66
376.89,1312,3096,14032,-1417,137,80
376.9,1248,3116,14052,-1268,120,98
376.91,1372,3092,14160,-1294,154,60
376.92,1320,3104,14088,-1370,183,49
376.93,1304,3140,13916,-1580,174,96
376.94,1400,3036,14076,-1738,150,123
376.95,1404,2872,14080,-1728,143,127
376.96,1328,2996,14100,-1625,144,114
376.97,1356,2860,14060,-1659,66,114
376.98,1348,2912,14132,-1558,60,131
376.99,1300,2788,14144,-1522,130,97
377.0,1256,2768,14208,-1526,136,98
377.01,1380,2724,14220,-1520,124,98
377.02,1380,2696,14016,-1590,79,89
377.03,1340,2680,14120,-1658,47,82
377.04,1356,2652,14060,-1655,38,94
377.05,1244,2684,14316,-1528,21,47
377.06,1316,2648,14292,-1543,93,32
377.07,1428,2548,14088,-1633,156,18
377.08,1300,2468,14160,-1656,72,38
377.09,1268,2472,14228,-1664,39,62
377.1,1456,2420,14120,-1630,46,45
377.11,1388,2496,14124,-1628,39,8
377.12,1368,2376,14352,-1657,58,28
377.13,1376,2384,14280,-1701,89,9
377.14,1388,2340,14176,-1648,86,-18
377.15,1352,2356,14292,-1666,181,-44
377.16,1328,2204,14292,-1728,56,-27
377.17,1380,2192,14264,-1709,39,-10
377.18,1356,2204,14032,-1843,-16,-5
377.19,1480,2164,14116,-1942,-71,32
377.2,1476,1964,14072,-1947,-127,3
377.21,1408,1984,14220,-1707,-66,-2
377.22,1388,2020,14336,-1456,63,-44
377.23,1452,2096,14248,-1333,-25,-28
377.24,1432,1948,14376,-1378,-53,6
377.25,1444,1896,14008,-1482,-66,15
377.26,1416,1872,14172,-1381,-170,0
377.27,1508,1808,14488,-1277,-38,20
377.28,1464,2036,14176,-1734,268,-38
377.29,1420,1964,13696,-2621,-7,-23
377.3,1496,1604,14276,-2403,-184,31
377.31,1776,1640,14688,-863,55,-104
377.32,1436,1896,14004,-1421,-433,-95
377.33,1632,1684,14092,-2043,-341,-23
377.34,1452,1500,14128,-1488,-85,-72
377.35,1428,1652,13824,-2181,-415,21
377.36,1636,1500,14092,-2148,-215,59
377.37,1632,1520,14736,-1257,113,-40
377.38,1632,1596,14908,-949,204,-112
377.39,1560,1680,14668,-1264,228,-184
377.4,1368,1676,14208,-1815,130,-131
377.41,1436,1480,14368,-2026,-52,-58
377.42,1504,1340,14356,-2069,-282,-39
377.43,1496,1348,14148,-1932,-224,-3
377.44,1620,1276,14168,-1869,-239,-8
377.45,1588,1064,14076,-1585,-166,-6
377.46,1608,1072,13972,-1103,-116,2
377.47,1644,1116,14152,-814,-197,4
377.48,1648,1128,14416,-580,-159,1
377.49,1604,1080,14320,-507,-133,-28
377.5,1568,1180,14344,-595,-67,-23
377.51,1684,1180,14328,-716,-52,-40
377.52,1776,1064,14424,-765,21,-19
377.53,1752,1204,14180,-800,-29,-23
377.54,1660,1140,14196,-906,1,-48
377.55,1632,1108,14248,-996,33,-55
377.56,1648,1084,14284,-1029,-32,-23
377.57,1524,1100,14356,-1059,-92,-13
377.58,1660,1084,14068,-1000,-54,-27
377.59,1660,964,14448,-918,-44,-20
377.6,1540,960,14184,-694,7,-42
377.61,1604,1088,14396,-508,41,-47
377.62,1740,1016,14376,-561,9,-33
377.63,1640,1016,14324,-340,77,17
377.64,1660,1060,13852,-569,-197,65
377.65,1736,864,14048,-765,-145,115
377.66,1812,748,14392,-225,-60,42
377.67,1756,904,14292,-38,-59,50
377.68,1820,840,14212,65,120,-13
377.69,1788,944,14044,221,96,44
377.7,1520,1032,14048,384,76,70
377.71,1824,944,14056,579,178,12
377.72,1804,940,14196,833,307,6
377.73,1624,912,14276,1004,523,-29
377.74,1636,976,14360,1088,672,-43
377.75,1608,1064,14468,1078,730,-88
377.76,1632,1160,14440,1023,670,-86
377.77,1632,1112,14280,936,576,-78
377.78,1672,1212,14304,988,523,-82
377.79,1672,1172,14320,919,546,-76
377.8,1672,1164,14296,943,411,-56
377.81,1604,1272,14336,897,390,-21
377.82,1560,1224,14024,851,422,-10
377.83,1592,1232,14300,991,376,-7
377.84,1656,1240,14220,1048,375,25
377.85,1584,1296,14368,1104,413,-21
377.86,1600,1352,14256,1017,412,26
377.87,1544,1332,14368,907,423,23
377.88,1668,1380,14300,864,413,7
377.89,1660,1480,14300,848,384,43
377.9,1564,1388,14148,904,428,3
377.91,1700,1388,14360,1025,428,-35
377.92,1720,1524,14276,1041,469,-25
377.93,1648,1520,14232,924,473,-14
377.94,1516,1592,14168,829,442,-15
377.95,1564,1584,14332,826,430,-18
377.96,1596,1664,14352,761,395,-29
377.97,1576,1624,14340,715,400,-33
377.98,1436,1532,14308,747,320,-29
377.99,1520,1668,14292,772,334,-28
378.0,1520,1708,14296,791,403,-7
378.01,1608,1624,14188,814,379,7
378.02,1468,1680,14256,805,329,-7
378.03,1552,1708,14140,846,359,-38
378.04,1604,1780,14328,947,374,-25
378.05,1664,1748,14344,936,457,-14
378.06,1484,1788,14364,780,369,-36
378.07,1544,1840,14100,593,271,-28
378.08,1640,1844,14036,552,201,-11
378.09,1668,1800,14400,744,323,-7
378.1,1552,1900,14408,1075,427,-28
378.11,1632,1908,14376,1173,470,-61
378.12,1456,2000,14400,1171,478,-70
378.13,1464,1960,14152,949,395,-12
378.14,1420,1932,14012,919,238,5
378.15,1468,2044,14404,1090,262,-11
378.16,1564,2240,14344,674,567,37
378.17,1424,1984,13568,-232,172,50
378.18,1740,1844,14572,558,412,-25
378.19,1704,2012,14840,2129,508,-186
378.2,1456,2396,13836,659,-90,3
378.21,1596,2080,14224,447,225,-23
378.22,1508,2036,14164,1022,521,-66
378.23,1432,2124,13532,-103,-93,125
378.24,1564,1916,13912,289,231,93
378.25,1636,1980,14388,1316,318,-30
378.26,1492,2388,14728,1748,328,-76
378.27,1440,2432,14524,1343,479,-99
378.28,1408,2476,14360,972,524,-41
378.29,1444,2436,14232,972,459,-22
378.3,1380,2548,14360,819,452,14
378.31,1420,2400,14212,734,395,-11
378.32,1496,2468,14084,790,392,-52
378.33,1348,2424,13884,928,368,-50
378.34,1460,2364,13864,1132,355,-38
378.35,1408,2324,14036,1343,280,-43
378.36,1480,2372,14120,1448,244,-45
378.37,1508,2452,14340,1565,292,-49
378.38,1492,2528,14324,1484,365,-79
378.39,1372,2520,14360,1358,438,-138
378.4,1396,2576,14204,1229,422,-105
378.41,1404,2624,14156,1101,351,-89
378.42,1516,2708,14012,1123,320,-79
378.43,1544,2720,13976,1081,226,-84
378.44,1472,2664,14108,1030,279,-85
378.45,1444,2732,14080,1097,306,-107
378.46,1448,2756,14060,1095,252,-63
378.47,1420,2764,14052,1158,290,-79
378.48,1412,2744,14024,1170,357,-74
378.49,1352,2892,14156,1279,371,-109
378.5,1464,2984,14168,1302,380,-143
378.51,1368,2992,14244,1244,390,-109
378.52,1364,2928,14232,1339,695,-129
378.53,1316,2992,13872,904,352,-70
378.54,1312,2992,13656,454,185,-25
378.55,1532,2920,14008,904,265,-83
378.56,1416,3072,14176,1380,204,-113
378.57,1344,3152,14124,1181,244,-98
378.58,1440,3204,14028,839,269,-64
378.59,1320,2964,14044,809,234,-51
378.6,1348,3260,14112,868,99,-20
378.61,1376,3196,13972,867,127,-50
378.62,1444,3292,14120,751,216,-67
378.63,1392,3272,14196,860,260,-77
378.64,1360,3232,14164,901,230,-95
378.65,1440,3380,14076,831,279,-66
378.66,1380,3236,13816,757,312,-100
378.67,1400,3264,14100,744,287,-54
378.68,1432,3252,14004,812,290,-96
378.69,1408,3324,13964,848,335,-94
378.7,1320,3268,13952,691,281,-60
378.71,1420,3384,13812,655,279,-89
378.72,1288,3268,14072,731,254,-94
378.73,1420,3444,14148,809,324,-93
378.74,1300,3468,13976,723,316,-98
378.75,1424,3484,13936,642,322,-91
378.76,1372,3412,14004,569,258,-47
378.77,1356,3392,13888,538,320,-51
378.78,1268,3476,14028,534,302,-59
378.79,1252,3496,14032,591,236,-52
378.8,1300,3572,14000,552,324,-61
378.81,1344,3520,13996,587,276,-57
378.82,1280,3580,13816,664,261,-64
378.83,1320,3616,14116,624,275,-61
378.84,1324,3740,14072,652,313,-47
378.85,1384,3640,14012,639,293,-63
378.86,1380,3740,13916,548,282,-56
378.87,1364,3704,13952,560,282,-35
378.88,1288,3632,13924,540,279,-49
378.89,1248,3632,13896,648,252,-61
378.9,1236,3676,13928,639,288,-82
378.91,1356,3668,14016,566,252,-96
378.92,1416,3676,14036,591,224,-56
378.93,1400,3832,13936,637,242,-81
378.94,1424,3740,13968,532,277,-46
378.95,1252,3848,13888,544,258,-43
378.96,1288,3796,13808,540,278,-38
378.97,1240,3748,13884,473,255,-81
378.98,1252,3788,13964,505,254,-48
378.99,1368,3872,13916,512,229,-80
379.0,1364,3868,14032,497,240,-95
379.01,1256,3832,13900,467,266,-78
379.02,1228,3876,14004,483,284,-73
379.03,1344,3904,13836,469,273,-68
379.04,1284,3988,13860,340,308,-71
379.05,1236,3916,14032,315,332,-57
379.06,1268,3892,13840,322,276,-67
379.07,1260,3892,14076,306,297,-67
379.08,1256,4012,13896,264,290,-60
379.09,1348,3976,13772,249,256,-54
379.1,1428,3964,13788,302,252,-85
379.11,1336,3920,13896,296,276,-52
379.12,1340,3988,13860,335,309,-66
379.13,1296,4000,13920,174,292,-69
379.14,1324,3936,13700,83,269,-17
379.15,1292,4076,13688,-39,134,-21
379.16,1372,3968,13928,51,222,-34
379.17,1304,4012,14024,242,325,-81
379.18,1268,4108,13964,333,393,-65
379.19,1300,4080,13840,164,370,-107
379.2,1224,4068,13800,-31,337,-68
379.21,1200,3988,13768,-119,259,-61
379.22,1256,3948,14152,-63,160,-19
379.23,1248,4032,13948,-363,222,17
379.24,1016,3980,13312,-1091,156,122
379.25,1408,3744,13984,-575,150,51
379.26,1364,4124,14456,598,568,-129
379.27,1032,4200,14020,-130,48,-58
379.28,1268,3944,13852,-419,149,14
379.29,1204,3964,13672,-514,189,56
379.3,1136,3968,13408,-1166,-67,143
379.31,1252,3716,13664,-718,-60,142
379.32,1356,3928,14144,-157,-123,62
379.33,1392,4012,14252,-173,-108,13
379.34,1244,4048,14096,-428,-16,13
379.35,1216,3936,14060,-629,50,59
379.36,1200,3996,13924,-529,75,52
379.37,1196,3964,14032,-425,97,63
379.38,1316,4036,13884,-393,220,46
379.39,1376,4048,13812,-400,271,-13
379.4,1332,3988,13764,-393,203,15
379.41,1308,3928,13736,-250,139,6
379.42,1364,3924,13860,-157,158,5
379.43,1324,3980,13980,-216,185,23
379.44,1324,4012,13972,-316,190,-2
379.45,1280,3916,13884,-443,209,6
379.46,1276,3904,14064,-556,223,8
379.47,1252,3836,14024,-691,185,14
379.48,1244,3840,14012,-804,177,34
379.49,1292,3824,13940,-906,160,38
379.5,1148,3832,14052,-935,186,78
379.51,1224,3836,13952,-967,182,80
379.52,1404,3696,13824,-1003,132,63
379.53,1328,3812,13832,-997,113,55
379.54,1408,3700,13864,-952,153,69
379.55,1424,3696,13940,-835,195,35
379.56,1392,3724,13924,-826,258,42
379.57,1284,3776,13988,-892,251,23
379.58,1300,3768,14236,-842,295,15
379.59,1256,3736,14024,-899,426,27
379.6,1220,3688,13652,-1722,147,120
379.61,1272,3436,13620,-1640,123,107
379.62,1328,3508,14232,-1012,55,73
379.63,1240,3632,14032,-913,-19,76
379.64,1360,3508,13916,-1156,100,95
379.65,1376,3592,13956,-1270,78,101
379.66,1248,3608,14008,-1213,124,83
379.67,1244,3492,14184,-1185,79,96
379.68,1388,3368,14040,-1272,86,62
379.69,1344,3404,14088,-1237,149,84
379.7,1500,3460,13984,-1229,109,86
379.71,1416,3476,14248,-1127,102,76
379.72,1356,3396,13952,-1210,205,76
379.73,1256,3320,13940,-1380,175,59
379.74,1304,3212,14040,-1382,172,82
379.75,1348,3228,14012,-1281,207,82
379.76,1340,3220,14172,-1352,214,75
379.77,1400,3176,13952,-1489,189,123
379.78,1244,3176,13920,-1537,118,86
379.79,1412,3088,14060,-1341,80,107
379.8,1324,3172,14080,-1256,68,122
379.81,1356,3136,14104,-1208,108,90
379.82,1412,3048,13976,-1226,82,118
379.83,1344,3132,14028,-1296,117,90
379.84,1384,2972,14088,-1287,143,99
379.85,1312,3136,14212,-1303,164,90
379.86,1352,3052,13928,-1249,117,108
379.87,1304,3016,14080,-1242,137,82
379.88,1344,2940,14016,-1227,103,84
379.89,1432,2936,13980,-1194,117,62
379.9,1332,2948,13952,-1126,136,72
379.91,1420,2928,14116,-1208,138,66
379.92,1452,2840,14156,-1269,137,80
379.93,1292,2740,14036,-1287,161,59
379.94,1432,2916,14160,-1206,108,74
379.95,1420,2760,14112,-1203,86,74
379.96,1400,2784,14080,-1168,114,65
379.97,1496,2724,14160,-1131,92,67
379.98,1336,2700,14044,-1128,77,49
379.99,1524,2688,14188,-1124,93,43
380.0,1432,2664,14156,-1074,70,39
380.01,1380,2668,14020,-1097,80,36
380.02,1408,2676,14204,-1045,53,36
380.03,1356,2628,14108,-998,80,58
380.04,1428,2560,14032,-968,104,58
380.05,1464,2588,14100,-1005,74,9
380.06,1492,2544,14260,-942,94,55
380.07,1460,2496,14240,-919,119,20
380.08,1388,2536,14172,-953,133,27
380.09,1460,2548,14172,-993,129,46
380.1,1420,2464,14112,-1003,93,38
380.11,1528,2460,14144,-993,38,56
380.12,1476,2452,14020,-925,72,19
380.13,1400,2464,14188,-873,87,55
380.14,1448,2456,14212,-888,154,51
380.15,1464,2396,14192,-882,158,12
380.16,1420,2336,14332,-914,139,14
380.17,1448,2288,14232,-801,142,3
380.18,1412,2316,14188,-717,132,6
380.19,1576,2324,14260,-707,141,5
380.2,1488,2244,14196,-707,150,25
380.21,1452,2324,14160,-742,40,46
380.22,1580,2304,13904,-789,32,49
380.23,1464,2248,14012,-541,95,-2
380.24,1584,2236,14260,-141,193,-11
380.25,1528,2244,14196,7,251,-4
380.26,1380,2400,14152,53,197,-29
380.27,1368,2176,13988,-117,87,17
380.28,1528,2192,14016,66,96,19
380.29,1504,2244,14456,328,195,-13
380.3,1404,2308,14324,79,423,-5
380.31,1320,2376,13692,-833,269,51
380.32,1600,1996,14332,-330,162,15
380.33,1592,2272,14480,1243,274,-154
380.34,1384,2508,13932,204,-188,2
380.35,1556,2084,14172,402,162,-62
380.36,1420,2348,14180,887,337,-42
380.37,1364,2392,13656,-533,-131,110
380.38,1464,2020,13864,6,132,49
380.39,1596,2220,14212,1103,255,-54
380.4,1572,2552,14644,1143,281,-93
380.41,1616,2552,14432,998,264,-81
380.42,1380,2560,14252,667,300,-20
380.43,1392,2640,14380,482,322,11
380.44,1432,2524,14188,480,247,9
380.45,1432,2468,14240,540,214,-8
380.46,1556,2472,14064,662,295,-40
380.47,1572,2400,13780,759,281,-24
380.48,1536,2384,13928,1093,270,-27
380.49,1444,2420,13996,1362,299,-94
380.5,1496,2472,14220,1564,295,-133
380.51,1588,2596,14232,1574,393,-143
380.52,1444,2708,14356,1332,382,-176
380.53,1500,2756,14144,1173,405,-142
380.54,1420,2724,14084,1029,435,-129
380.55,1500,2824,14084,1004,359,-88
380.56,1468,2764,14076,905,268,-102
380.57,1452,2736,14016,920,221,-98
380.58,1472,2836,14056,947,228,-84
380.59,1496,2860,14164,892,257,-74
380.6,1336,2780,14180,908,282,-85
380.61,1392,2840,14076,992,301,-89
380.62,1456,2860,14052,1198,303,-104
380.63,1484,3056,14212,1273,356,-144
380.64,1476,3072,14252,1286,290,-118
380.65,1284,3092,14060,1351,588,-159
380.66,1292,3080,13964,841,343,-78
380.67,1336,3036,13896,823,367,-114
380.68,1404,3128,13952,968,215,-120
380.69,1564,3100,14164,1179,232,-152
380.7,1452,3056,14180,1183,297,-154
380.71,1432,3344,14032,874,255,-94
380.72,1276,3228,14008,837,258,-101
380.73,1336,3320,14056,755,139,-75
380.74,1456,3312,13956,672,234,-86
380.75,1532,3324,14120,746,172,-104
380.76,1432,3320,14068,934,190,-98
380.77,1452,3228,14052,968,178,-110
380.78,1432,3404,14140,942,264,-129
380.79,1504,3372,14048,818,291,-97
380.8,1336,3356,14008,772,267,-81
380.81,1396,3372,14080,901,259,-51
380.82,1360,3360,14056,765,280,-93
380.83,1360,3440,13900,709,244,-45
380.84,1464,3492,13844,763,249,-118
380.85,1344,3568,14116,853,274,-96
380.86,1264,3472,14004,870,222,-122
380.87,1348,3572,13900,923,175,-72
380.88,1312,3652,13952,736,175,-32
380.89,1356,3560,14184,652,256,-58
380.9,1420,3684,14092,629,247,-64
380.91,1380,3624,13968,564,249,-52
380.92,1324,3600,14100,647,242,-66
380.93,1284,3704,14056,654,194,-84
380.94,1332,3652,14076,677,202,-61
380.95,1436,3704,13932,700,203,-55
380.96,1348,3796,14036,736,223,-87
380.97,1352,3768,13840,711,228,-73
380.98,1480,3744,13916,604,230,-63
380.99,1340,3752,14068,636,313,-78
381.0,1384,3740,14060,603,259,-90
381.01,1336,3740,13924,516,296,-95
381.02,1324,3808,13952,511,273,-80
381.03,1380,3800,14024,509,291,-88
381.04,1536,3892,14132,531,279,-103
381.05,1464,3956,14000,479,305,-66
381.06,1408,3876,13940,401,300,-109
381.07,1360,3860,13960,371,307,-84
381.08,1432,3900,13808,436,262,-71
381.09,1380,3800,13940,407,254,-70
381.1,1428,3964,13780,389,283,-82
381.11,1300,3864,13888,356,238,-88
381.12,1384,3948,13888,349,209,-72
381.13,1352,3920,13848,365,260,-73
381.14,1428,3924,13860,254,270,-43
381.15,1380,3968,13792,213,290,-67
381.16,1336,4052,13832,231,288,-72
381.17,1380,4072,13872,230,280,-64
381.18,1316,3948,13908,255,263,-52
381.19,1276,4008,13992,170,271,-60
381.2,1268,4032,13816,189,246,-79
381.21,1292,4064,13912,225,276,-75
381.22,1344,3988,13852,244,310,-69
381.23,1364,4128,14004,234,322,-55
381.24,1356,4048,13804,114,320,-69
381.25,1308,4056,13800,-102,274,-44
381.26,1356,4084,13812,-161,253,-15
381.27,1308,3988,13828,-178,245,-18
381.28,1284,4064,13984,-64,371,-76
381.29,1336,4204,14268,-64,498,-106
381.3,1300,4168,13988,-286,418,-98
381.31,1324,4144,14052,-614,330,-61
381.32,1236,4084,13772,-786,292,-50
381.33,1272,4076,14008,-863,162,-29
381.34,1332,4020,14036,-1074,95,24
381.35,1356,4088,13520,-1710,283,123
381.36,1408,3820,13648,-2007,-15,166
381.37,1552,3892,14476,-906,402,35
381.38,1324,4096,14144,-1008,70,16
381.39,1312,3860,13916,-1814,-60,120
381.4,1320,3772,13904,-1672,168,122
381.41,1152,3836,13628,-2244,-85,241
381.42,1260,3540,13340,-2551,-272,291
381.43,1416,3316,13600,-1815,-288,238
381.44,1500,3556,14208,-1159,-244,174
381.45,1400,3740,14276,-1369,-225,135
381.46,1260,3812,14176,-1740,-41,148
381.47,1236,3756,14160,-1905,74,177
381.48,1360,3688,14220,-1909,109,153
381.49,1312,3564,13992,-1800,93,151
381.5,1360,3596,13920,-1809,163,138
381.51,1336,3504,13880,-1886,230,104
381.52,1436,3352,13696,-1747,46,140
381.53,1480,3264,13856,-1479,-77,155
381.54,1520,3252,13960,-1246,1,174
381.55,1452,3276,14096,-1288,21,107
381.56,1516,3184,14068,-1279,99,95
381.57,1360,3116,14104,-1255,106,129
381.58,1384,3188,14028,-1310,183,103
381.59,1500,3116,14184,-1375,136,90
381.6,1404,3208,14096,-1451,149,87
381.61,1452,3140,14116,-1478,109,98
381.62,1520,3088,14024,-1441,115,108
381.63,1488,2972,13944,-1522,131,83
381.64,1388,2916,14192,-1538,116,139
381.65,1480,3012,14168,-1352,113,97
381.66,1412,2952,14140,-1231,172,85
381.67,1460,2892,13968,-1170,218,78
381.68,1372,2988,14152,-996,210,37
381.69,1416,2976,14140,-930,213,49
381.7,1408,2956,14036,-975,150,46
381.71,1440,2912,14140,-831,331,37
381.72,1400,2968,13916,-1275,95,131
381.73,1364,2692,13872,-1596,37,94
381.74,1488,2760,14116,-907,-38,42
381.75,1524,2788,14212,-570,-43,-4
381.76,1500,2892,14080,-974,81,29
381.77,1544,2852,14044,-1127,56,93
381.78,1404,2724,14124,-1115,43,62
381.79,1404,2788,14164,-1029,-40,64
381.8,1500,2604,14140,-1043,101,62
381.81,1488,2660,14272,-1059,68,24
381.82,1484,2724,14044,-992,82,-5
381.83,1516,2576,14188,-1045,80,27
381.84,1476,2640,14120,-1026,208,-1
381.85,1492,2628,14084,-1083,111,32
381.86,1444,2524,14104,-1141,120,23
381.87,1480,2408,14036,-1085,114,20
381.88,1512,2488,14132,-994,89,35
381.89,1452,2408,14152,-1029,9,40
381.9,1420,2420,14004,-966,34,24
381.91,1560,2428,14208,-853,39,12
381.92,1444,2432,14172,-780,-6,10
381.93,1408,2384,14060,-725,43,24
381.94,1512,2472,14152,-747,48,33
381.95,1572,2448,14156,-868,104,5
381.96,1576,2408,14116,-698,120,36
381.97,1516,2444,14064,-673,97,9
381.98,1496,2340,14112,-562,88,3
381.99,1548,2312,13860,-450,121,18
382.0,1528,2184,14072,-419,115,15
382.01,1536,2416,14140,-343,149,1
382.02,1508,2284,14280,-342,117,31
382.03,1512,2244,14208,-246,83,14
382.04,1516,2328,13980,-153,93,28
382.05,1488,2228,14148,-34,111,1
382.06,1592,2356,13932,179,171,-14
382.07,1648,2388,14108,225,209,8
382.08,1648,2464,14168,224,275,-18
382.09,1552,2396,14108,225,258,-22
382.1,1596,2432,14252,125,264,-31
382.11,1440,2348,14228,-50,217,-26
382.12,1512,2468,14276,-171,147,-9
382.13,1528,2464,14200,-298,118,-17
382.14,1576,2360,14188,-474,107,-28
382.15,1568,2360,14148,-587,72,9
382.16,1604,2304,14096,-668,64,44
382.17,1580,2336,14088,-620,55,23
382.18,1548,2296,14236,-476,71,17
382.19,1564,2212,14100,-376,133,26
382.2,1492,2304,14284,-276,139,0
382.21,1560,2280,14140,-139,147,-13
382.22,1636,2288,14264,-117,260,10
382.23,1560,2340,14256,-111,255,-46
382.24,1476,2220,14200,-179,308,-12
382.25,1568,2280,14008,-288,214,-18
382.26,1592,2244,13812,-337,146,11
382.27,1532,2304,14080,-225,182,28
382.28,1716,2192,14276,147,307,-20
382.29,1572,2440,14344,395,396,-81
382.3,1592,2476,14340,294,378,-62
382.31,1428,2432,14184,167,296,-43
382.32,1508,2272,14156,50,168,-22
382.33,1588,2284,14248,257,174,-18
382.34,1516,2428,14396,441,305,-38
382.35,1488,2548,14224,47,546,9
382.36,1440,2380,13680,-614,180,67
382.37,1636,2252,14752,435,494,-39
382.38,1624,2520,14452,1300,256,-144
382.39,1512,2620,13916,-148,-61,-6
382.4,1576,2132,14424,364,326,-92
382.41,1412,2476,13968,222,111,-21
382.42,1448,2268,13452,-891,-131,134
382.43,1656,2204,13784,175,170,47
382.44,1676,2456,14500,785,174,-28
382.45,1596,2568,14632,708,208,-89
382.46,1564,2604,14312,567,183,-58
382.47,1432,2664,14256,132,253,6
382.48,1380,2588,14252,27,230,7
382.49,1596,2544,14172,200,206,-3
382.5,1540,2592,14064,279,238,-42
382.51,1552,2524,13956,214,265,-47
382.52,1608,2612,13848,242,229,-42
382.53,1552,2452,14072,385,142,-40
382.54,1604,2476,14112,473,134,-43
382.55,1636,2516,14304,404,200,-44
382.56,1536,2464,14228,502,234,-63
382.57,1552,2544,14252,528,209,-73
382.58,1564,2736,14364,393,307,-91
382.59,1564,2556,14124,179,305,-91
382.6,1616,2656,14144,100,226,-41
382.61,1552,2524,14044,-51,181,-18
382.62,1564,2504,14116,-82,156,-24
382.63,1628,2500,14160,11,196,4
382.64,1616,2512,14172,-168,137,40
382.65,1676,2676,14176,-192,245,12
382.66,1588,2640,14128,-64,372,-5
382.67,1452,2700,14156,14,283,21
382.68,1536,2676,14136,219,273,-3
382.69,1532,2740,14352,45,294,-16
382.7,1428,2736,14468,115,424,-59
382.71,1476,2780,14004,48,457,-27
382.72,1528,2608,13932,-507,287,40
382.73,1508,2516,14024,-401,361,7
382.74,1572,2636,14092,-135,113,-20
382.75,1568,2644,14132,102,224,-83
382.76,1580,2652,14208,-76,188,-49
382.77,1404,2512,14064,-154,203,-18
382.78,1556,2696,14188,-175,131,30
382.79,1600,2612,13940,-171,134,9
382.8,1524,2516,14160,52,103,-12
382.81,1596,2700,13952,128,187,-35
382.82,1500,2652,14116,210,172,-25
382.83,1524,2604,14040,513,206,-81
382.84,1644,2536,14076,422,233,-31
382.85,1532,2524,14088,264,383,-35
382.86,1416,2552,14076,686,211,-24
382.87,1512,2588,14204,890,185,-47
382.88,1732,2636,14124,924,313,-77
382.89,1388,2848,13916,973,247,-58
382.9,1524,2800,13844,906,247,-58
382.91,1624,2740,14080,981,297,-76
382.92,1540,2744,14204,1197,321,-109
382.93,1476,2864,14144,1183,266,-91
382.94,1420,2832,14112,1133,237,-86
382.95,1456,2952,14020,1114,279,-54
382.96,1532,2980,14036,1160,235,-65
382.97,1552,2972,13948,1250,258,-42
382.98,1532,3064,14072,1258,272,-103
382.99,1484,3088,14104,1287,250,-78
383.0,1532,3088,13952,1314,267,-83
383.01,1528,3112,14108,1351,316,-121
383.02,1528,3140,13880,1399,328,-125
383.03,1508,3236,14068,1409,314,-86
383.04,1508,3144,13988,1373,274,-107
383.05,1496,3268,14004,1348,277,-95
383.06,1464,3300,13968,1339,279,-115
383.07,1420,3316,14116,1337,316,-143
383.08,1420,3328,14208,1200,331,-141
383.09,1472,3428,14064,996,305,-134
383.1,1468,3384,13908,832,216,-126
383.11,1528,3472,13996,818,201,-119
383.12,1572,3548,13984,962,262,-128
383.13,1516,3556,14196,1086,349,-171
383.14,1380,3612,14124,1000,360,-136
383.15,1452,3604,13972,785,334,-148
383.16,1448,3520,13924,614,255,-102
383.17,1512,3588,14052,710,161,-100
383.18,1448,3572,14028,734,151,-69
383.19,1392,3632,13640,-69,357,34
383.2,1652,3444,13644,-166,81,14
383.21,1668,3456,14608,1169,521,-141
383.22,1492,3916,14408,1342,470,-196
383.23,1436,3760,13788,182,79,-75
383.24,1468,3776,13980,428,381,-95
383.25,1260,3800,13584,-37,210,27
383.26,1372,3524,13460,-554,13,114
383.27,1516,3400,13448,-69,180,61
383.28,1604,3496,13836,382,51,24
383.29,1412,3708,13992,652,-107,2
383.3,1396,3780,14272,592,-13,-4
383.31,1388,3876,14132,300,76,-43
383.32,1388,3764,14108,291,140,-36
383.33,1496,3800,13980,430,175,-43
383.34,1440,3900,13968,418,292,-99
383.35,1504,3792,13864,497,359,-102
383.36,1512,3840,13844,522,310,-118
383.37,1448,3804,13840,578,269,-119
383.38,1636,3648,13792,664,208,-82
383.39,1400,3760,13824,698,149,-68
383.4,1440,3704,14008,617,228,-84
383.41,1496,3788,13852,426,227,-72
383.42,1460,3820,13940,395,245,-47
383.43,1396,3700,13828,432,190,-86
383.44,1500,3816,13972,431,258,-65
383.45,1532,3796,13984,353,255,-67
383.46,1484,3932,13876,308,277,-67
383.47,1348,3832,13900,291,281,-69
383.48,1400,3964,14000,313,283,-41
383.49,1388,3972,13736,250,264,-68
383.5,1364,3864,13900,317,256,-87
383.51,1388,3960,13960,373,263,-69
383.52,1468,3992,13908,397,312,-73
383.53,1392,4044,14004,493,271,-64
383.54,1452,4088,13772,446,204,-93
383.55,1448,4092,14256,591,436,-131
383.56,1324,4120,13664,339,445,-79
383.57,1308,4024,13604,-164,188,-21
383.58,1428,4056,13792,362,393,-90
383.59,1380,3952,14008,560,218,-101
383.6,1404,3976,13996,317,265,-91
383.61,1452,4056,13696,85,214,-52
383.62,1556,4088,13708,20,191,-27
383.63,1416,4036,13788,87,96,-11
383.64,1416,4028,13908,98,118,-32
383.65,1412,4168,14016,129,104,8
383.66,1452,4168,13876,274,36,-21
383.67,1460,4212,13800,317,12,-29
383.68,1500,4144,13944,246,215,-39
383.69,1472,4156,13976,90,289,-61
383.7,1464,4148,13876,116,252,-41
383.71,1452,4048,13764,49,192,-53
383.72,1404,4028,13892,160,217,-45
383.73,1524,4116,13928,70,208,-24
383.74,1388,4224,13780,-75,169,-19
383.75,1412,4156,13884,-94,145,-19
383.76,1392,4136,13812,-101,189,-50
383.77,1552,4052,13944,-152,253,-36
383.78,1364,4196,13728,-173,218,-60
383.79,1492,4088,13844,-219,191,-34
383.8,1384,4144,13792,-202,202,-32
383.81,1328,4132,13736,-220,242,-30
383.82,1348,4208,13780,-233,219,9
383.83,1524,4156,13820,-194,223,-8
383.84,1504,4136,13852,-241,229,-25
383.85,1412,4092,13836,-289,239,6
383.86,1384,4108,13844,-285,267,-9
383.87,1408,4192,13872,-336,254,-22
383.88,1476,4136,14060,-403,266,-12
383.89,1468,4144,13892,-449,240,1
383.9,1428,4080,13844,-554,194,7
383.91,1480,4152,13692,-625,153,24
383.92,1416,4060,13688,-742,117,57
383.93,1432,4120,13892,-791,153,66
383.94,1504,4020,13972,-684,207,37
383.95,1592,4092,14068,-503,366,-26
383.96,1376,4124,14016,-565,326,-44
383.97,1400,4020,13924,-716,299,-34
383.98,1384,4008,13864,-982,249,-9
383.99,1444,4056,13624,-1113,163,37
384.0,1488,3892,13844,-1031,101,33
384.01,1408,4044,14204,-947,-13,47
384.02,1340,4076,13764,-1577,227,144
384.03,1460,3920,13600,-1959,104,150
384.04,1624,3764,14148,-1104,340,65
384.05,1488,4016,14336,-660,343,15
384.06,1420,4012,13948,-1497,-129,131
384.07,1632,3772,13908,-1544,-37,134
384.08,1468,3836,14016,-1573,194,141
384.09,1348,3628,13452,-2398,-82,274
384.1,1384,3376,13492,-2334,-33,250
384.11,1452,3392,13912,-1562,-162,227
384.12,1548,3524,14180,-1197,-152,160
384.13,1448,3688,14196,-1283,-227,141
384.14,1340,3760,14236,-1558,-202,195
384.15,1384,3744,14192,-1714,-64,214
384.16,1460,3680,14084,-1802,58,206
384.17,1512,3528,13944,-1848,82,177
384.18,1560,3484,13848,-1779,189,163
384.19,1520,3292,13732,-1728,169,137
384.2,1364,3276,13808,-1713,146,141
384.21,1492,3180,13852,-1572,82,156
384.22,1584,3104,13892,-1403,103,132
384.23,1568,3196,14148,-1390,203,128
384.24,1540,3208,14112,-1460,134,136
384.25,1612,3080,14024,-1438,141,126
384.26,1484,3068,14092,-1426,133,134
384.27,1516,3120,14208,-1397,205,109
384.28,1468,3032,14116,-1442,128,135
384.29,1528,3116,14104,-1466,146,122
384.3,1520,3004,14036,-1465,160,130
384.31,1540,2980,14068,-1447,194,102
384.32,1560,2968,14144,-1504,232,127
384.33,1408,2848,14004,-1450,188,97
384.34,1568,2880,14076,-1355,165,98
384.35,1532,2968,14016,-1136,211,95
384.36,1576,3040,14236,-1063,192,63
384.37,1536,2944,14076,-1183,143,46
384.38,1520,2820,14352,-1033,398,27
384.39,1476,2800,13900,-1322,215,102
384.4,1536,2808,13768,-1743,64,162
384.41,1600,2712,14016,-1269,134,60
384.42,1520,2656,14160,-790,17,29
384.43,1596,2716,14192,-954,13,53
384.44,1564,2824,14120,-1240,83,81
384.45,1456,2748,14116,-1335,54,84
384.46,1524,2728,14060,-1209,49,54
384.47,1540,2736,14260,-1275,-1,73
384.48,1604,2672,14236,-1395,94,44
384.49,1596,2640,14100,-1408,56,36
384.5,1596,2492,14076,-1304,43,15
384.51,1596,2460,14180,-1258,144,-8
384.52,1576,2456,14260,-1285,167,-4
384.53,1596,2476,14076,-1468,166,2
384.54,1508,2500,14084,-1522,135,20
384.55,1520,2336,14120,-1490,26,44
384.56,1624,2344,13980,-1269,51,30
384.57,1648,2304,14080,-1272,-28,12
384.58,1544,2228,14116,-1260,45,2
384.59,1580,2296,14144,-1124,95,-5
384.6,1596,2304,14276,-1039,99,-5
384.61,1444,2204,14072,-1067,73,6
384.62,1584,2260,14196,-1145,64,18
384.63,1660,2156,14184,-1215,91,16
384.64,1620,2172,14236,-1145,120,-27
384.65,1616,2212,14164,-1145,150,-22
384.66,1656,2264,14116,-1190,147,-37
384.67,1584,2264,14056,-1202,142,-13
384.68,1552,2116,14076,-1165,140,-8
384.69,1552,2124,14152,-1101,95,-36
384.7,1580,2084,14200,-1019,76,-42
384.71,1576,2148,14164,-1018,103,-33
384.72,1628,2100,14132,-1027,44,-18
384.73,1628,1992,14184,-1002,61,4
384.74,1672,1988,14120,-935,109,-29
384.75,1652,1956,14148,-963,116,-37
384.76,1676,2080,14172,-865,144,-30
384.77,1608,1936,14192,-854,160,-48
384.78,1660,1988,14124,-879,148,-26
384.79,1708,1912,14060,-908,50,-44
384.8,1632,1880,14100,-804,108,-29
384.81,1748,1864,14264,-736,97,-22
384.82,1632,1920,14288,-647,103,-34
384.83,1600,1864,14244,-631,161,-17
384.84,1624,1908,14244,-653,140,-34
384.85,1688,1732,14212,-621,149,-11
384.86,1612,1732,14148,-525,147,-23
384.87,1696,1860,14268,-528,168,-8
384.88,1532,1840,14228,-461,121,3
384.89,1632,1744,14100,-411,93,0
384.9,1612,1756,14088,-270,90,23
384.91,1704,1700,14020,-174,110,14
384.92,1752,1768,14112,0,155,10
384.93,1700,1824,14156,117,199,1
384.94,1668,1796,14068,243,199,16
384.95,1684,1752,14284,359,211,39
384.96,1692,1920,14128,473,280,9
384.97,1704,1844,14112,556,301,-11
384.98,1632,1752,14252,577,297,-3
384.99,1616,1956,14260,667,304,-19
385.0,1708,1928,14176,698,310,-12
385.01,1600,1948,14216,730,337,-68
385.02,1600,1988,14168,730,340,-23
385.03,1664,1976,14220,675,390,-39
385.04,1672,2032,14292,657,376,-39
385.05,1592,2092,14120,614,341,-35
385.06,1600,1984,14104,451,273,-15
385.07,1632,2008,13924,404,163,-11
385.08,1532,2044,14012,531,168,20
385.09,1648,1996,14372,850,253,-30
385.1,1672,2160,14384,1094,354,-60
385.11,1620,2104,14340,1116,368,-91
385.12,1544,2156,14096,1117,340,-79
385.13,1620,2224,13996,871,250,-51
385.14,1600,2096,14132,842,164,-19
385.15,1680,2168,14456,1084,274,-39
385.16,1600,2256,14256,862,599,-36
385.17,1584,2408,13428,-321,364,44
385.18,1668,2040,14304,-43,252,41
385.19,1828,2168,14608,1702,425,-137
385.2,1520,2416,14048,1112,-63,-30
385.21,1680,2304,14280,752,272,-61
385.22,1584,2228,14104,1021,488,-46
385.23,1388,2384,13560,309,-56,78
385.24,1496,2228,13912,636,177,50
385.25,1660,2212,14360,1662,256,-73
385.26,1712,2528,14584,1767,219,-111
385.27,1580,2728,14412,1318,262,-76
385.28,1552,2616,14468,983,276,-17
385.29,1504,2664,14328,839,336,-37
385.3,1528,2684,14168,755,348,-2
385.31,1512,2612,14028,748,361,-31
385.32,1504,2664,14024,881,347,-56
385.33,1484,2628,13836,1086,316,-132
385.34,1580,2628,13944,1210,280,-145
385.35,1572,2636,14164,1423,246,-152
385.36,1768,2628,14112,1556,263,-163
385.37,1636,2676,14256,1490,271,-190
385.38,1660,2748,14284,1481,307,-177
385.39,1580,2772,14152,1262,351,-199
385.4,1568,2868,14176,1167,293,-135
385.41,1620,2896,14196,1043,257,-148
385.42,1596,2916,14012,840,234,-98
385.43,1576,2864,14032,869,192,-109
385.44,1664,3000,14004,845,160,-87
385.45,1556,2996,14116,773,169,-74
385.46,1580,2952,13988,817,149,-68
385.47,1616,2956,14088,922,257,-99
385.48,1532,3048,13964,1106,287,-76
385.49,1592,3132,14152,1249,269,-138
385.5,1568,3116,14260,1265,197,-118
385.51,1496,3188,14268,1334,536,-139
385.52,1500,3304,13956,1017,383,-76
385.53,1620,3088,13756,834,357,-84
385.54,1648,3188,14116,1070,384,-108
385.55,1548,3288,13844,916,152,-93
385.56,1552,3204,13952,1014,223,-110
385.57,1560,3364,14196,1132,190,-110
385.58,1540,3248,14160,851,134,-63
385.59,1560,3376,14080,910,165,-65
385.6,1560,3408,13936,806,108,-44
385.61,1552,3344,13848,804,197,-88
385.62,1440,3416,13956,970,150,-103
385.63,1568,3528,13928,1106,199,-127
385.64,1448,3508,14040,1132,243,-131
385.65,1464,3448,14032,985,282,-117
385.66,1600,3456,14048,824,278,-113
385.67,1588,3460,13924,678,265,-77
385.68,1600,3532,13928,663,236,-91
385.69,1572,3588,13792,523,205,-75
385.7,1504,3436,13948,542,192,-67
385.71,1564,3544,13900,684,179,-77
385.72,1484,3560,14004,753,238,-52
385.73,1604,3544,13968,737,257,-72
385.74,1436,3680,14000,756,223,-85
385.75,1420,3688,13836,642,200,-92
385.76,1572,3512,13900,564,250,-63
385.77,1596,3728,13900,518,211,-83
385.78,1524,3708,13976,532,237,-78
385.79,1564,3748,13828,511,270,-90
385.8,1636,3648,13808,490,215,-70
385.81,1456,3732,13868,476,258,-63
385.82,1520,3760,13864,489,212,-67
385.83,1568,3800,14188,470,275,-94
385.84,1548,3816,13964,495,243,-54
385.85,1516,3832,13880,447,278,-64
385.86,1560,3844,13940,377,276,-71
385.87,1528,3780,13952,394,214,-61
385.88,1532,3748,13980,354,249,-87
385.89,1500,3872,14000,392,222,-66
385.9,1564,3872,13940,376,242,-87
385.91,1552,3852,13836,365,246,-77
385.92,1616,3892,13880,358,251,-86
385.93,1656,3848,13844,341,231,-77
385.94,1620,3936,13860,293,230,-69
385.95,1484,3824,13812,308,253,-63
385.96,1432,3972,13928,300,258,-84
385.97,1532,3944,13708,266,286,-76
385.98,1476,3968,14048,261,308,-75
385.99,1496,3888,13880,213,277,-91
386.0,1592,3968,13856,218,232,-67
386.01,1440,3988,13868,205,242,-44
386.02,1468,3948,13892,181,256,-69
386.03,1464,3972,13940,195,245,-35
386.04,1484,4028,13928,182,254,-60
386.05,1640,4068,13848,147,268,-41
386.06,1432,4020,13896,184,250,-44
386.07,1464,4108,13860,128,288,-54
386.08,1512,4004,13792,111,315,-33
386.09,1604,4064,13812,106,285,-58
386.1,1508,4020,13864,147,268,-50
386.11,1440,4064,13820,203,279,-76
386.12,1560,4020,13896,220,297,-77
386.13,1560,4112,13892,99,300,-54
386.14,1492,4056,13728,-33,266,-22
386.15,1460,3984,13736,-109,177,-6
386.16,1448,3996,13788,-33,245,-11
386.17,1560,4000,13936,153,400,-96
386.18,1432,4012,14120,201,370,-90
386.19,1384,4140,14028,63,345,-107
386.2,1312,4080,13732,-172,313,-50
386.21,1520,4000,13868,-269,184,-40
386.22,1532,4008,13888,-181,105,-12
386.23,1452,4100,13776,-435,231,57
386.24,1420,3928,13384,-1117,75,123
386.25,1728,3840,14072,-244,343,12
386.26,1696,4160,14476,630,503,-171
386.27,1332,4144,13952,-504,8,-16
386.28,1544,3988,13824,-492,247,26
386.29,1280,4056,13536,-1042,48,115
386.3,1396,3836,13488,-1129,-1,141
386.31,1552,3828,13768,-552,-101,87
386.32,1648,3960,14016,-293,-148,36
386.33,1388,4076,14104,-466,-203,47
386.34,1436,4148,14064,-750,-254,93
386.35,1356,4076,13984,-880,-154,133
386.36,1388,4016,13876,-836,-25,108
386.37,1508,4000,13988,-747,110,50
386.38,1492,3984,13936,-671,153,33
386.39,1508,3980,13888,-805,176,54
386.4,1508,3864,13744,-1021,95,72
386.41,1588,3852,13828,-943,128,86
386.42,1652,3904,13996,-1005,103,111
386.43,1540,3848,14020,-1078,82,108
386.44,1476,3896,13952,-1097,95,106
386.45,1640,3800,14184,-1175,124,106
386.46,1616,3728,13948,-1379,158,107
386.47,1464,3588,14064,-1529,196,130
386.48,1392,3616,13988,-1585,175,126
386.49,1560,3540,13936,-1484,145,172
386.5,1576,3488,13988,-1447,169,182
386.51,1616,3624,13988,-1435,159,152
386.52,1536,3520,13804,-1435,241,105
386.53,1472,3448,14000,-1352,251,76
386.54,1416,3552,13820,-1217,246,103
386.55,1596,3512,13908,-1205,257,82
386.56,1564,3540,13812,-1098,330,69
386.57,1588,3428,14092,-1055,306,77
386.58,1556,3468,13996,-1082,196,35
386.59,1508,3492,14020,-883,554,60
386.6,1368,3392,13648,-1367,304,111
386.61,1572,3312,13748,-1493,215,101
386.62,1512,3296,14100,-936,300,51
386.63,1508,3328,14044,-912,185,63
386.64,1556,3352,13956,-1098,193,56
386.65,1516,3344,13972,-1319,234,124
386.66,1628,3300,13980,-1445,188,93
386.67,1552,3188,14092,-1428,199,105
386.68,1676,3248,13996,-1377,107,119
386.69,1568,3100,14080,-1304,197,83
386.7,1596,3216,14148,-1288,249,58
386.71,1564,3180,14132,-1326,238,53
386.72,1476,3148,14060,-1419,295,90
386.73,1520,3052,13932,-1521,259,77
386.74,1540,3008,14220,-1605,271,103
386.75,1508,3032,14020,-1710,261,115
386.76,1568,2832,14160,-1532,181,95
386.77,1456,2892,14048,-1460,235,102
386.78,1544,3008,14232,-1522,177,99
386.79,1500,2780,14116,-1539,203,80
386.8,1576,2772,14080,-1421,137,79
386.81,1488,2732,14044,-1316,180,46
386.82,1472,2824,14196,-1397,195,77
386.83,1580,2780,14140,-1522,161,57
386.84,1644,2616,14132,-1545,193,56
386.85,1564,2648,14116,-1493,248,83
386.86,1564,2720,14120,-1409,257,39
386.87,1604,2784,14240,-1434,242,52
386.88,1580,2672,14008,-1490,172,82
386.89,1528,2644,14132,-1444,131,63
386.9,1588,2600,14072,-1429,132,58
386.91,1548,2564,14052,-1435,204,35
386.92,1576,2492,13976,-1330,151,28
386.93,1440,2520,14172,-1219,111,24
386.94,1484,2492,14196,-1251,161,24
386.95,1408,2436,14076,-1371,264,-7
386.96,1496,2396,14240,-1328,255,13
386.97,1452,2348,13996,-1348,177,-29
386.98,1628,2336,14084,-1332,207,0
386.99,1564,2312,14256,-1222,207,-18
387.0,1460,2304,14024,-1193,250,-41
387.01,1536,2260,14096,-1212,228,-62
387.02,1556,2252,14152,-1190,180,-21
387.03,1540,2224,14288,-1207,212,-41
387.04,1500,2160,14132,-1215,173,-36
387.05,1488,2228,14180,-1121,147,-39
387.06,1520,2176,14176,-1120,189,-19
387.07,1612,2044,14140,-1061,156,-33
387.08,1548,2020,14088,-1105,194,-32
387.09,1604,2060,14264,-1099,140,-58
387.1,1560,2144,14192,-1015,218,-22
387.11,1584,2140,14212,-1114,235,-40
387.12,1476,2000,14332,-1131,236,-23
387.13,1636,1996,14300,-1053,175,-36
387.14,1632,2060,14272,-1215,233,-49
387.15,1452,1928,14276,-1280,222,-33
387.16,1484,1964,14276,-1165,179,-33
387.17,1576,1956,14216,-1232,201,-47
387.18,1492,1836,14300,-1294,191,-39
387.19,1628,1928,14256,-1320,152,-67
387.2,1584,1752,14320,-1271,177,-74
387.21,1584,1916,14256,-1213,165,-36
387.22,1524,1944,14008,-1336,145,-61
387.23,1536,1740,14132,-1400,52,-32
387.24,1552,1676,14088,-1454,-60,-42
387.25,1536,1684,14244,-1207,168,-35
387.26,1664,1656,14392,-802,183,-42
387.27,1628,1720,14368,-752,226,-100
387.28,1564,1756,14368,-897,123,-61
387.29,1528,1480,14140,-942,115,-56
387.3,1528,1564,13968,-850,21,2
387.31,1708,1468,14332,-691,63,37
387.32,1620,1572,14528,-626,245,-17
387.33,1668,1624,13924,-1066,316,14
387.34,1572,1496,13636,-1565,-132,51
387.35,1712,1384,14820,-160,336,-55
387.36,1488,1600,14204,415,-27,-82
387.37,1532,1372,13932,-769,-242,68
387.38,1624,1324,14268,94,432,-10
387.39,1424,1576,13680,-172,-23,59
387.4,1508,1360,13696,-555,2,126
387.41,1720,1372,14196,561,239,85
387.42,1716,1576,14720,1036,436,-21
387.43,1548,1640,14524,897,405,-36
387.44,1428,1764,14248,498,369,9
387.45,1460,1740,14184,343,392,43
387.46,1420,1640,14232,399,320,57
387.47,1576,1584,14144,521,379,64
387.48,1544,1580,14112,571,359,-27
387.49,1524,1564,14096,577,261,26
387.5,1528,1620,14284,693,261,22
387.51,1560,1636,13976,837,265,45
387.52,1568,1668,14160,1021,167,-11
387.53,1572,1700,14300,1155,191,36
387.54,1560,1816,14444,1224,291,-9
387.55,1636,1740,14320,1094,272,-36
387.56,1584,1732,14304,1056,365,-44
387.57,1648,1852,14304,986,285,-35
387.58,1616,1904,14008,1042,268,-22
387.59,1644,1932,14116,1028,279,-35
387.6,1516,1844,14104,904,255,-16
387.61,1600,1852,14176,872,227,-2
387.62,1504,2000,14124,958,259,23
387.63,1512,2020,14260,1024,287,-6
387.64,1528,2084,14256,1179,271,-15
387.65,1536,2180,14312,1302,272,-49
387.66,1500,2284,14276,1272,184,-65
387.67,1528,2152,14436,1380,566,-33
387.68,1316,2200,14112,1132,482,-1
387.69,1324,2348,13956,652,254,28
387.7,1536,2176,14120,994,330,8
387.71,1464,2224,14136,1206,271,-46
387.72,1592,2288,14144,965,165,11
387.73,1548,2300,14040,1152,268,-38
387.74,1472,2356,14264,1272,174,-3
387.75,1416,2412,14092,1234,236,-21
387.76,1584,2428,14168,1084,188,-13
387.77,1732,2488,14200,1070,225,-50
387.78,1544,2480,14104,1190,227,-87
387.79,1476,2436,14192,1252,297,-92
387.8,1480,2476,14260,1251,342,-108
387.81,1560,2528,14184,1170,292,-126
387.82,1504,2612,14180,975,365,-94
387.83,1620,2484,14340,929,251,-72
387.84,1500,2468,14044,973,309,-62
387.85,1456,2528,14032,908,260,-55
387.86,1496,2568,14084,851,252,-91
387.87,1544,2624,14080,964,305,-113
387.88,1508,2724,14304,1084,268,-103
387.89,1512,2776,14296,1139,243,-88
387.9,1524,2744,14004,919,248,-78
387.91,1576,2760,14124,853,176,-49
387.92,1616,2856,14060,920,223,-36
387.93,1544,2828,14124,905,283,-61
387.94,1620,2912,14040,985,279,-41
387.95,1388,2968,14128,925,306,-68
387.96,1484,2820,14152,892,304,-91
387.97,1520,2924,14068,858,286,-72
387.98,1472,2896,14128,877,309,-99
387.99,1568,2932,14064,1006,274,-71
388.0,1596,3024,14080,942,260,-87
388.01,1400,3024,14212,813,266,-78
388.02,1460,2964,14008,838,246,-78
388.03,1592,2984,14124,855,230,-78
388.04,1480,3060,14092,893,280,-93
388.05,1460,3036,13908,858,268,-105
388.06,1552,3168,13960,883,301,-85
388.07,1516,3148,14044,893,277,-131
388.08,1548,3168,14180,944,271,-118
388.09,1476,3184,13992,908,245,-106
388.1,1380,3144,13872,820,225,-78
388.11,1516,3208,14192,854,213,-74
388.12,1484,3324,14052,887,222,-70
388.13,1380,3312,14176,806,241,-117
388.14,1424,3200,14004,748,260,-98
388.15,1484,3304,13872,743,223,-77
388.16,1476,3292,13960,698,255,-82
388.17,1404,3300,13960,744,243,-96
388.18,1456,3320,13944,721,232,-91
388.19,1432,3392,13764,717,247,-63
388.2,1476,3452,14076,783,196,-71
388.21,1368,3356,13992,836,274,-77
388.22,1500,3480,14100,836,220,-49
388.23,1584,3420,14060,858,212,-67
388.24,1548,3548,14040,875,234,-69
388.25,1436,3592,13968,774,284,-53
388.26,1544,3544,13944,589,258,-30
388.27,1408,3612,13764,518,194,-38
388.28,1604,3500,13884,573,237,-52
388.29,1436,3552,14148,821,350,-103
388.3,1408,3696,14084,922,377,-123
388.31,1492,3704,14060,782,360,-133
388.32,1372,3664,13940,555,323,-105
388.33,1256,3704,13640,363,303,-84
388.34,1460,3652,13972,436,181,-73
388.35,1368,3708,14120,364,208,-58
388.36,1276,3724,13480,-432,301,32
388.37,1636,3528,13996,-260,90,-4
388.38,1636,3592,14500,999,420,-184
388.39,1452,4000,14128,970,203,-140
388.4,1380,3824,13952,-13,215,-50
388.41,1336,3704,13880,176,396,-37
388.42,1312,3756,13572,-411,43,49
388.43,1372,3484,13552,-486,37,99
388.44,1448,3500,13764,156,-35,61
388.45,1436,3684,14132,461,-162,44
388.46,1564,3780,14336,356,-191,9
388.47,1352,3776,14052,161,-147,26
388.48,1452,3912,14064,-15,-62,4
388.49,1384,3780,13896,93,73,-18
388.5,1528,3948,14044,220,217,-23
388.51,1476,3864,13916,244,233,-53
388.52,1456,3752,13904,141,259,-72
388.53,1504,3816,13792,144,295,-45
388.54,1360,3812,13792,324,276,-46
388.55,1392,3820,13844,443,197,-42
388.56,1496,3812,13992,512,170,-37
388.57,1440,3792,14060,401,188,-31
388.58,1476,3880,13884,342,221,-65
388.59,1476,3964,13876,163,246,-40
388.6,1432,3868,13884,155,273,-48
388.61,1544,3844,13944,143,317,-37
388.62,1440,3924,13872,109,297,-32
388.63,1536,3880,13896,63,319,-54
388.64,1528,3900,13796,75,310,-31
388.65,1404,3932,13860,77,324,-54
388.66,1484,3804,13884,91,305,-35
388.67,1400,3956,13828,184,337,-63
388.68,1448,3872,13912,117,345,-44
388.69,1428,3892,13908,138,347,-70
388.7,1480,3992,13820,135,249,-55
388.71,1508,3952,14204,280,426,-101
388.72,1416,3912,13900,158,554,-94
388.73,1376,3992,13628,-426,328,-3
388.74,1424,3744,13808,-209,375,-17
388.75,1356,3796,13996,330,364,-53
388.76,1396,3896,14044,224,330,-51
388.77,1368,3960,13864,-29,308,-37
388.78,1460,4084,13828,-184,262,-29
388.79,1412,3916,13700,-198,206,-4
388.8,1408,3908,13956,-114,152,-14
388.81,1596,3860,13864,-158,181,-11
388.82,1500,4084,13988,-181,221,-34
388.83,1448,4060,13932,-194,251,-34
388.84,1464,4056,13964,-304,327,-42
388.85,1392,4052,14028,-452,347,-37
388.86,1356,3976,13872,-551,340,15
388.87,1328,3900,13956,-611,288,-7
388.88,1372,3936,14000,-607,252,-9
388.89,1396,3864,13964,-666,296,-4
388.9,1408,3864,13960,-996,271,32
388.91,1464,3784,13880,-1109,297,52
388.92,1392,3840,13900,-1183,318,62
388.93,1376,3760,13908,-1276,258,64
388.94,1388,3824,13888,-1330,222,79
388.95,1352,3736,13844,-1339,144,120
388.96,1432,3712,13908,-1255,204,77
388.97,1444,3668,14020,-1229,246,93
388.98,1320,3756,14060,-1300,315,68
388.99,1372,3692,13924,-1417,306,88
389.0,1432,3624,13880,-1448,268,85
389.01,1480,3692,13784,-1416,282,86
389.02,1384,3540,14044,-1471,359,68
389.03,1308,3544,13996,-1471,384,43
389.04,1420,3536,14012,-1555,333,89
389.05,1360,3436,13960,-1599,272,112
389.06,1320,3508,13828,-1600,215,128
389.07,1356,3460,14000,-1561,234,145
389.08,1244,3468,13976,-1542,173,121
389.09,1412,3396,14036,-1417,220,102
389.1,1368,3316,14044,-1373,285,90
389.11,1416,3304,14016,-1412,300,74
389.12,1352,3300,14204,-1421,324,79
389.13,1420,3280,14020,-1483,294,105
389.14,1508,3260,13932,-1498,281,63
389.15,1480,3188,14064,-1437,228,94
389.16,1420,3152,14072,-1462,218,88
389.17,1368,3168,13936,-1511,227,134
389.18,1344,3188,14152,-1568,238,93
389.19,1384,3020,14072,-1519,189,70
389.2,1288,3016,14188,-1516,186,98
389.21,1336,3052,14164,-1460,213,67
389.22,1408,3028,14112,-1457,253,89
389.23,1360,2936,14204,-1504,218,76
389.24,1408,2988,13964,-1342,136,88
389.25,1456,2892,14184,-1336,218,78
389.26,1420,2960,14096,-1339,159,77
389.27,1360,2868,13992,-1346,199,84
389.28,1352,2808,14196,-1337,246,71
389.29,1372,2712,14244,-1374,205,62
389.3,1264,2816,14092,-1318,185,49
389.31,1264,2696,13976,-1303,219,67
389.32,1448,2768,14224,-1388,239,24
389.33,1408,2708,14112,-1455,255,49
389.34,1404,2728,13984,-1562,138,25
389.35,1316,2640,14144,-1625,106,60
389.36,1484,2552,14216,-1534,128,30
389.37,1376,2548,14344,-1168,229,30
389.38,1432,2548,14328,-1072,271,-29
389.39,1344,2540,14328,-1166,237,-31
389.4,1312,2520,14208,-1322,167,9
389.41,1256,2472,14072,-1484,20,63
389.42,1460,2476,14192,-1365,-12,37
389.43,1428,2444,14368,-1420,145,57
389.44,1288,2684,13888,-2048,397,65
389.45,1556,2292,13788,-2629,-146,109
389.46,1556,2196,14632,-1481,179,-56
389.47,1396,2412,14192,-567,-59,-82
389.48,1228,2260,13864,-1731,-322,73
389.49,1484,2044,14344,-1256,293,-63
389.5,1280,2220,13816,-1227,-74,36
389.51,1452,2120,13664,-1812,-233,95
389.52,1568,1908,14128,-967,-5,45
389.53,1588,2180,14688,-257,51,-48
389.54,1404,2272,14796,-561,285,-107
389.55,1364,2280,14556,-984,207,-21
389.56,1360,2268,14348,-1335,218,3
389.57,1364,2188,14216,-1470,191,40
389.58,1460,2116,14200,-1726,201,10
389.59,1332,2020,14196,-1660,160,-16
389.6,1480,1904,14076,-1595,137,-21
389.61,1504,1824,13988,-1589,155,-26
389.62,1352,1896,13944,-1410,64,-1
389.63,1448,1708,14112,-966,-18,-12
389.64,1608,1864,14404,-705,59,-7
389.65,1396,1828,14520,-683,145,-24
389.66,1520,1804,14440,-775,245,-26
389.67,1492,1844,14432,-1017,150,-57
389.68,1444,1824,14072,-1075,170,-54
389.69,1428,1740,14232,-1161,130,-48
389.7,1608,1736,14180,-1195,74,-45
389.71,1532,1632,14276,-1157,98,-53
389.72,1548,1820,14272,-1227,101,-53
389.73,1500,1740,14300,-1385,69,-81
389.74,1472,1680,14276,-1407,63,-62
389.75,1428,1716,14264,-1297,125,-111
389.76,1464,1712,14248,-1316,87,-78
389.77,1520,1668,14512,-1139,180,-73
389.78,1408,1624,14312,-1102,100,-80
389.79,1528,1500,14492,-1129,271,-96
389.8,1376,1548,14112,-1148,136,-30
389.81,1440,1504,14184,-1446,2,-15
389.82,1596,1420,14328,-1231,-74,-13
389.83,1608,1468,14300,-1133,-128,-49
389.84,1504,1464,14392,-1048,-70,-16
389.85,1580,1484,14248,-930,12,-65
389.86,1452,1412,14352,-925,19,-63
389.87,1556,1452,14220,-1007,-47,-50
389.88,1540,1404,14416,-1185,-61,-44
389.89,1528,1436,14124,-1151,-41,-97
389.9,1584,1336,14292,-1047,-38,-61
389.91,1564,1264,14280,-955,45,-96
389.92,1524,1248,14292,-825,87,-76
389.93,1480,1248,14280,-723,122,-71
389.94,1524,1072,14052,-750,23,-27
389.95,1556,1096,14168,-645,68,-27
389.96,1596,992,14104,-443,66,-24
389.97,1608,1120,14156,-247,98,10
389.98,1580,1076,14104,-110,141,-5
389.99,1640,1180,14148,112,231,11
390.0,1608,1144,14160,341,270,16
390.01,1604,1184,14228,498,313,-4
390.02,1460,1288,14168,549,317,24
390.03,1560,1236,14072,606,281,41
390.04,1408,1320,14268,689,323,29
390.05,1448,1280,14232,838,311,36
390.06,1608,1292,14076,906,383,-4
390.07,1460,1400,14288,950,452,-11
390.08,1524,1484,14376,998,449,-16
390.09,1452,1360,14368,930,400,-11
390.1,1304,1632,14340,923,402,-22
390.11,1576,1528,14356,875,369,-9
390.12,1428,1592,14196,846,344,2
390.13,1420,1496,14216,934,296,11
390.14,1464,1492,14156,934,284,-5
390.15,1388,1552,14172,1057,280,24
390.16,1476,1496,14336,1208,317,9
390.17,1600,1484,14328,1236,360,-29
390.18,1584,1576,14260,1134,335,-30
390.19,1520,1688,14248,1095,386,-1
390.2,1364,1736,14400,1114,355,1
390.21,1548,1588,14364,1095,362,-3
390.22,1496,1704,14344,1080,344,-14
390.23,1492,1736,14284,1081,274,6
390.24,1476,1800,14120,1083,304,-1
390.25,1504,1868,14396,1035,331,-20
390.26,1476,1776,14248,1047,305,-9
390.27,1532,2064,14224,1025,291,-11
390.28,1448,1992,14240,858,321,-14
390.29,1464,1920,14096,859,274,-1
390.3,1464,1944,14272,878,292,-9
390.31,1492,2024,14284,855,353,-5
390.32,1460,1932,14212,872,293,-19
390.33,1420,2056,14120,798,207,17
390.34,1316,2064,13980,798,146,34
390.35,1428,1976,14192,1117,273,-29
390.36,1432,1996,14244,1484,343,-2
390.37,1620,2144,14424,1593,409,-56
390.38,1368,2304,14292,1419,377,-55
390.39,1356,2188,14180,1131,302,-4
390.4,1412,2104,14064,1249,146,-1
390.41,1520,2188,14352,1431,260,4
390.42,1568,2368,14252,1234,537,-16
390.43,1376,2408,13620,108,180,-4
390.44,1648,2112,14312,821,315,-3
390.45,1720,2264,14780,2360,550,-168
390.46,1400,2572,13832,941,1,-11
390.47,1512,2304,14304,717,281,-24
390.48,1276,2392,13968,960,369,-25
390.49,1364,2428,13536,83,-149,125
390.5,1472,2220,13844,386,73,88
390.51,1380,2484,14464,1585,60,-23
390.52,1436,2736,14628,1592,109,-56
390.53,1376,2788,14300,974,247,-72
390.54,1284,2820,14328,707,248,-2
390.55,1340,2712,14308,641,284,50
390.56,1404,2628,14084,618,279,-10
390.57,1456,2668,14152,681,291,-16
390.58,1432,2644,14092,663,329,-39
390.59,1396,2608,13860,663,274,-35
390.6,1472,2608,13996,897,253,-19
390.61,1544,2720,14184,1206,195,-77
390.62,1592,2724,14280,1341,203,-65
390.63,1400,2808,14328,1334,234,-83
390.64,1432,2776,14284,1201,280,-97
390.65,1476,2900,14196,1002,307,-69
390.66,1384,2908,14204,838,268,-51
390.67,1484,2924,14108,801,288,-71
390.68,1460,2908,14092,711,230,-32
390.69,1444,2932,14116,682,217,-36
390.7,1460,2808,14120,682,224,-56
390.71,1400,2980,13968,694,183,-55
390.72,1452,3004,14048,721,211,-61
390.73,1436,2912,14032,915,200,-61
390.74,1488,3000,13964,949,208,-65
390.75,1432,2988,14040,1022,246,-79
390.76,1340,3052,14084,1169,260,-73
390.77,1296,3140,14316,1174,295,-100
390.78,1316,3144,14148,1216,604,-130
390.79,1344,3184,13996,864,336,-46
390.8,1376,3148,13712,570,306,-45
390.81,1328,3120,14024,824,235,-71
390.82,1472,3256,14200,1262,230,-127
390.83,1452,3352,14240,1163,187,-85
390.84,1388,3216,14100,719,242,-27
390.85,1476,3244,14036,693,177,-44
390.86,1364,3376,14152,753,61,-43
390.87,1456,3256,14076,734,133,-53
390.88,1452,3368,13908,648,193,-76
390.89,1460,3436,14008,782,203,-97
390.9,1360,3352,14092,883,258,-97
390.91,1348,3408,13900,790,305,-63
390.92,1392,3452,14048,715,325,-55
390.93,1388,3376,14084,648,301,-80
390.94,1380,3384,14068,706,314,-108
390.95,1368,3524,14188,733,352,-125
390.96,1324,3480,13976,636,304,-85
390.97,1340,3492,13900,498,292,-79
390.98,1480,3456,13940,650,297,-71
390.99,1328,3520,13912,689,312,-106
391.0,1380,3528,13988,645,309,-102
391.01,1340,3652,13916,639,225,-65
391.02,1356,3608,13968,498,241,-60
391.03,1448,3572,13868,505,243,-62
391.04,1428,3696,13944,489,254,-50
391.05,1304,3752,13944,476,258,-59
391.06,1276,3716,13932,532,260,-28
391.07,1356,3680,14028,468,270,-70
391.08,1432,3664,13968,472,276,-81
391.09,1296,3704,13992,543,325,-55
391.1,1412,3712,14100,497,297,-86
391.11,1332,3716,14072,476,272,-75
391.12,1252,3632,13832,405,310,-61
391.13,1348,3672,14004,406,259,-44
391.14,1436,3708,13884,444,328,-76
391.15,1320,3816,13796,410,273,-69
391.16,1348,3756,13960,388,297,-78
