380.1625, 4173
380.165, 4089
380.1675, 4178
380.17, 4170
380.1725, 4191
380.175, 4133
380.1775, 4178
380.18, 4174
380.1825, 4096
380.185, 4184
380.1875, 4180
380.19, 4156
380.1925, 4152
380.195, 4171
380.1975, 4180
380.2, 4082
380.2025, 4177
380.205, 4162
380.2075, 4167
380.21, 4153
380.2125, 4186
380.215, 4174
380.2175, 4077
380.22, 4153
380.2225, 4156
380.225, 4174
380.2275, 4158
380.23, 4179
380.2325, 4151
380.235, 4046
380.2375, 4163
380.24, 4148
380.2425, 4139
380.245, 4148
380.2475, 4171
380.25, 4187
380.2525, 4083
380.255, 4183
380.2575, 4165
380.26, 4170
380.2625, 4144
380.265, 4161
380.2675, 4149
380.27, 4069
380.2725, 4150
380.275, 4154
380.2775, 4142
380.28, 4129
380.2825, 4145
380.285, 4166
380.2875, 4057
380.29, 4163
380.2925, 4164
380.295, 4146
380.2975, 4170
380.3, 4160
380.3025, 4161
380.305, 4079
380.3075, 4167
380.31, 4187
380.3125, 4176
380.315, 4143
380.3175, 4198
380.32, 4186
380.3225, 4080
380.325, 4205
380.3275, 4185
380.33, 4201
380.3325, 4178
380.335, 4168
380.3375, 4160
380.34, 4080
380.3425, 4179
380.345, 4171
380.3475, 4167
380.35, 4156
380.3525, 4189
380.355, 4148
380.3575, 4085
380.36, 4166
380.3625, 4155
380.365, 4160
380.3675, 4131
380.37, 4145
380.3725, 4157
380.375, 4060
380.3775, 4167
380.38, 4127
380.3825, 4136
380.385, 4070
380.3875, 4151
380.39, 4154
380.3925, 4089
380.395, 4162
380.3975, 4162
380.4, 4133
380.4025, 4117
380.405, 4138
380.4075, 4131
380.41, 4024
380.4125, 4113
380.415, 4132
380.4175, 4113
380.42, 4120
380.4225, 4122
380.425, 4131
380.4275, 4056
380.43, 4122
380.4325, 4120
380.435, 4117
380.4375, 4106
380.44, 4146
380.4425, 4155
380.445, 4066
380.4475, 4147
380.45, 4172
380.4525, 4176
380.455, 4137
380.4575, 4179
380.46, 4159
380.4625, 4072
380.465, 4144
380.4675, 4147
380.47, 4158
380.4725, 4134
380.475, 4169
380.4775, 4162
380.48, 4078
380.4825, 4182
380.485, 4191
380.4875, 4174
380.49, 4143
380.4925, 4156
380.495, 4179
380.4975, 4107
380.5, 4182
380.5025, 4204
380.505, 4204
380.5075, 4162
380.51, 4192
380.5125, 4196
380.515, 4089
380.5175, 4174
380.52, 4174
380.5225, 4180
380.525, 4155
380.5275, 4171
380.53, 4183
380.5325, 4098
380.535, 4186
380.5375, 4193
380.54, 4172
380.5425, 4162
380.545, 4175
380.5475, 4161
380.55, 4054
380.5525, 4156
380.555, 4147
380.5575, 4153
380.56, 4144
380.5625, 4171
380.565, 4161
380.5675, 4083
380.57, 4179
380.5725, 4130
380.575, 4114
380.5775, 4075
380.58, 4064
380.5825, 4037
380.585, 3949
380.5875, 4051
380.59, 4077
380.5925, 4111
380.595, 4115
380.5975, 4138
380.6, 4159
380.6025, 4081
380.605, 4187
380.6075, 4170
380.61, 4180
380.6125, 4175
380.615, 4226
380.6175, 4209
380.62, 4128
380.6225, 4223
380.625, 4210
380.6275, 4191
380.63, 4179
380.6325, 4190
380.635, 4199
380.6375, 4113
380.64, 4199
380.6425, 4192
380.645, 4176
380.6475, 4170
380.65, 4187
380.6525, 4179
380.655, 4091
380.6575, 4200
380.66, 4193
380.6625, 4193
380.665, 4148
380.6675, 4178
380.67, 4186
380.6725, 4083
380.675, 4173
380.6775, 4202
380.68, 4238
380.6825, 4349
380.685, 4411
380.6875, 4408
380.69, 4375
380.6925, 4492
380.695, 4450
380.6975, 4285
380.7, 4060
380.7025, 3839
380.705, 3482
380.7075, 3110
380.71, 2771
380.7125, 2271
380.715, 1830
380.7175, 1618
380.72, 1681
380.7225, 1958
380.725, 2590
380.7275, 3563
380.73, 4351
380.7325, 4800
380.735, 4936
380.7375, 4910
380.74, 4757
380.7425, 4517
380.745, 4530
380.7475, 4522
380.75, 4491
380.7525, 4462
380.755, 4504
380.7575, 4533
380.76, 4444
380.7625, 4569
380.765, 4580
380.7675, 4547
380.77, 4541
380.7725, 4541
380.775, 4502
380.7775, 4397
380.78, 4484
380.7825, 4468
380.785, 4456
380.7875, 4433
380.79, 4443
380.7925, 4443
380.795, 4338
380.7975, 4432
380.8, 4412
380.8025, 4394
380.805, 4365
380.8075, 4376
380.81, 4363
380.8125, 4265
380.815, 4384
380.8175, 4371
380.82, 4343
380.8225, 4339
380.825, 4334
380.8275, 4336
380.83, 4211
380.8325, 4294
380.835, 4273
380.8375, 4285
380.84, 4255
380.8425, 4280
380.845, 4250
380.8475, 4152
380.85, 4272
380.8525, 4243
380.855, 4243
380.8575, 4234
380.86, 4227
380.8625, 4235
380.865, 4146
380.8675, 4230
380.87, 4239
380.8725, 4229
380.875, 4205
380.8775, 4232
380.88, 4227
380.8825, 4126
380.885, 4212
380.8875, 4215
380.89, 4198
380.8925, 4203
380.895, 4228
380.8975, 4224
380.9, 4120
380.9025, 4217
380.905, 4211
380.9075, 4210
380.91, 4199
380.9125, 4195
380.915, 4209
380.9175, 4122
380.92, 4226
380.9225, 4203
380.925, 4210
380.9275, 4205
380.93, 4221
380.9325, 4226
380.935, 4147
380.9375, 4208
380.94, 4206
380.9425, 4194
380.945, 4191
380.9475, 4199
380.95, 4196
380.9525, 4112
380.955, 4201
380.9575, 4190
380.96, 4208
380.9625, 4186
380.965, 4190
380.9675, 4179
380.97, 4102
380.9725, 4205
380.975, 4184
380.9775, 4162
380.98, 4163
380.9825, 4184
380.985, 4166
380.9875, 4078
380.99, 4172
380.9925, 4151
380.995, 4134
380.9975, 4130
381.0, 4144
381.0025, 4095
381.005, 4026
381.0075, 4113
381.01, 4102
381.0125, 4083
381.015, 4067
381.0175, 4097
381.02, 4098
381.0225, 4031
381.025, 4116
381.0275, 4102
381.03, 4118
381.0325, 4114
381.035, 4136
381.0375, 4140
381.04, 4054
381.0425, 4180
381.045, 4187
381.0475, 4182
381.05, 4186
381.0525, 4226
381.055, 4223
381.0575, 4142
381.06, 4235
381.0625, 4239
381.065, 4223
381.0675, 4193
381.07, 4220
381.0725, 4238
381.075, 4159
381.0775, 4235
381.08, 4247
381.0825, 4224
381.085, 4215
381.0875, 4238
381.09, 4239
381.0925, 4150
381.095, 4228
381.0975, 4218
381.1, 4231
381.1025, 4228
381.105, 4242
381.1075, 4231
381.11, 4161
381.1125, 4223
381.115, 4212
381.1175, 4205
381.12, 4202
381.1225, 4216
381.125, 4228
381.1275, 4120
381.13, 4205
381.1325, 4190
381.135, 4197
381.1375, 4179
381.14, 4210
381.1425, 4209
381.145, 4089
381.1475, 4204
381.15, 4185
381.1525, 4175
381.155, 4185
381.1575, 4218
381.16, 4195
381.1625, 4094
381.165, 4158
381.1675, 4162
381.17, 4164
381.1725, 4172
381.175, 4191
381.1775, 4181
381.18, 4088
381.1825, 4177
381.185, 4183
381.1875, 4169
381.19, 4149
381.1925, 4190
381.195, 4174
381.1975, 4103
381.2, 4173
381.2025, 4165
381.205, 4160
381.2075, 4170
381.21, 4187
381.2125, 4190
381.215, 4083
381.2175, 4189
381.22, 4195
381.2225, 4175
381.225, 4176
381.2275, 4171
381.23, 4178
381.2325, 4085
381.235, 4186
381.2375, 4186
381.24, 4174
381.2425, 4166
381.245, 4188
381.2475, 4183
381.25, 4080
381.2525, 4180
381.255, 4208
381.2575, 4194
381.26, 4172
381.2625, 4181
381.265, 4179
381.2675, 4079
381.27, 4166
381.2725, 4173
381.275, 4170
381.2775, 4169
381.28, 4185
381.2825, 4169
381.285, 4078
381.2875, 4183
381.29, 4176
381.2925, 4184
381.295, 4157
381.2975, 4190
381.3, 4186
381.3025, 4078
381.305, 4186
381.3075, 4179
381.31, 4175
381.3125, 4139
381.315, 4151
381.3175, 4174
381.32, 4083
381.3225, 4178
381.325, 4176
381.3275, 4169
381.33, 4138
381.3325, 4169
381.335, 4168
381.3375, 4101
381.34, 4188
381.3425, 4172
381.345, 4180
381.3475, 4160
381.35, 4188
381.3525, 4196
381.355, 4124
381.3575, 4199
381.36, 4207
381.3625, 4183
381.365, 4154
381.3675, 4213
381.37, 4183
381.3725, 4154
381.375, 4209
381.3775, 4190
381.38, 4175
381.3825, 4110
381.385, 4179
381.3875, 4193
381.39, 4094
381.3925, 4200
381.395, 4185
381.3975, 4184
381.4, 4149
381.4025, 4148
381.405, 4173
381.4075, 4072
381.41, 4179
381.4125, 4181
381.415, 4186
381.4175, 4163
381.42, 4209
381.4225, 4192
381.425, 4094
381.4275, 4169
381.43, 4182
381.4325, 4158
381.435, 4144
381.4375, 4176
381.44, 4163
381.4425, 4075
381.445, 4195
381.4475, 4178
381.45, 4176
381.4525, 4154
381.455, 4186
381.4575, 4192
381.46, 4094
381.4625, 4159
381.465, 4151
381.4675, 4155
381.47, 4113
381.4725, 4159
381.475, 4143
381.4775, 4080
381.48, 4154
381.4825, 4152
381.485, 4141
381.4875, 4104
381.49, 4138
381.4925, 4146
381.495, 4052
381.4975, 4150
381.5, 4156
381.5025, 4157
381.505, 4140
381.5075, 4176
381.51, 4149
381.5125, 4059
381.515, 4149
381.5175, 4133
381.52, 4137
381.5225, 4149
381.525, 4155
381.5275, 4150
381.53, 4061
381.5325, 4157
381.535, 4162
381.5375, 4140
381.54, 4115
381.5425, 4144
381.545, 4132
381.5475, 4049
381.55, 4164
381.5525, 4179
381.555, 4150
381.5575, 4164
381.56, 4177
381.5625, 4178
381.565, 4089
381.5675, 4176
381.57, 4175
381.5725, 4190
381.575, 4165
381.5775, 4178
381.58, 4180
381.5825, 4072
381.585, 4161
381.5875, 4155
381.59, 4168
381.5925, 4155
381.595, 4184
381.5975, 4169
381.6, 4077
381.6025, 4142
381.605, 4172
381.6075, 4139
381.61, 4134
381.6125, 4170
381.615, 4140
381.6175, 4050
381.62, 4132
381.6225, 4136
381.625, 4152
381.6275, 4128
381.63, 4157
381.6325, 4143
381.635, 4075
381.6375, 4154
381.64, 4165
381.6425, 4154
381.645, 4123
381.6475, 4151
381.65, 4159
381.6525, 4063
381.655, 4160
381.6575, 4130
381.66, 4110
381.6625, 4102
381.665, 4135
381.6675, 4140
381.67, 4038
381.6725, 4128
381.675, 4129
381.6775, 4141
381.68, 4117
381.6825, 4156
381.685, 4128
381.6875, 4061
381.69, 4172
381.6925, 4167
381.695, 4130
381.6975, 4093
381.7, 4065
381.7025, 4054
381.705, 3971
381.7075, 4074
381.71, 4093
381.7125, 4088
381.715, 4087
381.7175, 4146
381.72, 4158
381.7225, 4060
381.725, 4149
381.7275, 4156
381.73, 4176
381.7325, 4176
381.735, 4197
381.7375, 4194
381.74, 4107
381.7425, 4191
381.745, 4174
381.7475, 4188
381.75, 4181
381.7525, 4205
381.755, 4186
381.7575, 4118
381.76, 4199
381.7625, 4201
381.765, 4200
381.7675, 4195
381.77, 4200
381.7725, 4194
381.775, 4118
381.7775, 4199
381.78, 4183
381.7825, 4172
381.785, 4156
381.7875, 4197
381.79, 4194
381.7925, 4117
381.795, 4214
381.7975, 4255
381.8, 4313
381.8025, 4367
381.805, 4417
381.8075, 4470
381.81, 4414
381.8125, 4465
381.815, 4333
381.8175, 4151
381.82, 3903
381.8225, 3671
381.825, 3369
381.8275, 2970
381.83, 2614
381.8325, 2113
381.835, 1856
381.8375, 1715
381.84, 1885
381.8425, 2276
381.845, 2931
381.8475, 3999
381.85, 4749
381.8525, 5043
381.855, 5109
381.8575, 5064
381.86, 4880
381.8625, 4674
381.865, 4632
381.8675, 4571
381.87, 4528
381.8725, 4472
381.875, 4488
381.8775, 4490
381.88, 4402
381.8825, 4498
381.885, 4504
381.8875, 4501
381.89, 4479
381.8925, 4478
381.895, 4467
381.8975, 4364
381.9, 4446
381.9025, 4448
381.905, 4429
381.9075, 4396
381.91, 4420
381.9125, 4394
381.915, 4281
381.9175, 4387
381.92, 4385
381.9225, 4359
381.925, 4340
381.9275, 4344
381.93, 4352
381.9325, 4272
381.935, 4355
381.9375, 4350
381.94, 4338
381.9425, 4304
381.945, 4326
381.9475, 4338
381.95, 4232
381.9525, 4308
381.955, 4300
381.9575, 4298
381.96, 4205
381.9625, 4297
381.965, 4285
381.9675, 4202
381.97, 4278
381.9725, 4265
381.975, 4275
381.9775, 4249
381.98, 4258
381.9825, 4239
381.985, 4189
381.9875, 4264
381.99, 4268
381.9925, 4235
381.995, 4227
381.9975, 4239
382.0, 4197
382.0025, 4126
382.005, 4233
382.0075, 4197
382.01, 4200
382.0125, 4178
382.015, 4216
382.0175, 4208
382.02, 4122
382.0225, 4209
382.025, 4223
382.0275, 4232
382.03, 4212
382.0325, 4230
382.035, 4235
382.0375, 4151
382.04, 4231
382.0425, 4219
382.045, 4218
382.0475, 4209
382.05, 4211
382.0525, 4200
382.055, 4124
382.0575, 4201
382.06, 4185
382.0625, 4183
382.065, 4165
382.0675, 4174
382.07, 4184
382.0725, 4101
382.075, 4175
382.0775, 4196
382.08, 4175
382.0825, 4144
382.085, 4170
382.0875, 4176
382.09, 4123
382.0925, 4131
382.095, 4146
382.0975, 4121
382.1, 4065
382.1025, 4163
382.105, 4149
382.1075, 4080
382.11, 4171
382.1125, 4174
382.115, 4160
382.1175, 4138
382.12, 4149
382.1225, 4155
382.125, 4063
382.1275, 4153
382.13, 4161
382.1325, 4129
382.135, 4131
382.1375, 4154
382.14, 4152
382.1425, 4083
382.145, 4163
382.1475, 4175
382.15, 4166
382.1525, 4152
382.155, 4197
382.1575, 4200
382.16, 4126
382.1625, 4229
382.165, 4206
382.1675, 4226
382.17, 4221
382.1725, 4264
382.175, 4264
382.1775, 4166
382.18, 4259
382.1825, 4265
382.185, 4275
382.1875, 4198
382.19, 4300
382.1925, 4282
382.195, 4219
382.1975, 4309
382.2, 4302
382.2025, 4279
382.205, 4233
382.2075, 4295
382.21, 4272
382.2125, 4172
382.215, 4255
382.2175, 4254
382.22, 4228
382.2225, 4216
382.225, 4241
382.2275, 4240
382.23, 4167
382.2325, 4243
382.235, 4242
382.2375, 4226
382.24, 4212
382.2425, 4236
382.245, 4237
382.2475, 4144
382.25, 4210
382.2525, 4179
382.255, 4194
382.2575, 4190
382.26, 4213
382.2625, 4211
382.265, 4112
382.2675, 4198
382.27, 4191
382.2725, 4189
382.275, 4170
382.2775, 4205
382.28, 4192
382.2825, 4111
382.285, 4191
382.2875, 4199
382.29, 4204
382.2925, 4182
382.295, 4212
382.2975, 4203
382.3, 4133
382.3025, 4205
382.305, 4201
382.3075, 4205
382.31, 4175
382.3125, 4162
382.315, 4174
382.3175, 4082
382.32, 4159
382.3225, 4177
382.325, 4173
382.3275, 4148
382.33, 4163
382.3325, 4165
382.335, 4097
382.3375, 4161
382.34, 4157
382.3425, 4158
382.345, 4152
382.3475, 4166
382.35, 4165
382.3525, 4085
382.355, 4187
382.3575, 4168
382.36, 4174
382.3625, 4152
382.365, 4168
382.3675, 4161
382.37, 4073
382.3725, 4165
382.375, 4175
382.3775, 4182
382.38, 4173
382.3825, 4147
382.385, 4157
382.3875, 4070
382.39, 4137
382.3925, 4155
382.395, 4139
382.3975, 4138
382.4, 4139
382.4025, 4144
382.405, 4059
382.4075, 4156
382.41, 4165
382.4125, 4159
382.415, 4137
382.4175, 4164
382.42, 4144
382.4225, 4071
382.425, 4150
382.4275, 4151
382.43, 4160
382.4325, 4139
382.435, 4160
382.4375, 4152
382.44, 4055
382.4425, 4146
382.445, 4135
382.4475, 4126
382.45, 4119
382.4525, 4148
382.455, 4162
382.4575, 4056
382.46, 4125
382.4625, 4159
382.465, 4136
382.4675, 4121
382.47, 4158
382.4725, 4149
382.475, 4076
382.4775, 4147
382.48, 4145
382.4825, 4146
382.485, 4129
382.4875, 4154
382.49, 4159
382.4925, 4072
382.495, 4142
382.4975, 4155
382.5, 4142
382.5025, 4153
382.505, 4176
382.5075, 4158
382.51, 4080
382.5125, 4165
382.515, 4178
382.5175, 4170
382.52, 4151
382.5225, 4188
382.525, 4166
382.5275, 4102
382.53, 4172
382.5325, 4188
382.535, 4161
382.5375, 4098
382.54, 4189
382.5425, 4180
382.545, 4107
382.5475, 4199
382.55, 4192
382.5525, 4190
382.555, 4187
382.5575, 4175
382.56, 4151
382.5625, 4081
382.565, 4156
382.5675, 4155
382.57, 4150
382.5725, 4121
382.575, 4180
382.5775, 4135
382.58, 4066
382.5825, 4128
382.585, 4151
382.5875, 4155
382.59, 4127
382.5925, 4158
382.595, 4152
382.5975, 4076
382.6, 4153
382.6025, 4144
382.605, 4156
382.6075, 4130
382.61, 4166
382.6125, 4162
382.615, 4081
382.6175, 4161
382.62, 4143
382.6225, 4136
382.625, 4133
382.6275, 4165
382.63, 4160
382.6325, 4074
382.635, 4168
382.6375, 4155
382.64, 4143
382.6425, 4132
382.645, 4161
382.6475, 4172
382.65, 4095
382.6525, 4170
382.655, 4175
382.6575, 4192
382.66, 4181
382.6625, 4201
382.665, 4161
382.6675, 4086
382.67, 4174
382.6725, 4182
382.675, 4148
382.6775, 4134
382.68, 4175
382.6825, 4164
382.685, 4089
382.6875, 4180
382.69, 4185
382.6925, 4181
382.695, 4172
382.6975, 4187
382.7, 4173
382.7025, 4095
382.705, 4183
382.7075, 4186
382.71, 4201
382.7125, 4154
382.715, 4188
382.7175, 4182
382.72, 4101
382.7225, 4187
382.725, 4201
382.7275, 4187
382.73, 4151
382.7325, 4150
382.735, 4112
382.7375, 4069
382.74, 4138
382.7425, 4123
382.745, 4112
382.7475, 4106
382.75, 4126
382.7525, 4127
382.755, 4051
382.7575, 4139
382.76, 4142
382.7625, 4132
382.765, 4114
382.7675, 4150
382.77, 4158
382.7725, 4081
382.775, 4192
382.7775, 4177
382.78, 4182
382.7825, 4144
382.785, 4146
382.7875, 4160
382.79, 4061
382.7925, 4167
382.795, 4166
382.7975, 4154
382.8, 4126
382.8025, 4155
382.805, 4146
382.8075, 4135
382.81, 4176
382.8125, 4178
382.815, 4156
382.8175, 4091
382.82, 4175
382.8225, 4164
382.825, 4071
382.8275, 4179
382.83, 4206
382.8325, 4208
382.835, 4205
382.8375, 4322
382.84, 4403
382.8425, 4357
382.845, 4464
382.8475, 4478
382.85, 4525
382.8525, 4365
382.855, 4221
382.8575, 3975
382.86, 3614
382.8625, 3376
382.865, 2992
382.8675, 2565
382.87, 2019
382.8725, 1715
382.875, 1625
382.8775, 1666
382.88, 2210
382.8825, 3061
382.885, 3967
382.8875, 4610
382.89, 4965
382.8925, 4997
382.895, 4808
382.8975, 4721
382.9, 4614
382.9025, 4567
382.905, 4538
382.9075, 4546
382.91, 4508
382.9125, 4422
382.915, 4503
382.9175, 4515
382.92, 4499
382.9225, 4507
382.925, 4510
382.9275, 4500
382.93, 4430
382.9325, 4486
382.935, 4473
382.9375, 4456
382.94, 4434
382.9425, 4434
382.945, 4430
382.9475, 4342
382.95, 4423
382.9525, 4425
382.955, 4392
382.9575, 4356
382.96, 4372
382.9625, 4357
382.965, 4255
382.9675, 4328
382.97, 4361
382.9725, 4344
382.975, 4355
382.9775, 4332
382.98, 4319
382.9825, 4216
382.985, 4300
382.9875, 4312
382.99, 4305
382.9925, 4297
382.995, 4300
382.9975, 4305
383.0, 4198
383.0025, 4277
383.005, 4253
383.0075, 4251
383.01, 4233
383.0125, 4263
383.015, 4252
383.0175, 4185
383.02, 4258
383.0225, 4252
383.025, 4235
383.0275, 4213
383.03, 4228
383.0325, 4197
383.035, 4121
383.0375, 4228
383.04, 4214
383.0425, 4187
383.045, 4180
383.0475, 4188
383.05, 4189
383.0525, 4103
383.055, 4209
383.0575, 4205
383.06, 4210
383.0625, 4190
383.065, 4221
383.0675, 4205
383.07, 4117
383.0725, 4207
383.075, 4216
383.0775, 4200
383.08, 4177
383.0825, 4201
383.085, 4207
383.0875, 4127
383.09, 4208
383.0925, 4210
383.095, 4200
383.0975, 4219
383.1, 4202
383.1025, 4207
383.105, 4128
383.1075, 4218
383.11, 4237
383.1125, 4194
383.115, 4195
383.1175, 4196
383.12, 4214
383.1225, 4134
383.125, 4238
383.1275, 4218
383.13, 4226
383.1325, 4211
383.135, 4222
383.1375, 4199
383.14, 4111
383.1425, 4194
383.145, 4175
383.1475, 4171
383.15, 4131
383.1525, 4172
383.155, 4152
383.1575, 4059
383.16, 4115
383.1625, 4106
383.165, 4083
383.1675, 4054
383.17, 4093
383.1725, 4083
383.175, 3991
383.1775, 4098
383.18, 4084
383.1825, 4071
383.185, 4074
383.1875, 4108
383.19, 4136
383.1925, 4073
383.195, 4149
383.1975, 4154
383.2, 4149
383.2025, 4140
383.205, 4150
383.2075, 4175
383.21, 4104
383.2125, 4184
383.215, 4195
383.2175, 4194
383.22, 4176
383.2225, 4219
383.225, 4218
383.2275, 4123
383.23, 4215
383.2325, 4197
383.235, 4220
383.2375, 4210
383.24, 4228
383.2425, 4224
383.245, 4132
383.2475, 4235
383.25, 4215
383.2525, 4207
383.255, 4174
383.2575, 4198
383.26, 4210
383.2625, 4125
383.265, 4208
383.2675, 4195
383.27, 4183
383.2725, 4176
383.275, 4178
383.2775, 4192
383.28, 4103
383.2825, 4192
383.285, 4203
383.2875, 4210
383.29, 4204
383.2925, 4214
383.295, 4209
383.2975, 4104
383.3, 4174
383.3025, 4171
383.305, 4164
383.3075, 4130
383.31, 4142
383.3125, 4160
383.315, 4087
383.3175, 4184
383.32, 4159
383.3225, 4170
383.325, 4134
383.3275, 4142
383.33, 4137
383.3325, 4064
383.335, 4162
383.3375, 4170
383.34, 4161
383.3425, 4163
383.345, 4141
383.3475, 4145
383.35, 4076
383.3525, 4163
383.355, 4163
383.3575, 4143
383.36, 4086
383.3625, 4187
383.365, 4169
383.3675, 4093
383.37, 4186
383.3725, 4169
383.375, 4180
383.3775, 4155
383.38, 4177
383.3825, 4179
383.385, 4098
383.3875, 4184
383.39, 4182
383.3925, 4182
383.395, 4174
383.3975, 4175
383.4, 4158
383.4025, 4103
383.405, 4181
383.4075, 4194
383.41, 4179
383.4125, 4167
383.415, 4184
383.4175, 4179
383.42, 4078
383.4225, 4173
383.425, 4161
383.4275, 4148
383.43, 4141
383.4325, 4176
383.435, 4191
383.4375, 4119
383.44, 4177
383.4425, 4197
383.445, 4177
383.4475, 4152
383.45, 4162
383.4525, 4156
383.455, 4070
383.4575, 4177
383.46, 4151
383.4625, 4153
383.465, 4135
383.4675, 4153
383.47, 4157
383.4725, 4074
383.475, 4171
383.4775, 4183
383.48, 4174
383.4825, 4153
383.485, 4182
383.4875, 4181
383.49, 4077
383.4925, 4165
383.495, 4175
383.4975, 4181
383.5, 4179
383.5025, 4170
383.505, 4151
383.5075, 4069
383.51, 4155
383.5125, 4148
383.515, 4137
383.5175, 4135
383.52, 4163
383.5225, 4173
383.525, 4098
383.5275, 4172
383.53, 4162
383.5325, 4146
383.535, 4157
383.5375, 4177
383.54, 4165
383.5425, 4077
383.545, 4178
383.5475, 4151
383.55, 4153
383.5525, 4140
383.555, 4178
383.5575, 4160
383.56, 4066
383.5625, 4143
383.565, 4138
383.5675, 4133
383.57, 4135
383.5725, 4174
383.575, 4181
383.5775, 4078
383.58, 4168
383.5825, 4176
383.585, 4178
383.5875, 4159
383.59, 4167
383.5925, 4160
383.595, 4066
383.5975, 4174
383.6, 4159
383.6025, 4164
383.605, 4143
383.6075, 4184
383.61, 4184
383.6125, 4104
383.615, 4171
383.6175, 4183
383.62, 4180
383.6225, 4159
383.625, 4193
383.6275, 4175
383.63, 4099
383.6325, 4199
383.635, 4187
383.6375, 4182
383.64, 4152
383.6425, 4176
383.645, 4186
383.6475, 4109
383.65, 4215
383.6525, 4181
383.655, 4173
383.6575, 4142
383.66, 4172
383.6625, 4170
383.665, 4106
383.6675, 4181
383.67, 4173
383.6725, 4154
383.675, 4143
383.6775, 4171
383.68, 4162
383.6825, 4093
383.685, 4159
383.6875, 4161
383.69, 4134
383.6925, 4138
383.695, 4175
383.6975, 4161
383.7, 4088
383.7025, 4163
383.705, 4156
383.7075, 4174
383.71, 4152
383.7125, 4190
383.715, 4184
383.7175, 4088
383.72, 4180
383.7225, 4183
383.725, 4170
383.7275, 4162
383.73, 4181
383.7325, 4155
383.735, 4073
383.7375, 4152
383.74, 4153
383.7425, 4154
383.745, 4142
383.7475, 4161
383.75, 4176
383.7525, 4082
383.755, 4172
383.7575, 4150
383.76, 4155
383.7625, 4147
383.765, 4165
383.7675, 4168
383.77, 4072
383.7725, 4163
383.775, 4159
383.7775, 4165
383.78, 4150
383.7825, 4182
383.785, 4173
383.7875, 4059
383.79, 4164
383.7925, 4179
383.795, 4158
383.7975, 4158
383.8, 4165
383.8025, 4164
383.805, 4089
383.8075, 4179
383.81, 4180
383.8125, 4164
383.815, 4158
383.8175, 4167
383.82, 4170
383.8225, 4081
383.825, 4171
383.8275, 4166
383.83, 4164
383.8325, 4163
383.835, 4181
383.8375, 4181
383.84, 4097
383.8425, 4193
383.845, 4182
383.8475, 4166
383.85, 4117
383.8525, 4128
383.855, 4122
383.8575, 4028
383.86, 4086
383.8625, 4065
383.865, 4079
383.8675, 4098
383.87, 4133
383.8725, 4135
383.875, 4058
383.8775, 4128
383.88, 4153
383.8825, 4159
383.885, 4147
383.8875, 4179
383.89, 4170
383.8925, 4081
383.895, 4165
383.8975, 4168
383.9, 4173
383.9025, 4136
383.905, 4154
383.9075, 4165
383.91, 4081
383.9125, 4186
383.915, 4169
383.9175, 4152
383.92, 4152
383.9225, 4165
383.925, 4157
383.9275, 4079
383.93, 4175
383.9325, 4156
383.935, 4149
383.9375, 4123
383.94, 4160
383.9425, 4156
383.945, 4099
383.9475, 4186
383.95, 4230
383.9525, 4304
383.955, 4340
383.9575, 4410
383.96, 4450
383.9625, 4387
383.965, 4427
383.9675, 4320
383.97, 4127
383.9725, 3902
383.975, 3608
383.9775, 3323
383.98, 2875
383.9825, 2523
383.985, 2031
383.9875, 1796
383.99, 1722
383.9925, 1917
383.995, 2346
383.9975, 3106
384.0, 4131
384.0025, 4746
384.005, 5015
384.0075, 5028
384.01, 4964
384.0125, 4802
384.015, 4566
384.0175, 4554
384.02, 4544
384.0225, 4503
384.025, 4478
384.0275, 4489
384.03, 4488
384.0325, 4437
384.035, 4521
384.0375, 4522
384.04, 4479
384.0425, 4465
384.045, 4477
384.0475, 4442
384.05, 4359
384.0525, 4441
384.055, 4441
384.0575, 4425
384.06, 4391
384.0625, 4418
384.065, 4379
384.0675, 4284
384.07, 4363
384.0725, 4377
384.075, 4369
384.0775, 4331
384.08, 4356
384.0825, 4348
384.085, 4253
384.0875, 4340
384.09, 4330
384.0925, 4327
384.095, 4306
384.0975, 4322
384.1, 4304
384.1025, 4242
384.105, 4295
384.1075, 4283
384.11, 4276
384.1125, 4246
384.115, 4270
384.1175, 4260
384.12, 4174
384.1225, 4246
384.125, 4233
384.1275, 4239
384.13, 4222
384.1325, 4240
384.135, 4229
384.1375, 4141
384.14, 4211
384.1425, 4208
384.145, 4210
384.1475, 4191
384.15, 4191
384.1525, 4186
384.155, 4106
384.1575, 4171
384.16, 4172
384.1625, 4168
384.165, 4154
384.1675, 4200
384.17, 4191
384.1725, 4118
384.175, 4195
384.1775, 4178
384.18, 4170
384.1825, 4144
384.185, 4199
384.1875, 4177
384.19, 4085
384.1925, 4177
384.195, 4208
384.1975, 4171
384.2, 4164
384.2025, 4158
384.205, 4176
384.2075, 4093
384.21, 4171
384.2125, 4162
384.215, 4147
384.2175, 4137
384.22, 4170
384.2225, 4146
384.225, 4081
384.2275, 4173
384.23, 4159
384.2325, 4166
384.235, 4122
384.2375, 4158
384.24, 4154
384.2425, 4090
384.245, 4179
384.2475, 4169
384.25, 4168
384.2525, 4151
384.255, 4173
384.2575, 4180
384.26, 4082
384.2625, 4176
384.265, 4155
384.2675, 4154
384.27, 4132
384.2725, 4131
384.275, 4137
384.2775, 4037
384.28, 4120
384.2825, 4132
384.285, 4131
384.2875, 4116
384.29, 4139
384.2925, 4145
384.295, 4072
384.2975, 4155
384.3, 4143
384.3025, 4170
384.305, 4129
384.3075, 4229
384.31, 4234
384.3125, 4147
384.315, 4249
384.3175, 4257
384.32, 4253
384.3225, 4216
384.325, 4251
384.3275, 4250
384.33, 4195
384.3325, 4269
384.335, 4267
384.3375, 4264
384.34, 4252
384.3425, 4299
384.345, 4281
384.3475, 4214
384.35, 4292
384.3525, 4340
384.355, 4310
384.3575, 4290
384.36, 4292
384.3625, 4282
384.365, 4172
384.3675, 4270
384.37, 4254
384.3725, 4249
384.375, 4246
384.3775, 4253
384.38, 4230
384.3825, 4133
384.385, 4226
384.3875, 4234
384.39, 4229
384.3925, 4216
384.395, 4244
384.3975, 4240
384.4, 4122
384.4025, 4206
384.405, 4221
384.4075, 4224
384.41, 4201
384.4125, 4219
384.415, 4200
384.4175, 4130
384.42, 4191
384.4225, 4191
384.425, 4192
384.4275, 4171
384.43, 4188
384.4325, 4212
384.435, 4130
384.4375, 4211
384.44, 4217
384.4425, 4180
384.445, 4167
384.4475, 4177
384.45, 4186
384.4525, 4101
384.455, 4179
384.4575, 4182
384.46, 4198
384.4625, 4182
384.465, 4218
384.4675, 4191
384.47, 4107
384.4725, 4199
384.475, 4186
384.4775, 4181
384.48, 4163
384.4825, 4199
384.485, 4209
384.4875, 4120
384.49, 4214
384.4925, 4223
384.495, 4198
384.4975, 4194
384.5, 4198
384.5025, 4195
384.505, 4111
384.5075, 4204
384.51, 4219
384.5125, 4208
384.515, 4173
384.5175, 4196
384.52, 4196
384.5225, 4103
384.525, 4190
384.5275, 4187
384.53, 4198
384.5325, 4163
384.535, 4194
384.5375, 4167
384.54, 4093
384.5425, 4181
384.545, 4184
384.5475, 4175
384.55, 4176
384.5525, 4188
384.555, 4184
384.5575, 4098
384.56, 4173
384.5625, 4199
384.565, 4182
384.5675, 4143
384.57, 4190
384.5725, 4179
384.575, 4094
384.5775, 4196
384.58, 4179
384.5825, 4183
384.585, 4167
384.5875, 4159
384.59, 4167
384.5925, 4091
384.595, 4157
384.5975, 4197
384.6, 4214
384.6025, 4159
384.605, 4181
384.6075, 4169
384.61, 4098
384.6125, 4186
384.615, 4195
384.6175, 4182
384.62, 4161
384.6225, 4188
384.625, 4183
384.6275, 4101
384.63, 4192
384.6325, 4206
384.635, 4187
384.6375, 4165
384.64, 4179
384.6425, 4190
384.645, 4112
384.6475, 4190
384.65, 4204
384.6525, 4191
384.655, 4155
384.6575, 4177
384.66, 4168
384.6625, 4119
384.665, 4194
384.6675, 4217
384.67, 4198
384.6725, 4192
384.675, 4191
384.6775, 4173
384.68, 4110
384.6825, 4197
384.685, 4191
384.6875, 4164
384.69, 4163
384.6925, 4197
384.695, 4182
384.6975, 4087
384.7, 4185
384.7025, 4174
384.705, 4159
384.7075, 4168
384.71, 4167
384.7125, 4166
384.715, 4084
384.7175, 4173
384.72, 4179
384.7225, 4160
384.725, 4149
384.7275, 4164
384.73, 4171
384.7325, 4094
384.735, 4154
384.7375, 4149
384.74, 4150
384.7425, 4124
384.745, 4149
384.7475, 4155
384.75, 4038
384.7525, 4133
384.755, 4142
384.7575, 4136
384.76, 4108
384.7625, 4137
384.765, 4169
384.7675, 4077
384.77, 4156
384.7725, 4182
384.775, 4188
384.7775, 4167
384.78, 4192
384.7825, 4186
384.785, 4114
384.7875, 4206
384.79, 4191
384.7925, 4175
384.795, 4141
384.7975, 4153
384.8, 4141
384.8025, 4072
384.805, 4154
384.8075, 4158
384.81, 4136
384.8125, 4114
384.815, 4136
384.8175, 4144
384.82, 4067
384.8225, 4163
384.825, 4167
384.8275, 4175
384.83, 4157
384.8325, 4180
384.835, 4175
384.8375, 4091
384.84, 4174
384.8425, 4181
384.845, 4190
384.8475, 4175
384.85, 4188
384.8525, 4192
384.855, 4110
384.8575, 4191
384.86, 4185
384.8625, 4183
384.865, 4161
384.8675, 4189
384.87, 4187
384.8725, 4096
384.875, 4190
384.8775, 4202
384.88, 4198
384.8825, 4177
384.885, 4187
384.8875, 4188
384.89, 4094
384.8925, 4196
384.895, 4174
384.8975, 4174
384.9, 4188
384.9025, 4242
384.905, 4324
384.9075, 4297
384.91, 4418
384.9125, 4450
384.915, 4483
384.9175, 4426
384.92, 4290
384.9225, 4108
384.925, 3783
384.9275, 3566
384.93, 3271
384.9325, 2899
384.935, 2408
384.9375, 1947
384.94, 1682
384.9425, 1592
384.945, 1861
384.9475, 2352
384.95, 3237
384.9525, 4213
384.955, 4847
384.9575, 5054
384.96, 4968
384.9625, 4929
384.965, 4741
384.9675, 4630
384.97, 4556
384.9725, 4555
384.975, 4525
384.9775, 4421
384.98, 4499
384.9825, 4503
384.985, 4482
384.9875, 4480
384.99, 4507
384.9925, 4497
384.995, 4420
384.9975, 4484
385.0, 4474
385.0025, 4457
385.005, 4425
385.0075, 4434
385.01, 4409
385.0125, 4355
385.015, 4427
385.0175, 4400
385.02, 4389
385.0225, 4352
385.025, 4370
385.0275, 4353
385.03, 4297
385.0325, 4379
385.035, 4382
385.0375, 4345
385.04, 4334
385.0425, 4370
385.045, 4362
385.0475, 4260
385.05, 4316
385.0525, 4286
385.055, 4303
385.0575, 4269
385.06, 4297
385.0625, 4280
385.065, 4192
385.0675, 4274
385.07, 4271
385.0725, 4234
385.075, 4233
385.0775, 4246
385.08, 4253
385.0825, 4140
385.085, 4222
385.0875, 4230
385.09, 4227
385.0925, 4186
385.095, 4216
385.0975, 4231
385.1, 4152
385.1025, 4202
385.105, 4189
385.1075, 4180
385.11, 4160
385.1125, 4169
385.115, 4191
385.1175, 4101
385.12, 4174
385.1225, 4191
385.125, 4179
385.1275, 4158
385.13, 4179
385.1325, 4173
385.135, 4106
385.1375, 4160
385.14, 4178
385.1425, 4168
385.145, 4157
385.1475, 4187
385.15, 4162
385.1525, 4097
385.155, 4175
385.1575, 4202
385.16, 4171
385.1625, 4177
385.165, 4187
385.1675, 4180
385.17, 4084
385.1725, 4192
385.175, 4173
385.1775, 4192
385.18, 4152
385.1825, 4170
385.185, 4149
385.1875, 4091
385.19, 4160
385.1925, 4149
385.195, 4151
385.1975, 4131
385.2, 4156
385.2025, 4149
385.205, 4059
385.2075, 4150
385.21, 4147
385.2125, 4139
385.215, 4141
385.2175, 4136
385.22, 4146
385.2225, 4050
385.225, 4137
385.2275, 4128
385.23, 4119
385.2325, 4101
385.235, 4131
385.2375, 4138
385.24, 4041
385.2425, 4134
385.245, 4135
385.2475, 4133
385.25, 4156
385.2525, 4173
385.255, 4142
385.2575, 4085
385.26, 4199
385.2625, 4202
385.265, 4223
385.2675, 4187
385.27, 4226
385.2725, 4215
385.275, 4135
385.2775, 4220
385.28, 4241
385.2825, 4227
385.285, 4209
385.2875, 4248
385.29, 4251
385.2925, 4183
385.295, 4266
385.2975, 4271
385.3, 4278
385.3025, 4240
385.305, 4275
385.3075, 4260
385.31, 4163
385.3125, 4260
385.315, 4235
385.3175, 4239
385.32, 4225
385.3225, 4231
385.325, 4242
385.3275, 4153
385.33, 4231
385.3325, 4228
385.335, 4217
385.3375, 4186
385.34, 4224
385.3425, 4219
385.345, 4134
385.3475, 4197
385.35, 4206
385.3525, 4193
385.355, 4180
385.3575, 4216
385.36, 4211
385.3625, 4125
385.365, 4202
385.3675, 4199
385.37, 4187
385.3725, 4205
385.375, 4224
385.3775, 4205
385.38, 4130
385.3825, 4207
385.385, 4201
385.3875, 4208
385.39, 4170
385.3925, 4204
385.395, 4191
385.3975, 4114
385.4, 4167
385.4025, 4178
385.405, 4190
385.4075, 4157
385.41, 4173
385.4125, 4163
385.415, 4096
385.4175, 4172
385.42, 4177
385.4225, 4168
385.425, 4184
385.4275, 4207
385.43, 4194
385.4325, 4119
385.435, 4198
385.4375, 4195
385.44, 4187
385.4425, 4137
385.445, 4192
385.4475, 4207
385.45, 4090
385.4525, 4158
385.455, 4153
385.4575, 4171
385.46, 4129
385.4625, 4154
385.465, 4168
385.4675, 4106
385.47, 4188
385.4725, 4173
385.475, 4189
385.4775, 4188
385.48, 4183
385.4825, 4148
385.485, 4085
385.4875, 4172
385.49, 4164
385.4925, 4166
385.495, 4157
385.4975, 4166
385.5, 4165
385.5025, 4082
385.505, 4183
385.5075, 4156
385.51, 4164
385.5125, 4159
385.515, 4166
385.5175, 4175
385.52, 4095
385.5225, 4183
385.525, 4177
385.5275, 4183
385.53, 4160
385.5325, 4198
385.535, 4207
385.5375, 4113
385.54, 4178
385.5425, 4144
385.545, 4150
385.5475, 4121
385.55, 4179
385.5525, 4166
385.555, 4080
385.5575, 4146
385.56, 4145
385.5625, 4158
385.565, 4138
385.5675, 4167
385.57, 4172
385.5725, 4086
385.575, 4176
385.5775, 4176
385.58, 4174
385.5825, 4125
385.585, 4138
385.5875, 4140
385.59, 4075
385.5925, 4183
385.595, 4158
385.5975, 4141
385.6, 4152
385.6025, 4179
385.605, 4145
385.6075, 4044
385.61, 4153
385.6125, 4177
385.615, 4157
385.6175, 4139
385.62, 4158
385.6225, 4171
385.625, 4082
385.6275, 4174
385.63, 4161
385.6325, 4154
385.635, 4138
385.6375, 4157
385.64, 4166
385.6425, 4084
385.645, 4168
385.6475, 4164
385.65, 4146
385.6525, 4153
385.655, 4157
385.6575, 4167
385.66, 4074
385.6625, 4152
385.665, 4160
385.6675, 4157
385.67, 4142
385.6725, 4158
385.675, 4146
385.6775, 4048
385.68, 4164
385.6825, 4136
385.685, 4162
385.6875, 4134
385.69, 4182
385.6925, 4187
385.695, 4145
385.6975, 4192
385.7, 4186
385.7025, 4152
385.705, 4137
385.7075, 4162
385.71, 4176
385.7125, 4092
385.715, 4173
385.7175, 4175
385.72, 4164
385.7225, 4156
385.725, 4182
385.7275, 4172
385.73, 4074
385.7325, 4174
385.735, 4174
385.7375, 4164
385.74, 4156
385.7425, 4169
385.745, 4173
385.7475, 4093
385.75, 4167
385.7525, 4181
385.755, 4180
385.7575, 4159
385.76, 4185
385.7625, 4169
385.765, 4095
385.7675, 4152
385.77, 4165
385.7725, 4155
385.775, 4138
385.7775, 4142
385.78, 4144
385.7825, 4061
385.785, 4149
385.7875, 4197
385.79, 4183
385.7925, 4167
385.795, 4178
385.7975, 4151
385.8, 4051
385.8025, 4157
385.805, 4154
385.8075, 4160
385.81, 4140
385.8125, 4157
385.815, 4168
385.8175, 4058
385.82, 4143
385.8225, 4168
385.825, 4156
385.8275, 4140
385.83, 4181
385.8325, 4176
385.835, 4102
385.8375, 4170
385.84, 4169
385.8425, 4169
385.845, 4144
385.8475, 4151
385.85, 4159
385.8525, 4078
385.855, 4178
385.8575, 4184
385.86, 4175
385.8625, 4085
385.865, 4199
385.8675, 4180
385.87, 4089
385.8725, 4179
385.875, 4184
385.8775, 4166
385.88, 4152
385.8825, 4150
385.885, 4171
385.8875, 4080
385.89, 4181
385.8925, 4173
385.895, 4182
385.8975, 4143
385.9, 4157
385.9025, 4135
385.905, 4030
385.9075, 4113
385.91, 4116
385.9125, 4079
385.915, 3956
385.9175, 4133
385.92, 4161
385.9225, 4089
385.925, 4163
385.9275, 4136
385.93, 4131
385.9325, 4142
385.935, 4180
385.9375, 4187
385.94, 4113
385.9425, 4177
385.945, 4175
385.9475, 4168
385.95, 4161
385.9525, 4201
385.955, 4193
385.9575, 4092
385.96, 4166
385.9625, 4151
385.965, 4154
385.9675, 4077
385.97, 4181
385.9725, 4180
385.975, 4095
385.9775, 4177
385.98, 4162
385.9825, 4145
385.985, 4113
385.9875, 4167
385.99, 4172
385.9925, 4080
385.995, 4088
385.9975, 4230
386.0, 4239
386.0025, 4310
386.005, 4391
386.0075, 4391
386.01, 4361
386.0125, 4467
386.015, 4472
386.0175, 4335
386.02, 4142
386.0225, 3895
386.025, 3607
386.0275, 3204
386.03, 2881
386.0325, 2440
386.035, 1905
386.0375, 1585
386.04, 1633
386.0425, 1714
386.045, 2153
386.0475, 3121
386.05, 4034
386.0525, 4663
386.055, 4915
386.0575, 4932
386.06, 4801
386.0625, 4581
386.065, 4554
386.0675, 4527
386.07, 4523
386.0725, 4482
386.075, 4506
386.0775, 4505
386.08, 4434
386.0825, 4517
386.085, 4533
386.0875, 4516
386.09, 4503
386.0925, 4517
386.095, 4501
386.0975, 4403
386.1, 4447
386.1025, 4439
386.105, 4427
386.1075, 4395
386.11, 4431
386.1125, 4425
386.115, 4344
386.1175, 4398
386.12, 4382
386.1225, 4367
386.125, 4332
386.1275, 4356
386.13, 4354
386.1325, 4242
386.135, 4328
386.1375, 4321
386.14, 4312
386.1425, 4311
386.145, 4332
386.1475, 4313
386.15, 4239
386.1525, 4323
386.155, 4315
386.1575, 4309
386.16, 4282
386.1625, 4289
386.165, 4283
386.1675, 4191
386.17, 4282
386.1725, 4245
386.175, 4251
386.1775, 4253
386.18, 4240
386.1825, 4215
386.185, 4137
386.1875, 4232
386.19, 4222
386.1925, 4181
386.195, 4117
386.1975, 4200
386.2, 4195
386.2025, 4123
386.205, 4201
386.2075, 4199
386.21, 4217
386.2125, 4187
386.215, 4210
386.2175, 4195
386.22, 4107
386.2225, 4219
386.225, 4229
386.2275, 4206
386.23, 4203
386.2325, 4224
386.235, 4227
386.2375, 4151
386.24, 4224
386.2425, 4203
386.245, 4198
386.2475, 4176
386.25, 4199
386.2525, 4194
386.255, 4101
386.2575, 4211
386.26, 4209
386.2625, 4207
386.265, 4190
386.2675, 4195
386.27, 4214
386.2725, 4140
386.275, 4210
386.2775, 4221
386.28, 4219
386.2825, 4147
386.285, 4242
386.2875, 4238
386.29, 4154
386.2925, 4223
386.295, 4222
386.2975, 4227
386.3, 4180
386.3025, 4234
386.305, 4227
386.3075, 4163
386.31, 4213
386.3125, 4209
386.315, 4200
386.3175, 4111
386.32, 4198
386.3225, 4185
386.325, 4085
386.3275, 4164
386.33, 4151
386.3325, 4121
386.335, 4027
386.3375, 4120
386.34, 4105
386.3425, 4022
386.345, 4106
386.3475, 4113
386.35, 4096
386.3525, 4112
386.355, 4105
386.3575, 4116
386.36, 4032
386.3625, 4148
386.365, 4133
386.3675, 4137
386.37, 4138
386.3725, 4160
386.375, 4166
386.3775, 4085
386.38, 4177
386.3825, 4185
386.385, 4167
386.3875, 4150
386.39, 4186
386.3925, 4185
386.395, 4105
386.3975, 4197
386.4, 4197
386.4025, 4206
386.405, 4196
386.4075, 4199
386.41, 4199
386.4125, 4116
386.415, 4195
386.4175, 4172
386.42, 4155
386.4225, 4152
386.425, 4177
386.4275, 4185
386.43, 4114
386.4325, 4188
386.435, 4173
386.4375, 4170
386.44, 4136
386.4425, 4172
386.445, 4175
386.4475, 4123
386.45, 4181
386.4525, 4172
386.455, 4174
386.4575, 4169
386.46, 4159
386.4625, 4160
386.465, 4067
386.4675, 4146
386.47, 4152
386.4725, 4141
386.475, 4098
386.4775, 4127
386.48, 4128
386.4825, 4078
386.485, 4132
386.4875, 4141
386.49, 4134
386.4925, 4112
386.495, 4138
386.4975, 4143
386.5, 4051
386.5025, 4131
386.505, 4140
386.5075, 4142
386.51, 4122
386.5125, 4140
386.515, 4134
386.5175, 4066
386.52, 4154
386.5225, 4135
386.525, 4126
386.5275, 4108
386.53, 4148
386.5325, 4136
386.535, 4054
386.5375, 4131
386.54, 4120
386.5425, 4124
386.545, 4091
386.5475, 4114
386.55, 4133
386.5525, 4027
386.555, 4129
386.5575, 4133
386.56, 4134
386.5625, 4121
386.565, 4150
386.5675, 4152
386.57, 4081
386.5725, 4161
386.575, 4168
386.5775, 4148
386.58, 4150
386.5825, 4169
386.585, 4148
386.5875, 4074
386.59, 4165
386.5925, 4154
386.595, 4153
386.5975, 4153
386.6, 4163
386.6025, 4152
386.605, 4078
386.6075, 4165
386.61, 4153
386.6125, 4157
386.615, 4138
386.6175, 4152
386.62, 4154
386.6225, 4057
386.625, 4151
386.6275, 4150
386.63, 4154
386.6325, 4124
386.635, 4151
386.6375, 4145
386.64, 4054
386.6425, 4139
386.645, 4140
386.6475, 4114
386.65, 4102
386.6525, 4135
386.655, 4120
386.6575, 4071
386.66, 4132
386.6625, 4146
386.665, 4147
386.6675, 4145
386.67, 4177
386.6725, 4159
386.675, 4090
386.6775, 4169
386.68, 4198
386.6825, 4161
386.685, 4140
386.6875, 4166
386.69, 4151
386.6925, 4064
386.695, 4155
386.6975, 4158
386.7, 4155
386.7025, 4130
386.705, 4167
386.7075, 4192
386.71, 4095
386.7125, 4190
386.715, 4192
386.7175, 4174
386.72, 4156
386.7225, 4171
386.725, 4172
386.7275, 4097
386.73, 4178
386.7325, 4193
386.735, 4176
386.7375, 4170
386.74, 4195
386.7425, 4196
386.745, 4118
386.7475, 4201
386.75, 4196
386.7525, 4183
386.755, 4183
386.7575, 4177
386.76, 4181
386.7625, 4111
386.765, 4200
386.7675, 4185
386.77, 4185
386.7725, 4187
386.775, 4173
386.7775, 4158
386.78, 4081
386.7825, 4177
386.785, 4188
386.7875, 4184
386.79, 4101
386.7925, 4208
386.795, 4197
386.7975, 4113
386.8, 4198
386.8025, 4189
386.805, 4189
386.8075, 4178
386.81, 4170
386.8125, 4184
386.815, 4091
386.8175, 4192
386.82, 4171
386.8225, 4167
386.825, 4150
386.8275, 4154
386.83, 4136
386.8325, 4053
386.835, 4182
386.8375, 4181
386.84, 4177
386.8425, 4163
386.845, 4190
386.8475, 4165
386.85, 4100
386.8525, 4193
386.855, 4161
386.8575, 4185
386.86, 4176
386.8625, 4182
386.865, 4166
386.8675, 4093
386.87, 4162
386.8725, 4174
386.875, 4154
386.8775, 4142
386.88, 4179
386.8825, 4171
386.885, 4083
386.8875, 4168
386.89, 4162
386.8925, 4184
386.895, 4141
386.8975, 4168
386.9, 4185
386.9025, 4131
386.905, 4153
386.9075, 4164
386.91, 4153
386.9125, 4076
386.915, 4166
386.9175, 4179
386.92, 4102
386.9225, 4193
386.925, 4197
386.9275, 4180
386.93, 4155
386.9325, 4174
386.935, 4175
386.9375, 4099
386.94, 4183
386.9425, 4175
386.945, 4183
386.9475, 4145
386.95, 4176
386.9525, 4152
386.955, 4061
386.9575, 4154
386.96, 4161
386.9625, 4178
386.965, 4156
386.9675, 4172
386.97, 4164
386.9725, 4095
386.975, 4180
386.9775, 4165
386.98, 4162
386.9825, 4151
386.985, 4160
386.9875, 4172
386.99, 4135
386.9925, 4173
386.995, 4170
386.9975, 4165
387.0, 4124
387.0025, 4155
387.005, 4166
387.0075, 4076
387.01, 4158
387.0125, 4192
387.015, 4195
387.0175, 4166
387.02, 4148
387.0225, 4131
387.025, 4029
387.0275, 4125
387.03, 4146
387.0325, 4109
387.035, 4063
387.0375, 4104
387.04, 4111
387.0425, 4074
387.045, 4173
387.0475, 4157
387.05, 4168
387.0525, 4172
387.055, 4196
387.0575, 4211
387.06, 4112
387.0625, 4217
387.065, 4221
387.0675, 4184
387.07, 4098
387.0725, 4203
387.075, 4187
387.0775, 4097
387.08, 4187
387.0825, 4186
387.085, 4183
387.0875, 4171
387.09, 4200
387.0925, 4199
387.095, 4142
387.0975, 4209
387.1, 4203
387.1025, 4192
387.105, 4155
387.1075, 4171
387.11, 4163
387.1125, 4081
387.115, 4173
387.1175, 4182
387.12, 4198
387.1225, 4160
387.125, 4340
387.1275, 4399
387.13, 4332
387.1325, 4434
387.135, 4483
387.1375, 4431
387.14, 4271
387.1425, 4077
387.145, 3842
387.1475, 3444
387.15, 3250
387.1525, 2856
387.155, 2407
387.1575, 1970
387.16, 1785
387.1625, 1759
387.165, 1918
387.1675, 2523
387.17, 3412
387.1725, 4287
387.175, 4773
387.1775, 5017
387.18, 5016
387.1825, 4851
387.185, 4774
387.1875, 4619
387.19, 4565
387.1925, 4539
387.195, 4515
387.1975, 4493
387.2, 4403
387.2025, 4495
387.205, 4502
387.2075, 4513
387.21, 4495
387.2125, 4517
387.215, 4502
387.2175, 4404
387.22, 4467
387.2225, 4464
387.225, 4450
387.2275, 4415
387.23, 4457
387.2325, 4438
387.235, 4352
387.2375, 4410
387.24, 4400
387.2425, 4386
387.245, 4350
387.2475, 4358
387.25, 4357
387.2525, 4254
387.255, 4352
387.2575, 4363
387.26, 4348
387.2625, 4334
387.265, 4343
387.2675, 4340
387.27, 4256
387.2725, 4334
387.275, 4334
387.2775, 4336
387.28, 4310
387.2825, 4319
387.285, 4305
387.2875, 4217
387.29, 4306
387.2925, 4290
387.295, 4299
387.2975, 4292
387.3, 4299
387.3025, 4287
387.305, 4222
387.3075, 4293
387.31, 4243
387.3125, 4238
387.315, 4228
387.3175, 4256
387.32, 4250
387.3225, 4178
387.325, 4249
387.3275, 4271
387.33, 4275
387.3325, 4239
387.335, 4239
387.3375, 4240
387.34, 4161
387.3425, 4240
387.345, 4231
387.3475, 4220
387.35, 4206
387.3525, 4247
387.355, 4220
387.3575, 4155
387.36, 4234
387.3625, 4225
387.365, 4216
387.3675, 4180
387.37, 4213
387.3725, 4207
387.375, 4115
387.3775, 4210
387.38, 4221
387.3825, 4227
387.385, 4224
387.3875, 4214
387.39, 4210
387.3925, 4137
387.395, 4218
387.3975, 4231
387.4, 4213
387.4025, 4190
387.405, 4212
387.4075, 4210
387.41, 4121
387.4125, 4207
387.415, 4221
387.4175, 4180
387.42, 4162
387.4225, 4203
387.425, 4198
387.4275, 4118
387.43, 4203
387.4325, 4195
387.435, 4184
387.4375, 4160
387.44, 4181
387.4425, 4150
387.445, 4103
387.4475, 4188
387.45, 4179
387.4525, 4177
387.455, 4156
387.4575, 4128
387.46, 4146
387.4625, 4113
387.465, 4199
387.4675, 4197
387.47, 4203
387.4725, 4184
387.475, 4228
387.4775, 4212
387.48, 4145
387.4825, 4237
387.485, 4252
387.4875, 4241
387.49, 4175
387.4925, 4267
387.495, 4264
387.4975, 4188
387.5, 4255
387.5025, 4274
387.505, 4256
387.5075, 4270
387.51, 4265
387.5125, 4274
387.515, 4217
387.5175, 4283
387.52, 4286
387.5225, 4273
387.525, 4268
387.5275, 4289
387.53, 4278
387.5325, 4185
387.535, 4269
387.5375, 4284
387.54, 4267
387.5425, 4243
387.545, 4254
387.5475, 4260
387.55, 4208
387.5525, 4298
387.555, 4278
387.5575, 4268
387.56, 4216
387.5625, 4220
387.565, 4218
387.5675, 4149
387.57, 4218
387.5725, 4199
387.575, 4215
387.5775, 4205
387.58, 4219
387.5825, 4219
387.585, 4125
387.5875, 4220
387.59, 4222
387.5925, 4190
387.595, 4181
387.5975, 4217
387.6, 4222
387.6025, 4143
387.605, 4194
387.6075, 4208
387.61, 4203
387.6125, 4183
387.615, 4223
387.6175, 4209
387.62, 4136
387.6225, 4177
387.625, 4201
387.6275, 4199
387.63, 4163
387.6325, 4210
387.635, 4206
387.6375, 4124
387.64, 4170
387.6425, 4189
387.645, 4189
387.6475, 4182
387.65, 4227
387.6525, 4213
387.655, 4140
387.6575, 4204
387.66, 4199
387.6625, 4217
387.665, 4190
387.6675, 4218
387.67, 4209
387.6725, 4115
387.675, 4190
387.6775, 4191
387.68, 4178
387.6825, 4164
387.685, 4186
387.6875, 4185
387.69, 4112
387.6925, 4209
387.695, 4214
387.6975, 4228
387.7, 4211
387.7025, 4203
387.705, 4198
387.7075, 4140
387.71, 4180
387.7125, 4160
387.715, 4173
387.7175, 4075
387.72, 4167
387.7225, 4153
387.725, 4105
387.7275, 4174
387.73, 4182
387.7325, 4171
387.735, 4157
387.7375, 4179
387.74, 4152
387.7425, 4092
387.745, 4192
387.7475, 4174
387.75, 4147
387.7525, 4123
387.755, 4155
387.7575, 4142
387.76, 4077
387.7625, 4168
387.765, 4155
387.7675, 4148
387.77, 4138
387.7725, 4163
387.775, 4162
387.7775, 4086
387.78, 4168
387.7825, 4183
387.785, 4173
387.7875, 4107
387.79, 4197
387.7925, 4167
387.795, 4107
387.7975, 4189
387.8, 4164
387.8025, 4174
387.805, 4170
387.8075, 4211
387.81, 4181
387.8125, 4125
387.815, 4227
387.8175, 4206
387.82, 4201
387.8225, 4160
387.825, 4175
387.8275, 4198
387.83, 4111
387.8325, 4191
387.835, 4200
387.8375, 4177
387.84, 4166
387.8425, 4179
387.845, 4178
387.8475, 4130
387.85, 4189
387.8525, 4188
387.855, 4191
387.8575, 4176
387.86, 4199
387.8625, 4176
387.865, 4120
387.8675, 4181
387.87, 4183
387.8725, 4197
387.875, 4156
387.8775, 4185
387.88, 4183
387.8825, 4106
387.885, 4191
387.8875, 4189
387.89, 4176
387.8925, 4137
387.895, 4163
387.8975, 4188
387.9, 4117
387.9025, 4181
387.905, 4176
387.9075, 4182
387.91, 4143
387.9125, 4169
387.915, 4173
387.9175, 4105
387.92, 4172
387.9225, 4193
387.925, 4180
387.9275, 4157
387.93, 4187
387.9325, 4172
387.935, 4076
387.9375, 4166
387.94, 4165
387.9425, 4163
387.945, 4142
387.9475, 4159
387.95, 4158
387.9525, 4074
387.955, 4122
387.9575, 4151
387.96, 4142
387.9625, 4126
387.965, 4157
387.9675, 4157
387.97, 4073
387.9725, 4146
387.975, 4167
387.9775, 4136
387.98, 4126
387.9825, 4152
387.985, 4147
387.9875, 4064
387.99, 4150
387.9925, 4147
387.995, 4148
387.9975, 4142
388.0, 4140
388.0025, 4105
388.005, 4023
388.0075, 4074
388.01, 4089
388.0125, 4081
388.015, 4042
388.0175, 4103
388.02, 4107
388.0225, 4035
388.025, 4129
388.0275, 4114
388.03, 4123
388.0325, 4131
388.035, 4159
388.0375, 4164
388.04, 4106
388.0425, 4184
388.045, 4188
388.0475, 4180
388.05, 4153
388.0525, 4153
388.055, 4161
388.0575, 4101
388.06, 4186
388.0625, 4192
388.065, 4179
388.0675, 4156
388.07, 4194
388.0725, 4180
388.075, 4113
388.0775, 4147
388.08, 4176
388.0825, 4167
388.085, 4164
388.0875, 4176
388.09, 4146
388.0925, 4086
388.095, 4180
388.0975, 4186
388.1, 4189
388.1025, 4225
388.105, 4234
388.1075, 4304
388.11, 4287
388.1125, 4423
388.115, 4472
388.1175, 4463
388.12, 4403
388.1225, 4287
388.125, 4055
388.1275, 3732
388.13, 3521
388.1325, 3259
388.135, 2910
388.1375, 2452
388.14, 1997
388.1425, 1780
388.145, 1618
388.1475, 1886
388.15, 2356
388.1525, 3161
388.155, 4212
388.1575, 4870
388.16, 5089
388.1625, 5034
388.165, 5022
388.1675, 4885
388.17, 4734
388.1725, 4632
388.175, 4590
388.1775, 4543
388.18, 4431
388.1825, 4506
388.185, 4519
388.1875, 4509
388.19, 4466
388.1925, 4501
388.195, 4501
388.1975, 4437
388.2, 4494
388.2025, 4465
388.205, 4436
388.2075, 4415
388.21, 4427
388.2125, 4410
388.215, 4325
388.2175, 4412
388.22, 4408
388.2225, 4388
388.225, 4309
388.2275, 4380
388.23, 4368
388.2325, 4297
388.235, 4359
388.2375, 4348
388.24, 4333
388.2425, 4311
388.245, 4338
388.2475, 4351
388.25, 4266
388.2525, 4312
388.255, 4325
388.2575, 4311
388.26, 4288
388.2625, 4301
388.265, 4270
388.2675, 4196
388.27, 4267
388.2725, 4251
388.275, 4242
388.2775, 4239
388.28, 4268
388.2825, 4266
388.285, 4194
388.2875, 4273
388.29, 4259
388.2925, 4237
388.295, 4171
388.2975, 4260
388.3, 4255
388.3025, 4156
388.305, 4234
388.3075, 4214
388.31, 4222
388.3125, 4218
388.315, 4237
388.3175, 4214
388.32, 4149
388.3225, 4224
388.325, 4204
388.3275, 4184
388.33, 4172
388.3325, 4191
388.335, 4176
388.3375, 4118
388.34, 4202
388.3425, 4197
388.345, 4182
388.3475, 4183
388.35, 4179
388.3525, 4156
388.355, 4133
388.3575, 4166
388.36, 4154
388.3625, 4157
388.365, 4097
388.3675, 4189
388.37, 4190
388.3725, 4130
388.375, 4189
388.3775, 4185
388.38, 4188
388.3825, 4170
388.385, 4183
388.3875, 4173
388.39, 4127
388.3925, 4154
388.395, 4175
388.3975, 4161
388.4, 4042
388.4025, 4209
388.405, 4216
388.4075, 4118
388.41, 4190
388.4125, 4185
388.415, 4176
388.4175, 4161
388.42, 4176
388.4225, 4163
388.425, 4106
388.4275, 4151
388.43, 4125
388.4325, 4129
388.435, 4117
388.4375, 4142
388.44, 4150
388.4425, 4098
388.445, 4164
388.4475, 4174
388.45, 4181
388.4525, 4155
388.455, 4200
388.4575, 4206
388.46, 4169
388.4625, 4246
388.465, 4241
388.4675, 4235
388.47, 4218
388.4725, 4231
388.475, 4232
388.4775, 4157
388.48, 4215
388.4825, 4239
388.485, 4261
388.4875, 4256
388.49, 4287
388.4925, 4289
388.495, 4191
388.4975, 4282
388.5, 4288
388.5025, 4271
388.505, 4263
388.5075, 4272
388.51, 4257
388.5125, 4172
388.515, 4271
388.5175, 4263
388.52, 4269
388.5225, 4253
388.525, 4253
388.5275, 4258
388.53, 4185
388.5325, 4254
388.535, 4229
388.5375, 4229
388.54, 4204
388.5425, 4216
388.545, 4212
388.5475, 4120
388.55, 4193
388.5525, 4215
388.555, 4215
388.5575, 4184
388.56, 4233
388.5625, 4223
388.565, 4114
388.5675, 4204
388.57, 4207
388.5725, 4192
388.575, 4165
388.5775, 4191
388.58, 4177
388.5825, 4108
388.585, 4200
388.5875, 4210
388.59, 4198
388.5925, 4169
388.595, 4209
388.5975, 4182
388.6, 4121
388.6025, 4191
388.605, 4193
388.6075, 4165
388.61, 4168
388.6125, 4182
388.615, 4167
388.6175, 4075
388.62, 4180
388.6225, 4149
388.625, 4156
388.6275, 4136
388.63, 4170
388.6325, 4154
388.635, 4109
388.6375, 4167
388.64, 4172
388.6425, 4127
388.645, 4120
388.6475, 4168
388.65, 4154
388.6525, 4070
388.655, 4149
388.6575, 4156
388.66, 4168
388.6625, 4131
388.665, 4155
388.6675, 4125
388.67, 4055
388.6725, 4125
388.675, 4126
388.6775, 4140
388.68, 4138
388.6825, 4139
388.685, 4142
388.6875, 4053
388.69, 4130
388.6925, 4141
388.695, 4130
388.6975, 4013
388.7, 4145
388.7025, 4172
388.705, 4065
388.7075, 4127
388.71, 4141
388.7125, 4137
388.715, 4136
388.7175, 4139
388.72, 4124
388.7225, 4062
388.725, 4149
388.7275, 4136
388.73, 4140
388.7325, 4127
388.735, 4155
388.7375, 4148
388.74, 4081
388.7425, 4181
388.745, 4156
388.7475, 4172
388.75, 4146
388.7525, 4147
388.755, 4147
388.7575, 4095
388.76, 4188
388.7625, 4201
388.765, 4197
388.7675, 4178
388.77, 4188
388.7725, 4180
388.775, 4119
388.7775, 4175
388.78, 4146
388.7825, 4146
388.785, 4138
388.7875, 4157
388.79, 4166
388.7925, 4094
388.795, 4172
388.7975, 4168
388.8, 4171
388.8025, 4169
388.805, 4195
388.8075, 4183
388.81, 4096
388.8125, 4160
388.815, 4172
388.8175, 4156
388.82, 4157
388.8225, 4187
388.825, 4183
388.8275, 4129
388.83, 4184
388.8325, 4166
388.835, 4163
388.8375, 4138
388.84, 4178
388.8425, 4184
388.845, 4110
388.8475, 4184
388.85, 4191
388.8525, 4161
388.855, 4160
388.8575, 4187
388.86, 4146
388.8625, 4076
388.865, 4175
388.8675, 4173
388.87, 4168
388.8725, 4144
388.875, 4161
388.8775, 4178
388.88, 4109
388.8825, 4184
388.885, 4193
388.8875, 4178
388.89, 4150
388.8925, 4173
388.895, 4149
388.8975, 4075
388.9, 4158
388.9025, 4180
388.905, 4161
388.9075, 4137
388.91, 4176
388.9125, 4180
388.915, 4102
388.9175, 4187
388.92, 4181
388.9225, 4170
388.925, 4167
388.9275, 4176
388.93, 4164
388.9325, 4080
388.935, 4144
388.9375, 4132
388.94, 4139
388.9425, 4090
388.945, 4165
388.9475, 4168
388.95, 4096
388.9525, 4170
388.955, 4181
388.9575, 4161
388.96, 4164
388.9625, 4195
388.965, 4182
388.9675, 4109
388.97, 4145
388.9725, 4164
388.975, 4159
388.9775, 4123
388.98, 4156
388.9825, 4140
388.985, 4076
388.9875, 4181
388.99, 4166
388.9925, 4177
388.995, 4160
388.9975, 4188
389.0, 4174
389.0025, 4123
389.005, 4180
389.0075, 4157
389.01, 4170
389.0125, 4149
389.015, 4165
389.0175, 4149
389.02, 4077
389.0225, 4180
389.025, 4174
389.0275, 4142
389.03, 4104
389.0325, 4119
389.035, 4089
389.0375, 4047
389.04, 4114
389.0425, 4121
389.045, 4094
389.0475, 4108
389.05, 4148
389.0525, 4155
389.055, 4081
389.0575, 4148
389.06, 4181
389.0625, 4154
389.065, 4158
389.0675, 4182
389.07, 4188
389.0725, 4118
389.075, 4195
389.0775, 4176
389.08, 4175
389.0825, 4096
389.085, 4190
389.0875, 4196
389.09, 4117
389.0925, 4191
389.095, 4204
389.0975, 4201
389.1, 4173
389.1025, 4179
389.105, 4181
389.1075, 4120
389.11, 4200
389.1125, 4185
389.115, 4179
389.1175, 4150
389.12, 4192
389.1225, 4195
389.125, 4126
389.1275, 4208
389.13, 4253
389.1325, 4341
389.135, 4390
389.1375, 4453
389.14, 4489
389.1425, 4431
389.145, 4484
389.1475, 4306
389.15, 4100
389.1525, 3823
389.155, 3531
389.1575, 3153
389.16, 2654
389.1625, 2204
389.165, 1673
389.1675, 1461
389.17, 1481
389.1725, 1688
389.175, 2293
389.1775, 3189
389.18, 4342
389.1825, 4968
389.185, 5068
389.1875, 4929
389.19, 4787
389.1925, 4639
389.195, 4502
389.1975, 4554
389.2, 4532
389.2025, 4502
389.205, 4475
389.2075, 4497
389.21, 4509
389.2125, 4468
389.215, 4554
389.2175, 4532
389.22, 4519
389.2225, 4510
389.225, 4532
389.2275, 4513
389.23, 4435
389.2325, 4488
389.235, 4466
389.2375, 4432
389.24, 4433
389.2425, 4444
389.245, 4434
389.2475, 4352
389.25, 4407
389.2525, 4402
389.255, 4382
389.2575, 4378
389.26, 4371
389.2625, 4360
389.265, 4283
389.2675, 4368
389.27, 4334
389.2725, 4327
389.275, 4329
389.2775, 4335
389.28, 4340
389.2825, 4259
389.285, 4339
389.2875, 4318
389.29, 4293
389.2925, 4271
389.295, 4296
389.2975, 4277
389.3, 4209
389.3025, 4265
389.305, 4267
389.3075, 4243
389.31, 4230
389.3125, 4224
389.315, 4225
389.3175, 4142
389.32, 4231
389.3225, 4235
389.325, 4242
389.3275, 4229
389.33, 4224
389.3325, 4201
389.335, 4111
389.3375, 4221
389.34, 4226
389.3425, 4207
389.345, 4160
389.3475, 4234
389.35, 4200
389.3525, 4142
389.355, 4211
389.3575, 4215
389.36, 4203
389.3625, 4222
389.365, 4241
389.3675, 4223
389.37, 4181
389.3725, 4246
389.375, 4249
389.3775, 4226
389.38, 4210
389.3825, 4240
389.385, 4237
389.3875, 4173
389.39, 4229
389.3925, 4232
389.395, 4248
389.3975, 4240
389.4, 4252
389.4025, 4246
389.405, 4150
389.4075, 4254
389.41, 4226
389.4125, 4255
389.415, 4204
389.4175, 4233
389.42, 4230
389.4225, 4149
389.425, 4210
389.4275, 4224
389.43, 4214
389.4325, 4199
389.435, 4225
389.4375, 4205
389.44, 4137
389.4425, 4227
389.445, 4205
389.4475, 4177
389.45, 4158
389.4525, 4187
389.455, 4150
389.4575, 4062
389.46, 4141
389.4625, 4144
389.465, 4136
389.4675, 4106
389.47, 4115
389.4725, 4083
389.475, 4011
389.4775, 4096
389.48, 4100
389.4825, 4099
389.485, 4123
389.4875, 4135
389.49, 4140
389.4925, 4068
389.495, 4154
389.4975, 4170
389.5, 4181
389.5025, 4165
389.505, 4192
389.5075, 4199
389.51, 4108
389.5125, 4199
389.515, 4207
389.5175, 4196
389.52, 4173
389.5225, 4196
389.525, 4196
389.5275, 4129
389.53, 4196
389.5325, 4183
389.535, 4203
389.5375, 4190
389.54, 4215
389.5425, 4209
389.545, 4120
389.5475, 4207
389.55, 4192
389.5525, 4179
389.555, 4155
389.5575, 4196
389.56, 4189
389.5625, 4119
389.565, 4184
389.5675, 4200
389.57, 4187
389.5725, 4181
389.575, 4189
389.5775, 4178
389.58, 4129
389.5825, 4197
389.585, 4200
389.5875, 4176
389.59, 4159
389.5925, 4193
389.595, 4195
389.5975, 4111
389.6, 4172
389.6025, 4182
389.605, 4216
389.6075, 4182
389.61, 4188
389.6125, 4183
389.615, 4113
389.6175, 4190
389.62, 4209
389.6225, 4197
389.625, 4176
389.6275, 4183
389.63, 4169
389.6325, 4110
389.635, 4185
389.6375, 4193
389.64, 4185
389.6425, 4163
389.645, 4179
389.6475, 4180
389.65, 4113
389.6525, 4176
389.655, 4173
389.6575, 4156
389.66, 4133
389.6625, 4181
389.665, 4171
389.6675, 4123
389.67, 4190
389.6725, 4217
389.675, 4185
389.6775, 4161
389.68, 4201
389.6825, 4192
389.685, 4106
389.6875, 4187
389.69, 4185
389.6925, 4180
389.695, 4149
389.6975, 4206
389.7, 4173
389.7025, 4088
389.705, 4167
389.7075, 4191
389.71, 4188
389.7125, 4172
389.715, 4201
389.7175, 4186
389.72, 4112
389.7225, 4210
389.725, 4216
389.7275, 4205
389.73, 4192
389.7325, 4201
389.735, 4196
389.7375, 4128
389.74, 4194
389.7425, 4187
389.745, 4201
389.7475, 4164
389.75, 4207
389.7525, 4178
389.755, 4123
389.7575, 4204
389.76, 4217
389.7625, 4189
389.765, 4190
389.7675, 4190
389.77, 4190
389.7725, 4091
389.775, 4173
389.7775, 4159
389.78, 4184
389.7825, 4145
389.785, 4165
389.7875, 4163
389.79, 4085
389.7925, 4165
389.795, 4186
389.7975, 4185
389.8, 4162
389.8025, 4196
389.805, 4181
389.8075, 4091
389.81, 4182
389.8125, 4163
389.815, 4197
389.8175, 4181
389.82, 4201
389.8225, 4200
389.825, 4127
389.8275, 4174
389.83, 4159
389.8325, 4165
389.835, 4148
389.8375, 4167
389.84, 4181
389.8425, 4116
389.845, 4203
389.8475, 4207
389.85, 4202
389.8525, 4061
389.855, 4188
389.8575, 4188
389.86, 4101
389.8625, 4178
389.865, 4177
389.8675, 4180
389.87, 4168
389.8725, 4209
389.875, 4184
389.8775, 4133
389.88, 4192
389.8825, 4180
389.885, 4202
389.8875, 4186
389.89, 4213
389.8925, 4206
389.895, 4136
389.8975, 4194
389.9, 4193
389.9025, 4152
389.905, 4171
389.9075, 4195
389.91, 4166
389.9125, 4109
389.915, 4201
389.9175, 4204
389.92, 4210
389.9225, 4164
389.925, 4176
389.9275, 4165
389.93, 4091
389.9325, 4168
389.935, 4154
389.9375, 4175
389.94, 4166
389.9425, 4150
389.945, 4151
389.9475, 4064
389.95, 4150
389.9525, 4166
389.955, 4152
389.9575, 4116
389.96, 4129
389.9625, 4148
389.965, 4069
389.9675, 4146
389.97, 4145
389.9725, 4152
389.975, 4143
389.9775, 4175
389.98, 4157
389.9825, 4094
389.985, 4162
389.9875, 4159
389.99, 4144
389.9925, 4124
389.995, 4152
389.9975, 4134
390.0, 4063
390.0025, 4160
390.005, 4163
390.0075, 4139
390.01, 4109
390.0125, 4146
390.015, 4136
390.0175, 4069
390.02, 4155
390.0225, 4178
390.025, 4146
390.0275, 4123
390.03, 4145
390.0325, 4138
390.035, 4072
390.0375, 4168
390.04, 4158
390.0425, 4173
390.045, 4123
390.0475, 4149
390.05, 4160
390.0525, 4092
390.055, 4191
390.0575, 4184
390.06, 4167
390.0625, 4115
390.065, 4130
390.0675, 4120
390.07, 4042
390.0725, 4100
390.075, 4130
390.0775, 4139
390.08, 4077
390.0825, 4126
390.085, 4126
390.0875, 4085
390.09, 4138
390.0925, 4119
390.095, 4130
390.0975, 4071
390.1, 4177
390.1025, 4175
390.105, 4113
390.1075, 4188
390.11, 4184
390.1125, 4177
390.115, 4138
390.1175, 4172
390.12, 4164
390.1225, 4098
390.125, 4165
390.1275, 4160
390.13, 4158
390.1325, 4129
390.135, 4153
390.1375, 4153
390.14, 4068
390.1425, 4154
390.145, 4170
390.1475, 4172
390.15, 4145
390.1525, 4183
390.155, 4199
390.1575, 4137
390.16, 4193
390.1625, 4190
390.165, 4238
390.1675, 4236
390.17, 4407
390.1725, 4395
390.175, 4364
390.1775, 4484
390.18, 4436
390.1825, 4268
390.185, 4050
390.1875, 3824
390.19, 3497
390.1925, 3107
390.195, 2772
390.1975, 2255
390.2, 1799
390.2025, 1567
390.205, 1641
390.2075, 1875
390.21, 2537
390.2125, 3523
390.215, 4312
390.2175, 4758
390.22, 4841
390.2225, 4919
390.225, 4787
390.2275, 4559
390.23, 4552
390.2325, 4544
390.235, 4519
390.2375, 4484
390.24, 4521
390.2425, 4511
390.245, 4454
390.2475, 4525
390.25, 4543
390.2525, 4523
390.255, 4488
390.2575, 4505
390.26, 4505
390.2625, 4440
390.265, 4489
390.2675, 4485
390.27, 4460
390.2725, 4420
390.275, 4440
390.2775, 4408
390.28, 4378
390.2825, 4422
390.285, 4419
390.2875, 4392
390.29, 4361
390.2925, 4364
390.295, 4336
390.2975, 4261
390.3, 4328
390.3025, 4339
390.305, 4337
390.3075, 4320
390.31, 4314
390.3125, 4288
390.315, 4216
390.3175, 4293
390.32, 4277
390.3225, 4274
390.325, 4261
390.3275, 4308
390.33, 4272
390.3325, 4188
390.335, 4242
390.3375, 4232
390.34, 4244
390.3425, 4229
390.345, 4251
390.3475, 4240
390.35, 4149
390.3525, 4248
390.355, 4220
390.3575, 4224
390.36, 4214
390.3625, 4232
390.365, 4242
390.3675, 4153
390.37, 4209
390.3725, 4201
390.375, 4186
390.3775, 4180
390.38, 4205
390.3825, 4214
390.385, 4132
390.3875, 4214
390.39, 4179
390.3925, 4197
390.395, 4183
390.3975, 4204
390.4, 4217
390.4025, 4110
390.405, 4159
390.4075, 4164
390.41, 4171
390.4125, 4159
390.415, 4163
390.4175, 4149
390.42, 4074
390.4225, 4167
390.425, 4169
390.4275, 4166
390.43, 4107
390.4325, 4145
390.435, 4139
390.4375, 4062
390.44, 4159
390.4425, 4157
390.445, 4138
390.4475, 4092
390.45, 4108
390.4525, 4101
390.455, 4028
390.4575, 4099
390.46, 4104
390.4625, 4118
390.465, 4090
390.4675, 4119
390.47, 4103
390.4725, 4045
390.475, 4098
390.4775, 4079
390.48, 4074
390.4825, 4064
390.485, 4063
390.4875, 4069
390.49, 3982
390.4925, 4063
390.495, 4068
390.4975, 4063
390.5, 4050
390.5025, 4076
390.505, 4066
390.5075, 4011
390.51, 4091
390.5125, 4090
390.515, 4104
390.5175, 4106
390.52, 4134
390.5225, 4145
390.525, 4060
390.5275, 4152
390.53, 4155
390.5325, 4170
390.535, 4165
390.5375, 4197
390.54, 4189
390.5425, 4119
390.545, 4201
390.5475, 4213
390.55, 4190
390.5525, 4173
390.555, 4192
390.5575, 4214
390.56, 4146
390.5625, 4252
390.565, 4243
390.5675, 4235
390.57, 4201
390.5725, 4221
390.575, 4208
390.5775, 4135
390.58, 4213
390.5825, 4236
390.585, 4239
390.5875, 4236
390.59, 4246
390.5925, 4258
390.595, 4170
390.5975, 4256
390.6, 4236
390.6025, 4220
390.605, 4196
390.6075, 4201
390.61, 4217
390.6125, 4132
390.615, 4214
390.6175, 4208
390.62, 4202
390.6225, 4196
390.625, 4230
390.6275, 4217
390.63, 4139
390.6325, 4211
390.635, 4206
390.6375, 4196
390.64, 4193
390.6425, 4209
390.645, 4200
390.6475, 4117
390.65, 4205
390.6525, 4208
390.655, 4214
390.6575, 4134
390.66, 4217
390.6625, 4219
390.665, 4122
390.6675, 4212
390.67, 4200
390.6725, 4194
390.675, 4168
390.6775, 4196
390.68, 4208
390.6825, 4140
390.685, 4188
390.6875, 4196
390.69, 4191
390.6925, 4159
390.695, 4193
390.6975, 4195
390.7, 4115
390.7025, 4184
390.705, 4175
390.7075, 4168
390.71, 4155
390.7125, 4194
390.715, 4181
390.7175, 4131
390.72, 4185
390.7225, 4196
390.725, 4196
390.7275, 4178
390.73, 4186
390.7325, 4205
390.735, 4136
390.7375, 4202
390.74, 4207
390.7425, 4200
390.745, 4182
390.7475, 4194
390.75, 4179
390.7525, 4124
390.755, 4199
390.7575, 4191
390.76, 4182
390.7625, 4160
390.765, 4183
390.7675, 4184
390.77, 4118
390.7725, 4208
390.775, 4196
390.7775, 4186
390.78, 4156
390.7825, 4186
390.785, 4172
390.7875, 4090
390.79, 4140
390.7925, 4187
390.795, 4168
390.7975, 4154
390.8, 4184
390.8025, 4184
390.805, 4111
390.8075, 4168
390.81, 4178
390.8125, 4140
390.815, 4128
390.8175, 4162
390.82, 4167
390.8225, 4075
390.825, 4137
390.8275, 4162
390.83, 4159
390.8325, 4146
390.835, 4179
390.8375, 4163
390.84, 4101
390.8425, 4181
390.845, 4184
390.8475, 4159
390.85, 4113
390.8525, 4135
390.855, 4137
390.8575, 4067
390.86, 4127
390.8625, 4161
390.865, 4150
390.8675, 4142
390.87, 4157
390.8725, 4155
390.875, 4104
390.8775, 4121
390.88, 4122
390.8825, 4121
390.885, 3978
390.8875, 4154
390.89, 4164
390.8925, 4076
390.895, 4143
390.8975, 4173
390.9, 4155
390.9025, 4143
390.905, 4165
390.9075, 4149
390.91, 4069
390.9125, 4161
390.915, 4163
390.9175, 4142
390.92, 4130
390.9225, 4178
390.925, 4173
390.9275, 4088
390.93, 4175
390.9325, 4154
390.935, 4136
390.9375, 4130
390.94, 4173
390.9425, 4133
390.945, 4089
390.9475, 4131
390.95, 4141
390.9525, 4123
390.955, 4060
390.9575, 4133
390.96, 4131
390.9625, 4066
390.965, 4119
390.9675, 4168
390.97, 4153
390.9725, 4133
390.975, 4130
390.9775, 4115
390.98, 4059
390.9825, 4125
390.985, 4126
390.9875, 4112
390.99, 4091
390.9925, 4116
390.995, 4113
390.9975, 4032
391.0, 4096
391.0025, 4105
391.005, 4113
391.0075, 4103
391.01, 4142
391.0125, 4139
391.015, 4056
391.0175, 4123
391.02, 4146
391.0225, 4143
391.025, 4054
391.0275, 4140
391.03, 4140
391.0325, 4041
391.035, 4097
391.0375, 4110
391.04, 4103
391.0425, 4088
391.045, 4101
391.0475, 4112
391.05, 4027
391.0525, 4121
391.055, 4106
391.0575, 4120
391.06, 4129
391.0625, 4172
391.065, 4179
391.0675, 4118
391.07, 4224
391.0725, 4219
391.075, 4181
391.0775, 4169
391.08, 4189
391.0825, 4226
391.085, 4156
391.0875, 4222
391.09, 4213
391.0925, 4218
391.095, 4204
391.0975, 4193
391.1, 4195
391.1025, 4122
391.105, 4194
391.1075, 4199
391.11, 4206
391.1125, 4181
391.115, 4190
391.1175, 4223
391.12, 4161
391.1225, 4242
391.125, 4235
391.1275, 4229
391.13, 4195
391.1325, 4226
391.135, 4233
391.1375, 4218
391.14, 4362
391.1425, 4436
391.145, 4472
391.1475, 4478
391.15, 4467
391.1525, 4348
391.155, 4106
391.1575, 3925
391.16, 3711
391.1625, 3386
391.165, 3145
391.1675, 2744
391.17, 2253
391.1725, 1891
391.175, 1750
391.1775, 1833
391.18, 2214
391.1825, 2867
391.185, 3877
391.1875, 4745
391.19, 4958
391.1925, 5122
391.195, 5103
391.1975, 4952
391.2, 4759
391.2025, 4673
391.205, 4632
391.2075, 4523
391.21, 4554
391.2125, 4517
391.215, 4519
391.2175, 4500
391.22, 4518
391.2225, 4514
391.225, 4457
391.2275, 4528
391.23, 4526
391.2325, 4497
391.235, 4451
391.2375, 4463
391.24, 4436
391.2425, 4345
391.245, 4422
391.2475, 4408
391.25, 4429
391.2525, 4381
391.255, 4398
391.2575, 4370
391.26, 4298
391.2625, 4364
391.265, 4372
391.2675, 4342
391.27, 4311
391.2725, 4320
391.275, 4308
391.2775, 4224
391.28, 4296
391.2825, 4310
391.285, 4314
391.2875, 4270
391.29, 4293
391.2925, 4288
391.295, 4216
391.2975, 4284
391.3, 4297
391.3025, 4296
391.305, 4257
391.3075, 4293
391.31, 4264
391.3125, 4188
391.315, 4266
391.3175, 4235
391.32, 4227
391.3225, 4231
391.325, 4225
391.3275, 4236
391.33, 4149
391.3325, 4203
391.335, 4180
391.3375, 4199
391.34, 4175
391.3425, 4205
391.345, 4217
391.3475, 4131
391.35, 4230
391.3525, 4219
391.355, 4236
391.3575, 4062
391.36, 4254
391.3625, 4249
391.365, 4160
391.3675, 4220
391.37, 4222
391.3725, 4217
391.375, 4189
391.3775, 4223
391.38, 4211
391.3825, 4105
391.385, 4199
391.3875, 4180
391.39, 4182
391.3925, 4176
391.395, 4201
391.3975, 4225
391.4, 4126
391.4025, 4195
391.405, 4188
391.4075, 4178
391.41, 4182
391.4125, 4207
391.415, 4207
391.4175, 4155
391.42, 4207
391.4225, 4237
391.425, 4227
391.4275, 4179
391.43, 4198
391.4325, 4186
391.435, 4108
391.4375, 4202
391.44, 4228
391.4425, 4216
391.445, 4186
391.4475, 4204
391.45, 4193
391.4525, 4115
391.455, 4202
391.4575, 4190
391.46, 4187
391.4625, 4168
391.465, 4185
391.4675, 4185
391.47, 4125
391.4725, 4203
391.475, 4204
391.4775, 4204
391.48, 4174
391.4825, 4231
391.485, 4211
391.4875, 4166
391.49, 4215
391.4925, 4206
391.495, 4191
391.4975, 4189
391.5, 4241
391.5025, 4242
391.505, 4168
391.5075, 4251
391.51, 4254
391.5125, 4264
391.515, 4250
391.5175, 4248
391.52, 4247
391.5225, 4185
391.525, 4250
391.5275, 4244
391.53, 4237
391.5325, 4233
391.535, 4255
391.5375, 4243
391.54, 4184
391.5425, 4266
391.545, 4250
391.5475, 4254
391.55, 4240
391.5525, 4251
391.555, 4252
391.5575, 4185
391.56, 4250
391.5625, 4244
391.565, 4242
391.5675, 4235
391.57, 4246
391.5725, 4234
391.575, 4164
391.5775, 4239
391.58, 4221
391.5825, 4240
391.585, 4182
391.5875, 4212
391.59, 4229
391.5925, 4192
391.595, 4203
391.5975, 4215
391.6, 4203
391.6025, 4107
391.605, 4212
391.6075, 4200
391.61, 4116
391.6125, 4189
391.615, 4191
391.6175, 4190
391.62, 4202
391.6225, 4211
391.625, 4183
391.6275, 4119
391.63, 4181
391.6325, 4203
391.635, 4183
391.6375, 4179
391.64, 4213
391.6425, 4183
391.645, 4135
391.6475, 4209
391.65, 4214
391.6525, 4212
391.655, 4194
391.6575, 4237
391.66, 4199
391.6625, 4139
391.665, 4213
391.6675, 4208
391.67, 4198
391.6725, 4156
391.675, 4197
391.6775, 4189
391.68, 4115
391.6825, 4201
391.685, 4202
391.6875, 4197
391.69, 4164
391.6925, 4184
391.695, 4179
391.6975, 4096
391.7, 4183
391.7025, 4168
391.705, 4151
391.7075, 4154
391.71, 4156
391.7125, 4167
391.715, 4089
391.7175, 4158
391.72, 4162
391.7225, 4150
391.725, 4114
391.7275, 4143
391.73, 4147
391.7325, 4081
391.735, 4140
391.7375, 4176
391.74, 4168
391.7425, 4131
391.745, 4153
391.7475, 4160
391.75, 4075
391.7525, 4150
391.755, 4150
391.7575, 4147
391.76, 4151
391.7625, 4145
391.765, 4159
391.7675, 4096
391.77, 4155
391.7725, 4173
391.775, 4170
391.7775, 4141
391.78, 4147
391.7825, 4145
391.785, 4067
391.7875, 4152
391.79, 4143
391.7925, 4141
391.795, 4130
391.7975, 4150
391.8, 4156
391.8025, 4097
391.805, 4189
391.8075, 4166
391.81, 4163
391.8125, 4134
391.815, 4166
391.8175, 4165
391.82, 4075
391.8225, 4162
391.825, 4145
391.8275, 4144
391.83, 4111
391.8325, 4120
391.835, 4123
391.8375, 4078
391.84, 4153
391.8425, 4162
391.845, 4169
391.8475, 4148
391.85, 4157
391.8525, 4131
391.855, 4055
391.8575, 4121
391.86, 4128
391.8625, 4121
391.865, 4116
391.8675, 4153
391.87, 4155
391.8725, 4082
391.875, 4140
391.8775, 4138
391.88, 4104
391.8825, 4093
391.885, 4103
391.8875, 4116
391.89, 4068
391.8925, 4127
391.895, 4145
391.8975, 4139
391.9, 4118
391.9025, 4166
391.905, 4160
391.9075, 4086
391.91, 4141
391.9125, 4136
391.915, 4137
391.9175, 4125
391.92, 4132
391.9225, 4133
391.925, 4044
391.9275, 4140
391.93, 4127
391.9325, 4149
391.935, 4134
391.9375, 4138
391.94, 4153
391.9425, 4084
391.945, 4150
391.9475, 4148
391.95, 4142
391.9525, 4150
391.955, 4179
391.9575, 4162
391.96, 4063
391.9625, 4135
391.965, 4129
391.9675, 4163
391.97, 4177
391.9725, 4203
391.975, 4172
391.9775, 4101
391.98, 4176
391.9825, 4190
391.985, 4177
391.9875, 4168
391.99, 4194
391.9925, 4177
391.995, 4095
391.9975, 4181
392.0, 4186
392.0025, 4194
392.005, 4180
392.0075, 4188
392.01, 4173
392.0125, 4088
392.015, 4171
392.0175, 4173
392.02, 4151
392.0225, 4149
392.025, 4159
392.0275, 4177
392.03, 4096
392.0325, 4169
392.035, 4175
392.0375, 4172
392.04, 4143
392.0425, 4173
392.045, 4171
392.0475, 4080
392.05, 4158
392.0525, 4172
392.055, 4171
392.0575, 4146
392.06, 4172
392.0625, 4179
392.065, 4092
392.0675, 4137
392.07, 4153
392.0725, 4148
392.075, 4077
392.0775, 4179
392.08, 4179
392.0825, 4091
392.085, 4139
392.0875, 4122
392.09, 4099
392.0925, 4115
392.095, 4140
392.0975, 4151
392.1, 4070
392.1025, 4143
392.105, 4134
392.1075, 4108
392.11, 4077
392.1125, 4112
392.115, 4123
392.1175, 4087
392.12, 4161
392.1225, 4179
392.125, 4182
392.1275, 4160
392.13, 4187
392.1325, 4192
392.135, 4115
392.1375, 4187
392.14, 4190
392.1425, 4201
392.145, 4187
392.1475, 4197
392.15, 4175
392.1525, 4103
392.155, 4176
392.1575, 4167
392.16, 4167
392.1625, 4162
392.165, 4174
392.1675, 4190
392.17, 4108
392.1725, 4186
392.175, 4180
392.1775, 4172
392.18, 4093
392.1825, 4212
392.185, 4186
392.1875, 4150
392.19, 4285
392.1925, 4377
392.195, 4428
392.1975, 4449
392.2, 4514
392.2025, 4524
392.205, 4372
392.2075, 4262
392.21, 4064
392.2125, 3788
392.215, 3399
392.2175, 3104
392.22, 2674
392.2225, 2077
392.225, 1726
392.2275, 1551
392.23, 1616
392.2325, 1952
392.235, 2775
392.2375, 3722
392.24, 4420
392.2425, 4902
392.245, 4992
392.2475, 4928
392.25, 4684
392.2525, 4648
392.255, 4586
392.2575, 4496
392.26, 4539
392.2625, 4523
392.265, 4525
392.2675, 4512
392.27, 4539
392.2725, 4544
392.275, 4464
392.2775, 4539
392.28, 4526
392.2825, 4513
392.285, 4495
392.2875, 4476
392.29, 4465
392.2925, 4375
392.295, 4456
392.2975, 4452
392.3, 4432
392.3025, 4433
392.305, 4454
392.3075, 4429
392.31, 4346
392.3125, 4420
392.315, 4387
392.3175, 4372
392.32, 4345
392.3225, 4366
392.325, 4371
392.3275, 4274
392.33, 4335
392.3325, 4337
392.335, 4318
392.3375, 4312
392.34, 4308
392.3425, 4308
392.345, 4252
392.3475, 4302
392.35, 4271
392.3525, 4280
392.355, 4273
392.3575, 4264
392.36, 4267
392.3625, 4176
392.365, 4234
392.3675, 4229
392.37, 4206
392.3725, 4189
392.375, 4235
392.3775, 4240
392.38, 4168
392.3825, 4235
392.385, 4261
392.3875, 4236
392.39, 4204
392.3925, 4195
392.395, 4234
392.3975, 4168
392.4, 4221
392.4025, 4228
392.405, 4220
392.4075, 4185
392.41, 4216
392.4125, 4216
392.415, 4147
392.4175, 4222
392.42, 4223
392.4225, 4209
392.425, 4189
392.4275, 4214
392.43, 4230
392.4325, 4159
392.435, 4234
392.4375, 4218
392.44, 4238
392.4425, 4218
392.445, 4244
392.4475, 4234
392.45, 4168
392.4525, 4233
392.455, 4231
392.4575, 4244
392.46, 4221
392.4625, 4250
392.465, 4259
392.4675, 4193
392.47, 4254
392.4725, 4253
392.475, 4249
392.4775, 4235
392.48, 4272
392.4825, 4270
392.485, 4187
392.4875, 4273
392.49, 4264
392.4925, 4267
392.495, 4237
392.4975, 4239
392.5, 4227
392.5025, 4158
392.505, 4211
392.5075, 4184
392.51, 4184
392.5125, 4182
392.515, 4193
392.5175, 4155
392.52, 4067
392.5225, 4122
392.525, 4100
392.5275, 4095
392.53, 4111
392.5325, 4129
392.535, 4129
392.5375, 4067
392.54, 4115
392.5425, 4118
392.545, 4126
392.5475, 4118
392.55, 4159
392.5525, 4153
392.555, 4080
392.5575, 4139
392.56, 4146
392.5625, 4148
392.565, 4126
392.5675, 4150
392.57, 4152
392.5725, 4097
392.575, 4181
392.5775, 4194
392.58, 4182
392.5825, 4171
392.585, 4189
392.5875, 4200
392.59, 4119
392.5925, 4188
392.595, 4176
392.5975, 4153
392.6, 4130
392.6025, 4154
392.605, 4143
392.6075, 4101
392.61, 4173
392.6125, 4170
392.615, 4160
392.6175, 4135
392.62, 4164
392.6225, 4160
392.625, 4070
392.6275, 4134
392.63, 4120
392.6325, 4129
392.635, 4102
392.6375, 4127
392.64, 4132
392.6425, 4060
392.645, 4120
392.6475, 4135
392.65, 4148
392.6525, 4101
392.655, 4156
392.6575, 4134
392.66, 4071
392.6625, 4161
392.665, 4166
392.6675, 4173
392.67, 4140
392.6725, 4160
392.675, 4146
392.6775, 4071
392.68, 4134
392.6825, 4132
392.685, 4126
392.6875, 4133
392.69, 4138
392.6925, 4133
392.695, 4051
392.6975, 4138
392.7, 4150
392.7025, 4183
392.705, 4140
392.7075, 4159
392.71, 4154
392.7125, 4096
392.715, 4193
392.7175, 4191
392.72, 4178
392.7225, 4157
392.725, 4192
392.7275, 4172
392.73, 4091
392.7325, 4178
392.735, 4180
392.7375, 4189
392.74, 4207
392.7425, 4216
392.745, 4200
392.7475, 4105
392.75, 4191
392.7525, 4205
392.755, 4209
392.7575, 4195
392.76, 4229
392.7625, 4210
392.765, 4141
392.7675, 4192
392.77, 4187
392.7725, 4176
392.775, 4158
392.7775, 4195
392.78, 4222
392.7825, 4153
392.785, 4223
392.7875, 4221
392.79, 4235
392.7925, 4133
392.795, 4227
392.7975, 4204
392.8, 4136
392.8025, 4185
392.805, 4210
392.8075, 4206
392.81, 4158
392.8125, 4201
392.815, 4176
392.8175, 4132
392.82, 4157
392.8225, 4170
392.825, 4162
392.8275, 4087
392.83, 4206
392.8325, 4195
392.835, 4105
392.8375, 4169
392.84, 4182
392.8425, 4197
392.845, 4188
392.8475, 4196
392.85, 4182
392.8525, 4086
392.855, 4165
392.8575, 4157
392.86, 4149
392.8625, 4156
392.865, 4164
392.8675, 4181
392.87, 4102
392.8725, 4152
392.875, 4152
392.8775, 4137
392.88, 4120
392.8825, 4152
392.885, 4143
392.8875, 4083
392.89, 4129
392.8925, 4117
392.895, 4143
392.8975, 4116
392.9, 4132
392.9025, 4134
392.905, 4078
392.9075, 4154
392.91, 4152
392.9125, 4163
392.915, 4138
392.9175, 4152
392.92, 4147
392.9225, 4092
392.925, 4143
392.9275, 4162
392.93, 4153
392.9325, 4122
392.935, 4169
392.9375, 4137
392.94, 4087
392.9425, 4143
392.945, 4144
392.9475, 4149
392.95, 4136
392.9525, 4147
392.955, 4143
392.9575, 4087
392.96, 4164
392.9625, 4145
392.965, 4154
392.9675, 4078
392.97, 4170
392.9725, 4169
392.975, 4100
392.9775, 4169
392.98, 4172
392.9825, 4166
392.985, 4138
392.9875, 4191
392.99, 4177
392.9925, 4112
392.995, 4180
392.9975, 4180
393.0, 4165
393.0025, 4164
393.005, 4188
393.0075, 4193
393.01, 4104
393.0125, 4187
393.015, 4177
393.0175, 4185
393.02, 4120
393.0225, 4143
393.025, 4146
393.0275, 4081
393.03, 4142
393.0325, 4147
393.035, 4127
393.0375, 4098
393.04, 4104
393.0425, 4112
393.045, 4041
393.0475, 4106
393.05, 4119
393.0525, 4104
393.055, 4077
393.0575, 4111
393.06, 4110
393.0625, 4053
393.065, 4111
393.0675, 4108
393.07, 4116
393.0725, 4098
393.075, 4131
393.0775, 4108
393.08, 4049
393.0825, 4129
393.085, 4135
393.0875, 4127
393.09, 4044
393.0925, 4149
393.095, 4160
393.0975, 4063
393.1, 4143
393.1025, 4120
393.105, 4120
393.1075, 4125
393.11, 4129
393.1125, 4120
393.115, 4085
393.1175, 4162
393.12, 4150
393.1225, 4124
393.125, 4142
393.1275, 4172
393.13, 4140
393.1325, 4074
393.135, 4154
393.1375, 4157
393.14, 4145
393.1425, 4103
393.145, 4132
393.1475, 4148
393.15, 4079
393.1525, 4142
393.155, 4165
393.1575, 4162
393.16, 4168
393.1625, 4159
393.165, 4150
393.1675, 4085
393.17, 4158
393.1725, 4161
393.175, 4165
393.1775, 4143
393.18, 4161
393.1825, 4174
393.185, 4101
393.1875, 4183
393.19, 4183
393.1925, 4187
393.195, 4160
393.1975, 4191
393.2, 4181
393.2025, 4123
393.205, 4198
393.2075, 4204
393.21, 4153
393.2125, 4115
393.215, 4139
393.2175, 4126
393.22, 4026
393.2225, 4101
393.225, 4121
393.2275, 4137
393.23, 4115
393.2325, 4152
393.235, 4158
393.2375, 4116
393.24, 4197
393.2425, 4182
393.245, 4201
393.2475, 4175
393.25, 4192
393.2525, 4200
393.255, 4156
393.2575, 4216
393.26, 4194
393.2625, 4205
393.265, 4176
393.2675, 4215
393.27, 4211
393.2725, 4116
393.275, 4190
393.2775, 4175
393.28, 4161
393.2825, 4187
393.285, 4189
393.2875, 4208
393.29, 4129
393.2925, 4174
393.295, 4202
393.2975, 4215
393.3, 4191
393.3025, 4212
393.305, 4201
393.3075, 4159
393.31, 4248
393.3125, 4291
393.315, 4366
393.3175, 4397
393.32, 4442
393.3225, 4467
393.325, 4415
393.3275, 4408
393.33, 4236
393.3325, 4002
393.335, 3757
393.3375, 3431
393.34, 3184
393.3425, 2724
393.345, 2287
393.3475, 1971
393.35, 1790
393.3525, 1844
393.355, 2172
393.3575, 2767
393.36, 3614
393.3625, 4615
393.365, 5010
393.3675, 5128
393.37, 5084
393.3725, 4982
393.375, 4818
393.3775, 4605
393.38, 4594
393.3825, 4576
393.385, 4515
393.3875, 4480
393.39, 4511
393.3925, 4533
393.395, 4454
393.3975, 4516
393.4, 4519
393.4025, 4502
393.405, 4472
393.4075, 4471
393.41, 4450
393.4125, 4381
393.415, 4429
393.4175, 4448
393.42, 4407
393.4225, 4363
393.425, 4389
393.4275, 4397
393.43, 4332
393.4325, 4362
393.435, 4350
393.4375, 4345
393.44, 4327
393.4425, 4331
393.445, 4321
393.4475, 4240
393.45, 4291
393.4525, 4290
393.455, 4272
393.4575, 4262
393.46, 4276
393.4625, 4292
393.465, 4235
393.4675, 4279
393.47, 4259
393.4725, 4260
393.475, 4243
393.4775, 4258
393.48, 4264
393.4825, 4186
393.485, 4256
393.4875, 4251
393.49, 4257
393.4925, 4206
393.495, 4231
393.4975, 4227
393.5, 4160
393.5025, 4228
393.505, 4227
393.5075, 4229
393.51, 4230
393.5125, 4216
393.515, 4225
393.5175, 4156
393.52, 4208
393.5225, 4211
393.525, 4227
393.5275, 4201
393.53, 4220
393.5325, 4223
393.535, 4141
393.5375, 4200
393.54, 4189
393.5425, 4192
393.545, 4178
393.5475, 4183
393.55, 4183
393.5525, 4102
393.555, 4172
393.5575, 4196
393.56, 4203
393.5625, 4119
393.565, 4186
393.5675, 4191
393.57, 4122
393.5725, 4202
393.575, 4185
393.5775, 4212
393.58, 4162
393.5825, 4202
393.585, 4196
393.5875, 4127
393.59, 4193
393.5925, 4170
393.595, 4183
393.5975, 4160
393.6, 4189
393.6025, 4192
393.605, 4136
393.6075, 4221
393.61, 4209
393.6125, 4210
393.615, 4192
393.6175, 4213
393.62, 4240
393.6225, 4146
393.625, 4221
393.6275, 4247
393.63, 4219
393.6325, 4229
393.635, 4219
393.6375, 4205
393.64, 4163
393.6425, 4208
393.645, 4193
393.6475, 4221
393.65, 4193
393.6525, 4205
393.655, 4215
393.6575, 4159
393.66, 4215
393.6625, 4222
393.665, 4208
393.6675, 4196
393.67, 4201
393.6725, 4189
393.675, 4126
393.6775, 4207
393.68, 4222
393.6825, 4236
393.685, 4213
393.6875, 4248
393.69, 4224
393.6925, 4173
393.695, 4250
393.6975, 4255
393.7, 4251
393.7025, 4255
393.705, 4260
393.7075, 4272
393.71, 4208
393.7125, 4276
393.715, 4251
393.7175, 4245
393.72, 4246
393.7225, 4260
393.725, 4241
393.7275, 4177
393.73, 4253
393.7325, 4252
393.735, 4255
393.7375, 4234
393.74, 4263
393.7425, 4241
393.745, 4160
393.7475, 4239
393.75, 4239
393.7525, 4218
393.755, 4187
393.7575, 4200
393.76, 4218
393.7625, 4153
393.765, 4230
393.7675, 4219
393.77, 4209
393.7725, 4201
393.775, 4214
393.7775, 4197
393.78, 4123
393.7825, 4204
393.785, 4209
393.7875, 4197
393.79, 4152
393.7925, 4182
393.795, 4199
393.7975, 4128
393.8, 4187
393.8025, 4193
393.805, 4204
393.8075, 4161
393.81, 4166
393.8125, 4187
393.815, 4123
393.8175, 4200
393.82, 4196
393.8225, 4181
393.825, 4167
393.8275, 4201
393.83, 4198
393.8325, 4127
393.835, 4205
393.8375, 4224
393.84, 4195
393.8425, 4170
393.845, 4205
393.8475, 4218
393.85, 4157
393.8525, 4221
393.855, 4230
393.8575, 4235
393.86, 4193
393.8625, 4238
393.865, 4234
393.8675, 4154
393.87, 4226
393.8725, 4227
393.875, 4220
393.8775, 4207
393.88, 4215
393.8825, 4214
393.885, 4162
393.8875, 4221
393.89, 4233
393.8925, 4208
393.895, 4167
393.8975, 4190
393.9, 4205
393.9025, 4134
393.905, 4224
393.9075, 4205
393.91, 4230
393.9125, 4181
393.915, 4222
393.9175, 4202
393.92, 4119
393.9225, 4173
393.925, 4168
393.9275, 4174
393.93, 4168
393.9325, 4155
393.935, 4167
393.9375, 4124
393.94, 4193
393.9425, 4178
393.945, 4161
393.9475, 4146
393.95, 4187
393.9525, 4180
393.955, 4097
393.9575, 4169
393.96, 4189
393.9625, 4178
393.965, 4157
393.9675, 4198
393.97, 4164
393.9725, 4098
393.975, 4166
393.9775, 4144
393.98, 4129
393.9825, 4135
393.985, 4167
393.9875, 4154
393.99, 4080
393.9925, 4172
393.995, 4160
393.9975, 4151
394.0, 4148
394.0025, 4164
394.005, 4160
394.0075, 4083
394.01, 4161
394.0125, 4179
394.015, 4174
394.0175, 4123
394.02, 4161
394.0225, 4160
394.025, 4091
394.0275, 4159
394.03, 4174
394.0325, 4159
394.035, 4128
394.0375, 4151
394.04, 4128
394.0425, 4090
394.045, 4158
394.0475, 4160
394.05, 4150
394.0525, 4116
394.055, 4149
394.0575, 4151
394.06, 4088
394.0625, 4145
394.065, 4141
394.0675, 4144
394.07, 4119
394.0725, 4137
394.075, 4145
394.0775, 4080
394.08, 4163
394.0825, 4146
394.085, 4130
394.0875, 4120
394.09, 4138
394.0925, 4140
394.095, 4098
394.0975, 4168
394.1, 4176
394.1025, 4153
394.105, 4163
394.1075, 4183
394.11, 4170
394.1125, 4120
394.115, 4188
394.1175, 4180
394.12, 4168
394.1225, 4161
394.125, 4166
394.1275, 4180
394.13, 4111
394.1325, 4157
394.135, 4175
394.1375, 4172
394.14, 4125
394.1425, 4154
394.145, 4132
394.1475, 4080
394.15, 4131
394.1525, 4151
394.155, 4153
394.1575, 4134
394.16, 4139
394.1625, 4126
394.165, 4044
394.1675, 4141
394.17, 4148
394.1725, 4136
394.175, 4136
394.1775, 4164
394.18, 4160
394.1825, 4109
394.185, 4189
394.1875, 4158
394.19, 4161
394.1925, 4099
394.195, 4201
394.1975, 4188
394.2, 4119
394.2025, 4176
394.205, 4178
394.2075, 4162
394.21, 4134
394.2125, 4154
394.215, 4148
394.2175, 4116
394.22, 4171
394.2225, 4138
394.225, 4131
394.2275, 4133
394.23, 4124
394.2325, 4110
394.235, 4039
394.2375, 4104
394.24, 4110
394.2425, 4087
394.245, 4070
394.2475, 4111
394.25, 4119
394.2525, 4070
394.255, 4161
394.2575, 4160
394.26, 4149
394.2625, 4159
394.265, 4181
394.2675, 4181
394.27, 4119
394.2725, 4167
394.275, 4169
394.2775, 4143
394.28, 4167
394.2825, 4195
394.285, 4180
394.2875, 4120
394.29, 4197
394.2925, 4172
394.295, 4181
394.2975, 4172
394.3, 4211
394.3025, 4201
394.305, 4145
394.3075, 4201
394.31, 4190
394.3125, 4176
394.315, 4139
394.3175, 4157
394.32, 4173
394.3225, 4089
394.325, 4154
394.3275, 4145
394.33, 4174
394.3325, 4188
394.335, 4250
394.3375, 4358
394.34, 4337
394.3425, 4434
394.345, 4475
394.3475, 4495
394.35, 4408
394.3525, 4261
394.355, 4013
394.3575, 3660
394.36, 3385
394.3625, 3056
394.365, 2618
394.3675, 2033
394.37, 1688
394.3725, 1504
394.375, 1561
394.3775, 1973
394.38, 2765
394.3825, 3722
394.385, 4497
394.3875, 4912
394.39, 4980
394.3925, 4831
394.395, 4743
394.3975, 4602
394.4, 4521
394.4025, 4494
394.405, 4498
394.4075, 4485
394.41, 4418
394.4125, 4476
394.415, 4502
394.4175, 4501
394.42, 4502
394.4225, 4517
394.425, 4507
394.4275, 4423
394.43, 4488
394.4325, 4489
394.435, 4468
394.4375, 4424
394.44, 4445
394.4425, 4448
394.445, 4343
394.4475, 4408
394.45, 4395
394.4525, 4409
394.455, 4372
394.4575, 4392
394.46, 4374
394.4625, 4304
394.465, 4363
394.4675, 4344
394.47, 4332
394.4725, 4321
394.475, 4358
394.4775, 4350
394.48, 4279
394.4825, 4326
394.485, 4323
394.4875, 4308
394.49, 4287
394.4925, 4313
394.495, 4274
394.4975, 4207
394.5, 4280
394.5025, 4262
394.505, 4258
394.5075, 4241
394.51, 4260
394.5125, 4288
394.515, 4197
394.5175, 4277
394.52, 4251
394.5225, 4238
394.525, 4169
394.5275, 4254
394.53, 4254
394.5325, 4170
394.535, 4237
394.5375, 4243
394.54, 4226
394.5425, 4217
394.545, 4203
394.5475, 4198
394.55, 4143
394.5525, 4219
394.555, 4223
394.5575, 4221
394.56, 4199
394.5625, 4217
394.565, 4228
394.5675, 4136
394.57, 4201
394.5725, 4202
394.575, 4196
394.5775, 4148
394.58, 4185
394.5825, 4208
394.585, 4148
394.5875, 4217
394.59, 4216
394.5925, 4206
394.595, 4135
394.5975, 4216
394.6, 4214
394.6025, 4137
394.605, 4212
394.6075, 4211
394.61, 4210
394.6125, 4181
394.615, 4201
394.6175, 4202
394.62, 4142
394.6225, 4205
394.625, 4212
394.6275, 4203
394.63, 4163
394.6325, 4187
394.635, 4173
394.6375, 4125
394.64, 4199
394.6425, 4205
394.645, 4189
394.6475, 4148
394.65, 4170
394.6525, 4150
394.655, 4080
394.6575, 4142
394.66, 4141
394.6625, 4135
394.665, 4084
394.6675, 4120
394.67, 4110
394.6725, 4058
394.675, 4088
394.6775, 4091
394.68, 4100
394.6825, 4111
394.685, 4121
394.6875, 4128
394.69, 4071
394.6925, 4131
394.695, 4137
394.6975, 4140
394.7, 4153
394.7025, 4163
394.705, 4167
394.7075, 4121
394.71, 4183
394.7125, 4196
394.715, 4173
394.7175, 4159
394.72, 4197
394.7225, 4221
394.725, 4149
394.7275, 4225
394.73, 4221
394.7325, 4222
394.735, 4230
394.7375, 4237
394.74, 4228
394.7425, 4130
394.745, 4210
394.7475, 4200
394.75, 4204
394.7525, 4193
394.755, 4203
394.7575, 4189
394.76, 4128
394.7625, 4180
394.765, 4182
394.7675, 4184
394.77, 4160
394.7725, 4176
394.775, 4182
394.7775, 4113
394.78, 4184
394.7825, 4181
394.785, 4191
394.7875, 4150
394.79, 4184
394.7925, 4170
394.795, 4095
394.7975, 4184
394.8, 4203
394.8025, 4170
394.805, 4150
394.8075, 4149
394.81, 4166
394.8125, 4099
394.815, 4164
394.8175, 4171
394.82, 4160
394.8225, 4136
394.825, 4166
394.8275, 4132
394.83, 4076
394.8325, 4178
394.835, 4149
394.8375, 4136
394.84, 4111
394.8425, 4168
394.845, 4166
394.8475, 4092
394.85, 4154
394.8525, 4171
394.855, 4161
394.8575, 4130
394.86, 4136
394.8625, 4132
394.865, 4077
394.8675, 4161
394.87, 4157
394.8725, 4152
394.875, 4148
394.8775, 4163
394.88, 4167
394.8825, 4101
394.885, 4168
394.8875, 4164
394.89, 4137
394.8925, 4111
394.895, 4137
394.8975, 4137
394.9, 4069
394.9025, 4156
394.905, 4159
394.9075, 4180
394.91, 4146
394.9125, 4171
394.915, 4193
394.9175, 4114
394.92, 4164
394.9225, 4155
394.925, 4158
394.9275, 4120
394.93, 4147
394.9325, 4159
394.935, 4075
394.9375, 4176
394.94, 4157
394.9425, 4154
394.945, 4127
394.9475, 4154
394.95, 4174
394.9525, 4100
394.955, 4179
394.9575, 4170
394.96, 4173
394.9625, 4161
394.965, 4177
394.9675, 4176
394.97, 4087
394.9725, 4154
394.975, 4158
394.9775, 4139
394.98, 4124
394.9825, 4164
394.985, 4145
394.9875, 4065
394.99, 4135
394.9925, 4121
394.995, 4138
394.9975, 4125
395.0, 4156
395.0025, 4149
395.005, 4100
395.0075, 4153
395.01, 4149
395.0125, 4147
395.015, 4141
395.0175, 4157
395.02, 4186
395.0225, 4101
395.025, 4167
395.0275, 4165
395.03, 4173
395.0325, 4164
395.035, 4198
395.0375, 4175
395.04, 4089
395.0425, 4158
395.045, 4153
395.0475, 4166
395.05, 4152
395.0525, 4184
395.055, 4185
395.0575, 4097
395.06, 4170
395.0625, 4195
395.065, 4184
395.0675, 4159
395.07, 4189
395.0725, 4172
395.075, 4094
395.0775, 4162
395.08, 4162
395.0825, 4149
395.085, 4149
395.0875, 4155
395.09, 4161
395.0925, 4105
395.095, 4180
395.0975, 4164
395.1, 4141
395.1025, 4161
395.105, 4175
395.1075, 4161
395.11, 4110
395.1125, 4202
395.115, 4180
395.1175, 4189
395.12, 4164
395.1225, 4185
395.125, 4184
395.1275, 4120
395.13, 4173
395.1325, 4192
395.135, 4173
395.1375, 4147
395.14, 4178
395.1425, 4181
395.145, 4108
395.1475, 4179
395.15, 4182
395.1525, 4185
395.155, 4137
395.1575, 4169
395.16, 4150
395.1625, 4101
395.165, 4168
395.1675, 4180
395.17, 4159
395.1725, 4142
395.175, 4169
395.1775, 4172
395.18, 4125
395.1825, 4182
395.185, 4174
395.1875, 4156
395.19, 4157
395.1925, 4184
395.195, 4178
395.1975, 4133
395.2, 4194
395.2025, 4203
395.205, 4200
395.2075, 4192
395.21, 4207
395.2125, 4221
395.215, 4156
395.2175, 4193
395.22, 4183
395.2225, 4176
395.225, 4140
395.2275, 4156
395.23, 4158
395.2325, 4110
395.235, 4190
395.2375, 4203
395.24, 4178
395.2425, 4161
395.245, 4186
395.2475, 4206
395.25, 4154
395.2525, 4215
395.255, 4209
395.2575, 4216
395.26, 4184
395.2625, 4205
395.265, 4198
395.2675, 4131
395.27, 4198
395.2725, 4222
395.275, 4209
395.2775, 4178
395.28, 4209
395.2825, 4195
395.285, 4105
395.2875, 4180
395.29, 4189
395.2925, 4172
395.295, 4153
395.2975, 4146
395.3, 4137
395.3025, 4063
395.305, 4161
395.3075, 4158
395.31, 4173
395.3125, 4136
395.315, 4157
395.3175, 4186
395.32, 4137
395.3225, 4210
395.325, 4219
395.3275, 4190
395.33, 4214
395.3325, 4204
395.335, 4183
395.3375, 4116
395.34, 4170
395.3425, 4179
395.345, 4190
395.3475, 4193
395.35, 4196
395.3525, 4199
395.355, 4129
395.3575, 4220
395.36, 4203
395.3625, 4179
395.365, 4156
395.3675, 4167
395.37, 4169
395.3725, 4107
395.375, 4172
395.3775, 4176
395.38, 4180
395.3825, 4165
395.385, 4219
395.3875, 4296
395.39, 4308
395.3925, 4410
395.395, 4465
395.3975, 4491
395.4, 4461
395.4025, 4337
395.405, 4162
395.4075, 3874
395.41, 3677
395.4125, 3372
395.415, 2983
395.4175, 2477
395.42, 2041
395.4225, 1759
395.425, 1639
395.4275, 1844
395.43, 2296
395.4325, 3159
395.435, 4072
395.4375, 4718
395.44, 4972
395.4425, 4967
395.445, 4964
395.4475, 4803
395.45, 4668
395.4525, 4563
395.455, 4556
395.4575, 4508
395.46, 4404
395.4625, 4463
395.465, 4478
395.4675, 4480
395.47, 4477
395.4725, 4501
395.475, 4494
395.4775, 4422
395.48, 4474
395.4825, 4456
395.485, 4457
395.4875, 4402
395.49, 4424
395.4925, 4407
395.495, 4326
395.4975, 4382
395.5, 4385
395.5025, 4376
395.505, 4355
395.5075, 4335
395.51, 4330
395.5125, 4262
395.515, 4329
395.5175, 4330
395.52, 4324
395.5225, 4299
395.525, 4315
395.5275, 4319
395.53, 4233
395.5325, 4319
395.535, 4317
395.5375, 4296
395.54, 4257
395.5425, 4292
395.545, 4275
395.5475, 4204
395.55, 4278
395.5525, 4287
395.555, 4257
395.5575, 4254
395.56, 4258
395.5625, 4259
395.565, 4184
395.5675, 4217
395.57, 4225
395.5725, 4216
395.575, 4153
395.5775, 4199
395.58, 4187
395.5825, 4132
395.585, 4204
395.5875, 4196
395.59, 4179
395.5925, 4157
395.595, 4176
395.5975, 4199
395.6, 4155
395.6025, 4227
395.605, 4205
395.6075, 4189
395.61, 4194
395.6125, 4221
395.615, 4197
395.6175, 4143
395.62, 4205
395.6225, 4177
395.625, 4174
395.6275, 4160
395.63, 4194
395.6325, 4181
395.635, 4142
395.6375, 4186
395.64, 4183
395.6425, 4181
395.645, 4170
395.6475, 4192
395.65, 4169
395.6525, 4110
395.655, 4202
395.6575, 4215
395.66, 4215
395.6625, 4184
395.665, 4201
395.6675, 4192
395.67, 4119
395.6725, 4148
395.675, 4161
395.6775, 4178
395.68, 4146
395.6825, 4170
395.685, 4182
395.6875, 4137
395.69, 4193
395.6925, 4191
395.695, 4191
395.6975, 4168
395.7, 4179
395.7025, 4166
395.705, 4081
395.7075, 4152
395.71, 4150
395.7125, 4147
395.715, 4138
395.7175, 4156
395.72, 4155
395.7225, 4079
395.725, 4173
395.7275, 4179
395.73, 4183
395.7325, 4133
395.735, 4165
395.7375, 4182
395.74, 4115
395.7425, 4191
395.745, 4195
395.7475, 4188
395.75, 4150
395.7525, 4193
395.755, 4191
395.7575, 4129
395.76, 4200
395.7625, 4217
395.765, 4202
395.7675, 4195
395.77, 4224
395.7725, 4232
395.775, 4191
395.7775, 4241
395.78, 4236
395.7825, 4238
395.785, 4100
395.7875, 4168
395.79, 4291
395.7925, 4199
395.795, 4255
395.7975, 4246
395.8, 4235
395.8025, 4172
395.805, 4251
395.8075, 4223
395.81, 4191
395.8125, 4252
395.815, 4245
395.8175, 4228
395.82, 4114
395.8225, 4199
395.825, 4200
395.8275, 4147
395.83, 4198
395.8325, 4174
395.835, 4178
395.8375, 4171
395.84, 4181
395.8425, 4164
395.845, 4079
395.8475, 4149
395.85, 4162
395.8525, 4162
395.855, 4126
395.8575, 4169
395.86, 4142
395.8625, 4084
395.865, 4153
395.8675, 4152
395.87, 4148
395.8725, 4143
395.875, 4150
395.8775, 4155
395.88, 4114
395.8825, 4167
395.885, 4179
395.8875, 4156
395.89, 4154
395.8925, 4190
395.895, 4174
395.8975, 4119
395.9, 4207
395.9025, 4179
395.905, 4166
395.9075, 4159
395.91, 4208
395.9125, 4190
395.915, 4126
395.9175, 4199
395.92, 4185
395.9225, 4152
395.925, 4135
395.9275, 4177
395.93, 4187
395.9325, 4105
395.935, 4172
395.9375, 4176
395.94, 4168
395.9425, 4149
395.945, 4162
395.9475, 4158
395.95, 4088
395.9525, 4155
395.955, 4161
395.9575, 4153
395.96, 4158
395.9625, 4183
395.965, 4179
395.9675, 4121
395.97, 4172
395.9725, 4163
395.975, 4168
395.9775, 4158
395.98, 4187
395.9825, 4200
395.985, 4116
395.9875, 4162
395.99, 4144
395.9925, 4143
395.995, 4114
395.9975, 4175
396.0, 4151
396.0025, 4078
396.005, 4169
396.0075, 4164
396.01, 4157
396.0125, 4159
396.015, 4147
396.0175, 4157
396.02, 4101
396.0225, 4166
396.025, 4179
396.0275, 4158
396.03, 4140
396.0325, 4187
396.035, 4179
396.0375, 4100
396.04, 4209
396.0425, 4219
396.045, 4172
396.0475, 4156
396.05, 4171
396.0525, 4182
396.055, 4107
396.0575, 4217
396.06, 4198
396.0625, 4191
396.065, 4171
396.0675, 4175
396.07, 4182
396.0725, 4115
396.075, 4192
396.0775, 4191
396.08, 4174
396.0825, 4153
396.085, 4194
396.0875, 4171
396.09, 4105
396.0925, 4162
396.095, 4170
396.0975, 4161
396.1, 4157
396.1025, 4176
396.105, 4166
396.1075, 4094
396.11, 4162
396.1125, 4173
396.115, 4166
396.1175, 4143
396.12, 4181
396.1225, 4164
396.125, 4105
396.1275, 4161
396.13, 4164
396.1325, 4172
396.135, 4157
396.1375, 4163
396.14, 4156
396.1425, 4084
396.145, 4163
396.1475, 4174
396.15, 4165
396.1525, 4140
396.155, 4195
396.1575, 4176
396.16, 4126
396.1625, 4195
396.165, 4200
396.1675, 4180
396.17, 4157
396.1725, 4183
396.175, 4200
396.1775, 4129
396.18, 4200
396.1825, 4206
396.185, 4192
396.1875, 4178
396.19, 4191
396.1925, 4167
396.195, 4102
396.1975, 4162
396.2, 4151
396.2025, 4148
396.205, 4133
396.2075, 4144
396.21, 4152
396.2125, 4090
396.215, 4138
396.2175, 4166
396.22, 4173
396.2225, 4148
396.225, 4149
396.2275, 4137
396.23, 4059
396.2325, 4139
396.235, 4146
396.2375, 4148
396.24, 4144
396.2425, 4165
396.245, 4146
396.2475, 4097
396.25, 4176
396.2525, 4169
396.255, 4180
396.2575, 4154
396.26, 4194
396.2625, 4168
396.265, 4102
396.2675, 4162
396.27, 4185
396.2725, 4155
396.275, 4135
396.2775, 4150
396.28, 4186
396.2825, 4115
396.285, 4176
396.2875, 4179
396.29, 4180
396.2925, 4153
396.295, 4188
396.2975, 4180
396.3, 4103
396.3025, 4160
396.305, 4162
396.3075, 4130
396.31, 4093
396.3125, 4125
396.315, 4122
396.3175, 4067
396.32, 4105
396.3225, 4118
396.325, 4117
396.3275, 4108
396.33, 4140
396.3325, 4156
396.335, 4080
396.3375, 4153
396.34, 4155
396.3425, 4191
396.345, 4174
396.3475, 4196
396.35, 4192
396.3525, 4145
396.355, 4203
396.3575, 4209
396.36, 4193
396.3625, 4154
396.365, 4195
396.3675, 4207
396.37, 4126
396.3725, 4205
396.375, 4193
396.3775, 4187
396.38, 4193
396.3825, 4208
396.385, 4192
396.3875, 4135
396.39, 4189
396.3925, 4197
396.395, 4172
396.3975, 4144
396.4, 4190
396.4025, 4186
396.405, 4127
396.4075, 4223
396.41, 4306
396.4125, 4377
396.415, 4418
396.4175, 4451
396.42, 4471
396.4225, 4409
396.425, 4357
396.4275, 4179
396.43, 3952
396.4325, 3667
396.435, 3360
396.4375, 3021
396.44, 2538
396.4425, 2069
396.445, 1757
396.4475, 1577
396.45, 1653
396.4525, 2089
396.455, 2904
396.4575, 3817
396.46, 4668
396.4625, 5006
396.465, 5088
396.4675, 4974
396.47, 4815
396.4725, 4666
396.475, 4529
396.4775, 4587
396.48, 4541
396.4825, 4505
396.485, 4451
396.4875, 4503
396.49, 4520
396.4925, 4462
396.495, 4518
396.4975, 4552
396.5, 4528
396.5025, 4492
396.505, 4504
396.5075, 4490
396.51, 4392
396.5125, 4462
396.515, 4460
396.5175, 4438
396.52, 4417
396.5225, 4434
396.525, 4422
396.5275, 4354
396.53, 4424
396.5325, 4396
396.535, 4399
396.5375, 4309
396.54, 4393
396.5425, 4373
396.545, 4293
396.5475, 4337
396.55, 4328
396.5525, 4337
396.555, 4312
396.5575, 4325
396.56, 4318
396.5625, 4257
396.565, 4297
396.5675, 4293
396.57, 4302
396.5725, 4273
396.575, 4292
396.5775, 4263
396.58, 4192
396.5825, 4263
396.585, 4264
396.5875, 4242
396.59, 4209
396.5925, 4235
396.595, 4249
396.5975, 4164
396.6, 4227
396.6025, 4228
396.605, 4242
396.6075, 4222
396.61, 4244
396.6125, 4224
396.615, 4153
396.6175, 4243
396.62, 4239
396.6225, 4253
396.625, 4210
396.6275, 4231
396.63, 4236
396.6325, 4187
396.635, 4216
396.6375, 4218
396.64, 4223
396.6425, 4094
396.645, 4241
396.6475, 4228
396.65, 4151
396.6525, 4244
396.655, 4243
396.6575, 4251
396.66, 4217
396.6625, 4241
396.665, 4234
396.6675, 4183
396.67, 4250
396.6725, 4243
396.675, 4207
396.6775, 4203
396.68, 4229
396.6825, 4211
396.685, 4152
396.6875, 4244
396.69, 4219
396.6925, 4226
396.695, 4194
396.6975, 4217
396.7, 4213
396.7025, 4128
396.705, 4213
396.7075, 4201
396.71, 4203
396.7125, 4192
396.715, 4218
396.7175, 4183
396.72, 4111
396.7225, 4178
396.725, 4164
396.7275, 4168
396.73, 4157
396.7325, 4181
396.735, 4150
396.7375, 4108
396.74, 4161
396.7425, 4150
396.745, 4123
396.7475, 4113
396.75, 4155
396.7525, 4146
396.755, 4090
396.7575, 4128
396.76, 4126
396.7625, 4151
396.765, 4137
396.7675, 4160
396.77, 4138
396.7725, 4099
396.775, 4158
396.7775, 4165
396.78, 4152
396.7825, 4132
396.785, 4160
396.7875, 4179
396.79, 4131
396.7925, 4181
396.795, 4184
396.7975, 4211
396.8, 4176
396.8025, 4210
396.805, 4213
396.8075, 4152
396.81, 4214
396.8125, 4207
396.815, 4222
396.8175, 4176
396.82, 4204
396.8225, 4170
396.825, 4134
396.8275, 4203
396.83, 4196
396.8325, 4194
396.835, 4176
396.8375, 4187
396.84, 4181
396.8425, 4149
396.845, 4187
396.8475, 4158
396.85, 4140
396.8525, 4037
396.855, 4203
396.8575, 4193
396.86, 4121
396.8625, 4179
396.865, 4189
396.8675, 4180
396.87, 4163
396.8725, 4171
396.875, 4172
396.8775, 4090
396.88, 4182
396.8825, 4186
396.885, 4189
396.8875, 4127
396.89, 4209
396.8925, 4184
396.895, 4100
396.8975, 4162
396.9, 4157
396.9025, 4158
396.905, 4152
396.9075, 4155
396.91, 4157
396.9125, 4097
396.915, 4177
396.9175, 4195
396.92, 4180
396.9225, 4160
396.925, 4159
396.9275, 4181
396.93, 4137
396.9325, 4178
396.935, 4193
396.9375, 4193
396.94, 4168
396.9425, 4178
396.945, 4164
396.9475, 4117
396.95, 4168
396.9525, 4129
396.955, 4131
396.9575, 4108
396.96, 4129
396.9625, 4151
396.965, 4104
396.9675, 4165
396.97, 4173
396.9725, 4139
396.975, 4132
396.9775, 4146
396.98, 4156
396.9825, 4105
396.985, 4165
396.9875, 4194
396.99, 4160
396.9925, 4154
396.995, 4174
396.9975, 4142
397.0, 4104
397.0025, 4150
397.005, 4172
397.0075, 4175
397.01, 4159
397.0125, 4173
397.015, 4145
397.0175, 4097
397.02, 4163
397.0225, 4165
397.025, 4174
397.0275, 4160
397.03, 4175
397.0325, 4172
397.035, 4123
397.0375, 4193
397.04, 4188
397.0425, 4164
397.045, 4152
397.0475, 4181
397.05, 4182
397.0525, 4123
397.055, 4211
397.0575, 4200
397.06, 4185
397.0625, 4143
397.065, 4154
397.0675, 4145
397.07, 4090
397.0725, 4163
397.075, 4190
397.0775, 4157
397.08, 4107
397.0825, 4137
397.085, 4156
397.0875, 4088
397.09, 4147
397.0925, 4165
397.095, 4166
397.0975, 4125
397.1, 4159
397.1025, 4150
397.105, 4109
397.1075, 4175
397.11, 4177
397.1125, 4194
397.115, 4172
397.1175, 4164
397.12, 4171
397.1225, 4093
397.125, 4155
397.1275, 4160
397.13, 4139
397.1325, 4117
397.135, 4155
397.1375, 4135
397.14, 4087
397.1425, 4177
397.145, 4156
397.1475, 4152
397.15, 4135
397.1525, 4167
397.155, 4144
397.1575, 4091
397.16, 4148
397.1625, 4174
397.165, 4152
397.1675, 4125
397.17, 4161
397.1725, 4166
397.175, 4094
397.1775, 4158
397.18, 4173
397.1825, 4155
397.185, 4135
397.1875, 4175
397.19, 4170
397.1925, 4118
397.195, 4180
397.1975, 4199
397.2, 4171
397.2025, 4144
397.205, 4173
397.2075, 4155
397.21, 4098
397.2125, 4163
397.215, 4174
397.2175, 4178
397.22, 4145
397.2225, 4177
397.225, 4163
397.2275, 4106
397.23, 4147
397.2325, 4135
397.235, 4148
397.2375, 4144
397.24, 4162
397.2425, 4142
397.245, 4073
397.2475, 4146
397.25, 4149
397.2525, 4157
397.255, 4136
397.2575, 4168
397.26, 4168
397.2625, 4117
397.265, 4184
397.2675, 4175
397.27, 4179
397.2725, 4159
397.275, 4190
397.2775, 4171
397.28, 4094
397.2825, 4167
397.285, 4150
397.2875, 4154
397.29, 4134
397.2925, 4177
397.295, 4176
397.2975, 4100
397.3, 4172
397.3025, 4162
397.305, 4158
397.3075, 4136
397.31, 4172
397.3125, 4183
397.315, 4110
397.3175, 4171
397.32, 4175
397.3225, 4173
397.325, 4151
397.3275, 4187
397.33, 4185
397.3325, 4102
397.335, 4170
397.3375, 4162
397.34, 4179
397.3425, 4168
397.345, 4162
397.3475, 4189
397.35, 4089
397.3525, 4147
397.355, 4158
397.3575, 4139
397.36, 4124
397.3625, 4156
397.365, 4153
397.3675, 4095
397.37, 4180
397.3725, 4162
397.375, 4175
397.3775, 4134
397.38, 4174
397.3825, 4164
397.385, 4098
397.3875, 4165
397.39, 4166
397.3925, 4154
397.395, 4124
397.3975, 4165
397.4, 4164
397.4025, 4082
397.405, 4173
397.4075, 4170
397.41, 4156
397.4125, 4138
397.415, 4150
397.4175, 4164
397.42, 4084
397.4225, 4141
397.425, 4136
397.4275, 4148
397.43, 4142
397.4325, 4172
397.435, 4161
397.4375, 4122
397.44, 4158
397.4425, 4137
397.445, 4107
397.4475, 4042
397.45, 4053
397.4525, 4077
397.455, 4024
397.4575, 4108
397.46, 4123
397.4625, 4114
397.465, 4116
397.4675, 4158
397.47, 4134
397.4725, 4061
397.475, 4167
397.4775, 4182
397.48, 4160
397.4825, 4156
397.485, 4144
397.4875, 4160
397.49, 4103
397.4925, 4164
397.495, 4175
397.4975, 4170
397.5, 4151
397.5025, 4176
397.505, 4167
397.5075, 4101
397.51, 4170
397.5125, 4185
397.515, 4174
397.5175, 4159
397.52, 4175
397.5225, 4175
397.525, 4106
397.5275, 4153
397.53, 4174
397.5325, 4171
397.535, 4143
397.5375, 4187
397.54, 4178
397.5425, 4135
397.545, 4191
397.5475, 4243
397.55, 4325
397.5525, 4374
397.555, 4460
397.5575, 4464
397.56, 4458
397.5625, 4528
397.565, 4385
397.5675, 4192
397.57, 3933
397.5725, 3633
397.575, 3289
397.5775, 2830
397.58, 2437
397.5825, 1908
397.585, 1649
397.5875, 1595
397.59, 1769
397.5925, 2410
397.595, 3296
397.5975, 4218
397.6, 4733
397.6025, 4963
397.605, 4931
397.6075, 4824
397.61, 4687
397.6125, 4505
397.615, 4550
397.6175, 4575
397.62, 4543
397.6225, 4525
397.625, 4532
397.6275, 4562
397.63, 4519
397.6325, 4581
397.635, 4559
397.6375, 4548
397.64, 4519
397.6425, 4537
397.645, 4520
397.6475, 4442
397.65, 4491
397.6525, 4480
397.655, 4462
397.6575, 4445
397.66, 4455
397.6625, 4457
397.665, 4381
397.6675, 4424
397.67, 4411
397.6725, 4401
397.675, 4372
397.6775, 4397
397.68, 4389
397.6825, 4310
397.685, 4358
397.6875, 4346
397.69, 4346
397.6925, 4354
397.695, 4369
397.6975, 4365
397.7, 4291
397.7025, 4321
397.705, 4320
397.7075, 4279
397.71, 4266
397.7125, 4272
397.715, 4268
397.7175, 4246
397.72, 4328
397.7225, 4334
397.725, 4290
397.7275, 4292
397.73, 4314
397.7325, 4281
397.735, 4171
397.7375, 4258
397.74, 4299
397.7425, 4264
397.745, 4223
397.7475, 4263
397.75, 4261
397.7525, 4189
397.755, 4246
397.7575, 4250
397.76, 4239
397.7625, 4223
397.765, 4244
397.7675, 4249
397.77, 4191
397.7725, 4251
397.775, 4251
397.7775, 4220
397.78, 4201
397.7825, 4236
397.785, 4227
397.7875, 4142
397.79, 4214
397.7925, 4221
397.795, 4219
397.7975, 4191
397.8, 4224
397.8025, 4229
397.805, 4150
397.8075, 4210
397.81, 4211
397.8125, 4192
397.815, 4189
397.8175, 4228
397.82, 4225
397.8225, 4157
397.825, 4193
397.8275, 4191
397.83, 4192
397.8325, 4184
397.835, 4189
397.8375, 4194
397.84, 4140
397.8425, 4189
397.845, 4179
397.8475, 4192
397.85, 4171
397.8525, 4192
397.855, 4195
397.8575, 4115
397.86, 4196
397.8625, 4169
397.865, 4161
397.8675, 4147
397.87, 4125
397.8725, 4125
397.875, 4042
397.8775, 4128
397.88, 4121
397.8825, 4109
397.885, 4072
397.8875, 4099
397.89, 4086
397.8925, 4065
397.895, 4133
397.8975, 4147
397.9, 4125
397.9025, 4101
397.905, 4148
397.9075, 4135
397.91, 4090
397.9125, 4167
397.915, 4156
397.9175, 4152
397.92, 4154
397.9225, 4210
397.925, 4176
397.9275, 4098
397.93, 4171
397.9325, 4194
397.935, 4197
397.9375, 4168
397.94, 4218
397.9425, 4231
397.945, 4156
397.9475, 4217
397.95, 4210
397.9525, 4226
397.955, 4187
397.9575, 4215
397.96, 4208
397.9625, 4143
397.965, 4200
397.9675, 4207
397.97, 4206
397.9725, 4156
397.975, 4207
397.9775, 4198
397.98, 4139
397.9825, 4208
397.985, 4201
397.9875, 4191
397.99, 4188
397.9925, 4197
397.995, 4188
397.9975, 4127
398.0, 4175
398.0025, 4190
398.005, 4172
398.0075, 4141
398.01, 4169
398.0125, 4175
398.015, 4132
398.0175, 4186
398.02, 4170
398.0225, 4164
398.025, 4133
398.0275, 4186
398.03, 4162
398.0325, 4094
398.035, 4161
398.0375, 4158
398.04, 4155
398.0425, 4149
398.045, 4158
398.0475, 4177
398.05, 4105
398.0525, 4164
398.055, 4174
398.0575, 4134
398.06, 4124
398.0625, 4171
398.065, 4170
398.0675, 4136
398.07, 4189
398.0725, 4164
398.075, 4166
398.0775, 4083
398.08, 4188
398.0825, 4188
398.085, 4102
398.0875, 4168
398.09, 4147
398.0925, 4140
398.095, 4122
398.0975, 4165
398.1, 4157
398.1025, 4091
398.105, 4147
398.1075, 4167
398.11, 4166
398.1125, 4152
398.115, 4172
398.1175, 4147
398.12, 4112
398.1225, 4150
398.125, 4162
398.1275, 4167
398.13, 4139
398.1325, 4150
398.135, 4159
398.1375, 4100
398.14, 4159
398.1425, 4175
398.145, 4179
398.1475, 4162
398.15, 4137
398.1525, 4139
398.155, 4082
398.1575, 4162
398.16, 4185
398.1625, 4193
398.165, 4165
398.1675, 4163
398.17, 4173
398.1725, 4118
398.175, 4144
398.1775, 4124
398.18, 4154
398.1825, 4133
398.185, 4171
398.1875, 4186
398.19, 4103
398.1925, 4194
398.195, 4192
398.1975, 4168
398.2, 4175
398.2025, 4182
398.205, 4164
398.2075, 4113
398.21, 4153
398.2125, 4179
398.215, 4170
398.2175, 4140
398.22, 4181
398.2225, 4166
398.225, 4119
398.2275, 4175
398.23, 4151
398.2325, 4139
398.235, 4146
398.2375, 4189
398.24, 4204
398.2425, 4128
398.245, 4192
398.2475, 4192
398.25, 4182
398.2525, 4142
398.255, 4154
398.2575, 4166
398.26, 4110
398.2625, 4157
398.265, 4150
398.2675, 4151
398.27, 4126
398.2725, 4164
398.275, 4185
398.2775, 4121
398.28, 4166
398.2825, 4154
398.285, 4160
398.2875, 4134
398.29, 4164
398.2925, 4159
398.295, 4096
398.2975, 4162
398.3, 4166
398.3025, 4153
398.305, 4137
398.3075, 4170
398.31, 4185
398.3125, 4122
398.315, 4197
398.3175, 4177
398.32, 4153
398.3225, 4159
398.325, 4198
398.3275, 4185
398.33, 4115
398.3325, 4155
398.335, 4175
398.3375, 4173
398.34, 4145
398.3425, 4197
398.345, 4176
398.3475, 4116
398.35, 4148
398.3525, 4132
398.355, 4102
398.3575, 4101
398.36, 4170
398.3625, 4163
398.365, 4090
398.3675, 4159
398.37, 4167
398.3725, 4144
398.375, 4145
398.3775, 4181
398.38, 4148
398.3825, 4107
398.385, 4184
398.3875, 4190
398.39, 4164
398.3925, 4151
398.395, 4144
398.3975, 4147
398.4, 4086
398.4025, 4153
398.405, 4160
398.4075, 4158
398.41, 4145
398.4125, 4182
398.415, 4175
398.4175, 4111
398.42, 4155
398.4225, 4157
398.425, 4159
398.4275, 4132
398.43, 4163
398.4325, 4163
398.435, 4103
398.4375, 4175
398.44, 4198
398.4425, 4178
398.445, 4170
398.4475, 4185
398.45, 4190
398.4525, 4136
398.455, 4207
398.4575, 4193
398.46, 4201
398.4625, 4151
398.465, 4201
398.4675, 4167
398.47, 4126
398.4725, 4184
398.475, 4182
398.4775, 4177
398.48, 4137
398.4825, 4182
398.485, 4187
398.4875, 4161
398.49, 4203
398.4925, 4217
398.495, 4211
398.4975, 4096
398.5, 4173
398.5025, 4114
398.505, 4053
398.5075, 4096
398.51, 4091
398.5125, 4115
398.515, 4104
398.5175, 4141
398.52, 4171
398.5225, 4090
398.525, 4179
398.5275, 4170
398.53, 4183
398.5325, 4174
398.535, 4202
398.5375, 4206
398.54, 4148
398.5425, 4210
398.545, 4227
398.5475, 4200
398.55, 4183
398.5525, 4220
398.555, 4208
398.5575, 4143
398.56, 4196
398.5625, 4180
398.565, 4192
398.5675, 4185
398.57, 4195
398.5725, 4213
398.575, 4147
398.5775, 4215
398.58, 4197
398.5825, 4192
398.585, 4176
398.5875, 4196
398.59, 4213
398.5925, 4151
398.595, 4198
398.5975, 4203
398.6, 4213
398.6025, 4206
398.605, 4265
398.6075, 4342
398.61, 4353
398.6125, 4418
398.615, 4449
398.6175, 4481
398.62, 4396
398.6225, 4247
398.625, 4023
398.6275, 3715
398.63, 3451
398.6325, 3200
398.635, 2762
398.6375, 2222
398.64, 1876
398.6425, 1673
398.645, 1625
398.6475, 1959
398.65, 2553
398.6525, 3519
398.655, 4429
398.6575, 4910
398.66, 5077
398.6625, 5013
398.665, 4947
398.6675, 4783
398.67, 4679
398.6725, 4592
398.675, 4596
398.6775, 4564
398.68, 4462
398.6825, 4512
398.685, 4525
398.6875, 4523
398.69, 4502
398.6925, 4536
398.695, 4527
398.6975, 4449
398.7, 4498
398.7025, 4483
398.705, 4469
398.7075, 4445
398.71, 4462
398.7125, 4436
398.715, 4383
398.7175, 4420
398.72, 4413
398.7225, 4405
398.725, 4290
398.7275, 4394
398.73, 4385
398.7325, 4315
398.735, 4372
398.7375, 4355
398.74, 4361
398.7425, 4348
398.745, 4376
398.7475, 4357
398.75, 4277
398.7525, 4372
398.755, 4328
398.7575, 4307
398.76, 4271
398.7625, 4294
398.765, 4284
398.7675, 4198
398.77, 4257
398.7725, 4247
398.775, 4224
398.7775, 4186
398.78, 4239
398.7825, 4229
398.785, 4190
398.7875, 4230
398.79, 4240
398.7925, 4237
398.795, 4203
398.7975, 4237
398.8, 4209
398.8025, 4138
398.805, 4220
398.8075, 4221
398.81, 4208
398.8125, 4182
398.815, 4193
398.8175, 4192
398.82, 4142
398.8225, 4192
398.825, 4186
398.8275, 4198
398.83, 4202
398.8325, 4213
398.835, 4205
398.8375, 4156
398.84, 4206
398.8425, 4221
398.845, 4194
398.8475, 4172
398.85, 4194
398.8525, 4201
398.855, 4151
398.8575, 4222
398.86, 4202
398.8625, 4216
398.865, 4183
398.8675, 4225
398.87, 4216
398.8725, 4140
398.875, 4196
398.8775, 4182
398.88, 4203
398.8825, 4167
398.885, 4193
398.8875, 4203
398.89, 4117
398.8925, 4168
398.895, 4167
398.8975, 4166
398.9, 4158
398.9025, 4182
398.905, 4192
398.9075, 4124
398.91, 4192
398.9125, 4190
398.915, 4173
398.9175, 4146
398.92, 4184
398.9225, 4194
398.925, 4125
398.9275, 4176
398.93, 4155
398.9325, 4151
398.935, 4135
398.9375, 4182
398.94, 4160
398.9425, 4098
398.945, 4144
398.9475, 4150
398.95, 4135
398.9525, 4131
398.955, 4165
398.9575, 4150
398.96, 4119
398.9625, 4159
398.965, 4167
398.9675, 4163
398.97, 4139
398.9725, 4176
398.975, 4178
398.9775, 4102
398.98, 4180
398.9825, 4173
398.985, 4154
398.9875, 4153
398.99, 4188
398.9925, 4189
398.995, 4133
398.9975, 4225
399.0, 4217
399.0025, 4200
399.005, 4181
399.0075, 4201
399.01, 4214
399.0125, 4154
399.015, 4203
399.0175, 4220
399.02, 4204
399.0225, 4172
399.025, 4200
399.0275, 4198
399.03, 4135
399.0325, 4216
399.035, 4217
399.0375, 4204
399.04, 4165
399.0425, 4209
399.045, 4212
399.0475, 4122
399.05, 4186
399.0525, 4195
399.055, 4200
399.0575, 4173
399.06, 4205
399.0625, 4190
399.065, 4138
399.0675, 4183
399.07, 4176
399.0725, 4164
399.075, 4167
399.0775, 4178
399.08, 4183
399.0825, 4138
399.085, 4170
399.0875, 4146
399.09, 4136
399.0925, 4122
399.095, 4156
399.0975, 4155
399.1, 4098
399.1025, 4151
399.105, 4171
399.1075, 4190
399.11, 4165
399.1125, 4184
399.115, 4173
399.1175, 4119
399.12, 4160
399.1225, 4169
399.125, 4172
399.1275, 4136
399.13, 4161
399.1325, 4165
399.135, 4119
399.1375, 4171
399.14, 4162
399.1425, 4159
399.145, 4182
399.1475, 4177
399.15, 4146
399.1525, 4097
399.155, 4169
399.1575, 4166
399.16, 4175
399.1625, 4122
399.165, 4145
399.1675, 4157
399.17, 4100
399.1725, 4173
399.175, 4171
399.1775, 4176
399.18, 4138
399.1825, 4180
399.185, 4170
399.1875, 4112
399.19, 4172
399.1925, 4164
399.195, 4173
399.1975, 4155
399.2, 4164
399.2025, 4140
399.205, 4096
399.2075, 4175
399.21, 4173
399.2125, 4177
399.215, 4142
399.2175, 4162
399.22, 4176
399.2225, 4125
399.225, 4174
399.2275, 4193
399.23, 4188
399.2325, 4173
399.235, 4194
399.2375, 4179
399.24, 4109
399.2425, 4158
399.245, 4156
399.2475, 4164
399.25, 4147
399.2525, 4167
399.255, 4167
399.2575, 4098
399.26, 4178
399.2625, 4172
399.265, 4150
399.2675, 4120
399.27, 4148
399.2725, 4133
399.275, 4091
399.2775, 4148
399.28, 4146
399.2825, 4133
399.285, 4100
399.2875, 4156
399.29, 4154
399.2925, 4117
399.295, 4160
399.2975, 4139
399.3, 4141
399.3025, 4058
399.305, 4162
399.3075, 4160
399.31, 4087
399.3125, 4143
399.315, 4167
399.3175, 4154
399.32, 4127
399.3225, 4163
399.325, 4154
399.3275, 4095
399.33, 4153
399.3325, 4161
399.335, 4147
399.3375, 4142
399.34, 4160
399.3425, 4153
399.345, 4094
399.3475, 4170
399.35, 4164
399.3525, 4163
399.355, 4146
399.3575, 4156
399.36, 4168
399.3625, 4093
399.365, 4173
399.3675, 4162
399.37, 4154
399.3725, 4159
399.375, 4177
399.3775, 4176
399.38, 4117
399.3825, 4190
399.385, 4181
399.3875, 4148
399.39, 4038
399.3925, 4167
399.395, 4148
399.3975, 4079
399.4, 4142
399.4025, 4161
399.405, 4147
399.4075, 4065
399.41, 4187
399.4125, 4172
399.415, 4117
399.4175, 4153
399.42, 4145
399.4225, 4141
399.425, 4134
399.4275, 4137
399.43, 4115
399.4325, 4079
399.435, 4141
399.4375, 4149
399.44, 4149
399.4425, 4125
399.445, 4144
399.4475, 4145
399.45, 4073
399.4525, 4167
399.455, 4153
399.4575, 4154
399.46, 4135
399.4625, 4173
399.465, 4160
399.4675, 4090
399.47, 4143
399.4725, 4159
399.475, 4154
399.4775, 4125
399.48, 4174
399.4825, 4162
399.485, 4121
399.4875, 4177
399.49, 4167
399.4925, 4159
399.495, 4125
399.4975, 4166
399.5, 4172
399.5025, 4109
399.505, 4179
399.5075, 4162
399.51, 4176
399.5125, 4133
399.515, 4139
399.5175, 4153
399.52, 4092
399.5225, 4165
399.525, 4163
399.5275, 4159
399.53, 4124
399.5325, 4160
399.535, 4161
399.5375, 4094
399.54, 4155
399.5425, 4171
399.545, 4173
399.5475, 4141
399.55, 4180
399.5525, 4157
399.555, 4092
399.5575, 4161
399.56, 4163
399.5625, 4175
399.565, 4158
399.5675, 4175
399.57, 4164
399.5725, 4120
399.575, 4194
399.5775, 4206
399.58, 4176
399.5825, 4155
399.585, 4183
399.5875, 4176
399.59, 4121
399.5925, 4189
399.595, 4183
399.5975, 4173
399.6, 4177
399.6025, 4159
399.605, 4171
399.6075, 4114
399.61, 4161
399.6125, 4175
399.615, 4136
399.6175, 4103
399.62, 4119
399.6225, 4052
399.625, 4005
399.6275, 4105
399.63, 4123
399.6325, 4117
399.635, 4055
399.6375, 4179
399.64, 4160
399.6425, 4115
399.645, 4168
399.6475, 4192
399.65, 4185
399.6525, 4168
399.655, 4212
399.6575, 4196
399.66, 4135
399.6625, 4178
399.665, 4173
399.6675, 4175
399.67, 4170
399.6725, 4195
399.675, 4193
399.6775, 4132
399.68, 4190
399.6825, 4183
399.685, 4208
399.6875, 4182
399.69, 4224
399.6925, 4212
399.695, 4152
399.6975, 4214
399.7, 4211
399.7025, 4202
399.705, 4172
399.7075, 4182
399.71, 4203
399.7125, 4128
399.715, 4179
399.7175, 4201
399.72, 4232
399.7225, 4287
399.725, 4380
399.7275, 4450
399.73, 4395
399.7325, 4523
399.735, 4548
399.7375, 4485
399.74, 4309
399.7425, 4111
399.745, 3839
399.7475, 3431
399.75, 3145
399.7525, 2759
399.755, 2219
399.7575, 1692
399.76, 1552
399.7625, 1597
399.765, 1846
399.7675, 2684
399.77, 3628
399.7725, 4394
399.775, 4817
399.7775, 4973
399.78, 4909
399.7825, 4691
399.785, 4633
399.7875, 4553
399.79, 4547
399.7925, 4517
399.795, 4517
399.7975, 4512
399.8, 4479
399.8025, 4537
399.805, 4555
399.8075, 4562
399.81, 4541
399.8125, 4537
399.815, 4526
399.8175, 4454
399.82, 4512
399.8225, 4497
399.825, 4485
399.8275, 4445
399.83, 4470
399.8325, 4447
399.835, 4385
399.8375, 4443
399.84, 4413
399.8425, 4410
399.845, 4381
399.8475, 4416
399.85, 4408
399.8525, 4340
399.855, 4394
399.8575, 4397
399.86, 4368
399.8625, 4332
399.865, 4375
399.8675, 4361
399.87, 4265
399.8725, 4354
399.875, 4343
399.8775, 4328
399.88, 4314
399.8825, 4321
399.885, 4323
399.8875, 4249
399.89, 4318
399.8925, 4317
399.895, 4324
399.8975, 4271
399.9, 4274
399.9025, 4268
399.905, 4209
399.9075, 4262
399.91, 4220
399.9125, 4210
399.915, 4182
399.9175, 4226
399.92, 4208
399.9225, 4142
399.925, 4208
399.9275, 4179
399.93, 4191
399.9325, 4188
399.935, 4220
399.9375, 4214
399.94, 4162
399.9425, 4211
399.945, 4213
399.9475, 4215
399.95, 4207
399.9525, 4213
399.955, 4217
399.9575, 4169
399.96, 4220
399.9625, 4231
399.965, 4215
399.9675, 4201
399.97, 4224
399.9725, 4229
399.975, 4167
399.9775, 4208
399.98, 4233
399.9825, 4223
399.985, 4203
399.9875, 4239
399.99, 4260
399.9925, 4174
399.995, 4235
399.9975, 4235
400.0, 4210
400.0025, 4214
400.005, 4210
400.0075, 4198
400.01, 4182
400.0125, 4209
400.015, 4222
400.0175, 4188
400.02, 4115
400.0225, 4211
400.025, 4211
400.0275, 4138
400.03, 4179
400.0325, 4163
400.035, 4170
400.0375, 4144
400.04, 4152
400.0425, 4140
400.045, 4057
400.0475, 4098
400.05, 4077
400.0525, 4080
400.055, 4091
400.0575, 4118
400.06, 4110
400.0625, 4063
400.065, 4113
400.0675, 4089
400.07, 4086
400.0725, 4067
400.075, 4105
400.0775, 4092
400.08, 4056
400.0825, 4123
400.085, 4126
400.0875, 4132
400.09, 4045
400.0925, 4152
400.095, 4174
400.0975, 4098
400.1, 4174
400.1025, 4193
400.105, 4173
400.1075, 4097
400.11, 4197
400.1125, 4201
400.115, 4130
400.1175, 4187
400.12, 4214
400.1225, 4205
400.125, 4188
400.1275, 4208
400.13, 4228
400.1325, 4167
400.135, 4226
400.1375, 4210
400.14, 4211
400.1425, 4194
400.145, 4228
400.1475, 4227
400.15, 4148
400.1525, 4197
400.155, 4197
400.1575, 4190
400.16, 4169
400.1625, 4207
400.165, 4185
400.1675, 4132
400.17, 4193
400.1725, 4195
400.175, 4165
400.1775, 4151
400.18, 4182
400.1825, 4177
400.185, 4128
400.1875, 4176
400.19, 4178
400.1925, 4175
400.195, 4151
400.1975, 4151
400.2, 4158
400.2025, 4100
400.205, 4172
400.2075, 4182
400.21, 4186
400.2125, 4133
400.215, 4164
400.2175, 4175
400.22, 4118
400.2225, 4189
400.225, 4182
400.2275, 4189
400.23, 4174
400.2325, 4188
400.235, 4175
400.2375, 4128
400.24, 4185
400.2425, 4164
400.245, 4164
400.2475, 4168
400.25, 4200
400.2525, 4196
400.255, 4120
400.2575, 4187
400.26, 4174
400.2625, 4177
400.265, 4148
400.2675, 4163
400.27, 4173
400.2725, 4102
400.275, 4178
400.2775, 4209
400.28, 4203
400.2825, 4190
400.285, 4190
400.2875, 4200
400.29, 4118
400.2925, 4135
400.295, 4152
400.2975, 4145
400.3, 4125
400.3025, 4139
400.305, 4147
400.3075, 4084
400.31, 4175
400.3125, 4160
400.315, 4180
400.3175, 4166
400.32, 4208
400.3225, 4189
400.325, 4132
400.3275, 4205
400.33, 4207
400.3325, 4200
400.335, 4174
400.3375, 4200
400.34, 4184
400.3425, 4121
400.345, 4183
400.3475, 4178
400.35, 4166
400.3525, 4149
400.355, 4151
400.3575, 4139
400.36, 4096
400.3625, 4151
400.365, 4157
400.3675, 4152
400.37, 4145
400.3725, 4162
400.375, 4193
400.3775, 4118
400.38, 4176
400.3825, 4170
400.385, 4161
400.3875, 4148
400.39, 4159
400.3925, 4166
400.395, 4112
400.3975, 4181
400.4, 4172
400.4025, 4171
400.405, 4155
400.4075, 4179
400.41, 4159
400.4125, 4094
400.415, 4138
400.4175, 4128
400.42, 4141
400.4225, 4102
400.425, 4152
400.4275, 4145
400.43, 4087
400.4325, 4098
400.435, 4119
400.4375, 4118
400.44, 4101
400.4425, 4146
400.445, 4140
400.4475, 4092
400.45, 4156
400.4525, 4163
400.455, 4131
400.4575, 4126
400.46, 4176
400.4625, 4167
400.465, 4097
400.4675, 4174
400.47, 4171
400.4725, 4167
400.475, 4134
400.4775, 4171
400.48, 4149
400.4825, 4096
400.485, 4154
400.4875, 4161
400.49, 4185
400.4925, 4151
400.495, 4202
400.4975, 4186
400.5, 4098
400.5025, 4172
400.505, 4186
400.5075, 4173
400.51, 4147
400.5125, 4173
400.515, 4158
400.5175, 4108
400.52, 4173
400.5225, 4189
400.525, 4173
400.5275, 4141
400.53, 4165
400.5325, 4162
400.535, 4106
400.5375, 4148
400.54, 4145
400.5425, 4140
400.545, 4094
400.5475, 4135
400.55, 4157
400.5525, 4094
400.555, 4150
400.5575, 4169
400.56, 4179
400.5625, 4150
400.565, 4164
400.5675, 4164
400.57, 4129
400.5725, 4179
400.575, 4179
400.5775, 4179
400.58, 4170
400.5825, 4171
400.585, 4186
400.5875, 4126
400.59, 4185
400.5925, 4177
400.595, 4165
400.5975, 4051
400.6, 4169
400.6025, 4165
400.605, 4133
400.6075, 4167
400.61, 4196
400.6125, 4167
400.615, 4164
400.6175, 4198
400.62, 4198
400.6225, 4135
400.625, 4207
400.6275, 4206
400.63, 4198
400.6325, 4159
400.635, 4182
400.6375, 4164
400.64, 4110
400.6425, 4184
400.645, 4193
400.6475, 4164
400.65, 4143
400.6525, 4158
400.655, 4160
400.6575, 4117
400.66, 4172
400.6625, 4176
400.665, 4169
400.6675, 4082
400.67, 4214
400.6725, 4212
400.675, 4141
400.6775, 4184
400.68, 4172
400.6825, 4177
400.685, 4155
400.6875, 4168
400.69, 4175
400.6925, 4107
400.695, 4161
400.6975, 4174
400.7, 4166
400.7025, 4162
400.705, 4185
400.7075, 4175
400.71, 4120
400.7125, 4186
400.715, 4179
400.7175, 4169
400.72, 4151
400.7225, 4202
400.725, 4177
400.7275, 4122
400.73, 4163
400.7325, 4141
400.735, 4103
400.7375, 4067
400.74, 4061
400.7425, 4068
400.745, 4026
400.7475, 4098
400.75, 4147
400.7525, 4125
400.755, 4124
400.7575, 4137
400.76, 4150
400.7625, 4105
400.765, 4172
400.7675, 4182
400.77, 4184
400.7725, 4181
400.775, 4207
400.7775, 4197
400.78, 4128
400.7825, 4176
400.785, 4191
400.7875, 4202
400.79, 4161
400.7925, 4188
400.795, 4181
400.7975, 4120
400.8, 4215
400.8025, 4189
400.805, 4175
400.8075, 4183
400.81, 4193
400.8125, 4193
400.815, 4110
400.8175, 4154
400.82, 4160
400.8225, 4173
400.825, 4121
400.8275, 4198
400.83, 4193
400.8325, 4132
400.835, 4190
400.8375, 4205
400.84, 4251
400.8425, 4315
400.845, 4397
400.8475, 4420
400.85, 4392
400.8525, 4471
400.855, 4372
400.8575, 4163
400.86, 3894
400.8625, 3654
400.865, 3345
400.8675, 3008
400.87, 2650
400.8725, 2131
400.875, 1846
400.8775, 1639
400.88, 1764
400.8825, 2124
400.885, 2766
400.8875, 3799
400.89, 4667
400.8925, 4972
400.895, 5079
400.8975, 5075
400.9, 4923
400.9025, 4703
400.905, 4649
400.9075, 4594
400.91, 4563
400.9125, 4498
400.915, 4502
400.9175, 4507
400.92, 4475
400.9225, 4547
400.925, 4528
400.9275, 4523
400.93, 4480
400.9325, 4493
400.935, 4451
400.9375, 4375
400.94, 4436
400.9425, 4433
400.945, 4428
400.9475, 4402
400.95, 4406
400.9525, 4374
400.955, 4334
400.9575, 4369
400.96, 4368
400.9625, 4336
400.965, 4301
400.9675, 4308
400.97, 4306
400.9725, 4256
400.975, 4318
400.9775, 4311
400.98, 4282
400.9825, 4246
400.985, 4287
400.9875, 4291
400.99, 4222
400.9925, 4290
400.995, 4274
400.9975, 4268
401.0, 4265
401.0025, 4281
401.005, 4277
401.0075, 4212
401.01, 4278
401.0125, 4266
401.015, 4261
401.0175, 4243
401.02, 4266
401.0225, 4245
401.025, 4186
401.0275, 4245
401.03, 4224
401.0325, 4237
401.035, 4181
401.0375, 4222
401.04, 4206
401.0425, 4130
401.045, 4224
401.0475, 4230
401.05, 4213
401.0525, 4212
401.055, 4244
401.0575, 4239
401.06, 4183
401.0625, 4220
401.065, 4227
401.0675, 4197
401.07, 4151
401.0725, 4196
401.075, 4197
401.0775, 4133
401.08, 4193
401.0825, 4192
401.085, 4185
401.0875, 4186
401.09, 4214
401.0925, 4205
401.095, 4151
401.0975, 4208
401.1, 4182
401.1025, 4180
401.105, 4172
401.1075, 4179
401.11, 4172
401.1125, 4123
401.115, 4187
401.1175, 4172
401.12, 4185
401.1225, 4154
401.125, 4192
401.1275, 4169
401.13, 4117
401.1325, 4175
401.135, 4184
401.1375, 4192
401.14, 4168
401.1425, 4180
401.145, 4196
401.1475, 4125
401.15, 4191
401.1525, 4191
401.155, 4173
401.1575, 4146
401.16, 4183
401.1625, 4174
401.165, 4089
401.1675, 4155
401.17, 4152
401.1725, 4146
401.175, 4123
401.1775, 4145
401.18, 4155
401.1825, 4129
401.185, 4196
401.1875, 4186
401.19, 4200
401.1925, 4170
401.195, 4202
401.1975, 4198
401.2, 4151
401.2025, 4222
401.205, 4227
401.2075, 4238
401.21, 4136
401.2125, 4263
401.215, 4245
401.2175, 4181
401.22, 4240
401.2225, 4235
401.225, 4223
401.2275, 4215
401.23, 4251
401.2325, 4250
401.235, 4187
401.2375, 4226
401.24, 4225
401.2425, 4239
401.245, 4211
401.2475, 4256
