60.125,4088.0
60.1275,4085.0
60.13,4103.0
60.1325,4103.0
60.135,4142.0
60.1375,4163.0
60.14,4110.0
60.1425,4112.0
60.145,4137.0
60.1475,4028.0
60.15,4081.0
60.1525,4115.0
60.155,4153.0
60.1575,4065.0
60.16,4099.0
60.1625,4108.0
60.165,4046.0
60.1675,4028.0
60.17,4124.0
60.1725,4179.0
60.175,4035.0
60.1775,3884.0
60.18,3704.0
60.1825,3477.0
60.185,3379.0
60.1875,3450.0
60.19,3892.0
60.1925,4346.0
60.195,4888.0
60.1975,5147.0
60.2,5260.0
60.2025,5421.0
60.205,5513.0
60.2075,5441.0
60.21,5418.0
60.2125,5441.0
60.215,5355.0
60.2175,5063.0
60.22,4936.0
60.2225,4866.0
60.225,4734.0
60.2275,4510.0
60.23,4463.0
60.2325,4408.0
60.235,4190.0
60.2375,3965.0
60.24,3870.0
60.2425,3830.0
60.245,3634.0
60.2475,3564.0
60.25,3595.0
60.2525,3614.0
60.255,3606.0
60.2575,3596.0
60.26,3650.0
60.2625,3619.0
60.265,3612.0
60.2675,3600.0
60.27,3593.0
60.2725,3688.0
60.275,3701.0
60.2775,3701.0
60.28,3666.0
60.2825,3735.0
60.285,3682.0
60.2875,3632.0
60.29,3713.0
60.2925,3803.0
60.295,3806.0
60.2975,3705.0
60.3,3750.0
60.3025,3807.0
60.305,3685.0
60.3075,3658.0
60.31,3771.0
60.3125,3863.0
60.315,3767.0
60.3175,3767.0
60.32,3813.0
60.3225,3790.0
60.325,3744.0
60.3275,3733.0
60.33,3841.0
60.3325,3801.0
60.335,3778.0
60.3375,3753.0
60.34,3758.0
60.3425,3771.0
60.345,3735.0
60.3475,3735.0
60.35,3738.0
60.3525,3798.0
60.355,3756.0
60.3575,3679.0
60.36,3710.0
60.3625,3737.0
60.365,3706.0
60.3675,3649.0
60.37,3746.0
60.3725,3805.0
60.375,3712.0
60.3775,3693.0
60.38,3735.0
60.3825,3776.0
60.385,3662.0
60.3875,3722.0
60.39,3815.0
60.3925,3823.0
60.395,3810.0
60.3975,3829.0
60.4,3892.0
60.4025,3833.0
60.405,3807.0
60.4075,3876.0
60.41,3897.0
60.4125,3945.0
60.415,3960.0
60.4175,4015.0
60.42,3966.0
60.4225,4053.0
60.425,4033.0
60.4275,4069.0
60.43,4127.0
60.4325,4193.0
60.435,4206.0
60.4375,4174.0
60.44,4208.0
60.4425,4298.0
60.445,4229.0
60.4475,4309.0
60.45,4354.0
60.4525,4412.0
60.455,4348.0
60.4575,4381.0
60.46,4374.0
60.4625,4375.0
60.465,4379.0
60.4675,4447.0
60.47,4472.0
60.4725,4414.0
60.475,4452.0
60.4775,4473.0
60.48,4357.0
60.4825,4434.0
60.485,4451.0
60.4875,4494.0
60.49,4410.0
60.4925,4447.0
60.495,4470.0
60.4975,4421.0
60.5,4370.0
60.5025,4437.0
60.505,4465.0
60.5075,4369.0
60.51,4374.0
60.5125,4427.0
60.515,4374.0
60.5175,4339.0
60.52,4315.0
60.5225,4400.0
60.525,4330.0
60.5275,4352.0
60.53,4336.0
60.5325,4360.0
60.535,4365.0
60.5375,4316.0
60.54,4296.0
60.5425,4210.0
60.545,4265.0
60.5475,4278.0
60.55,4217.0
60.5525,4261.0
60.555,4256.0
60.5575,4232.0
60.56,4113.0
60.5625,4244.0
60.565,4272.0
60.5675,4195.0
60.57,4167.0
60.5725,4215.0
60.575,4251.0
60.5775,4106.0
60.58,4110.0
60.5825,4225.0
60.585,4198.0
60.5875,4181.0
60.59,4196.0
60.5925,4253.0
60.595,4201.0
60.5975,4169.0
60.6,4149.0
60.6025,4225.0
60.605,4268.0
60.6075,4242.0
60.61,4244.0
60.6125,4209.0
60.615,4206.0
60.6175,4168.0
60.62,4085.0
60.6225,4202.0
60.625,4235.0
60.6275,4226.0
60.63,4129.0
60.6325,4211.0
60.635,4200.0
60.6375,4109.0
60.64,4112.0
60.6425,4247.0
60.645,4261.0
60.6475,4127.0
60.65,4159.0
60.6525,4242.0
60.655,4175.0
60.6575,4133.0
60.66,4168.0
60.6625,4284.0
60.665,4192.0
60.6675,4180.0
60.67,4192.0
60.6725,4207.0
60.675,4172.0
60.6775,4127.0
60.68,4183.0
60.6825,4195.0
60.685,4222.0
60.6875,4186.0
60.69,4146.0
60.6925,4194.0
60.695,4190.0
60.6975,4142.0
60.7,4132.0
60.7025,4232.0
60.705,4220.0
60.7075,4142.0
60.71,4169.0
60.7125,4217.0
60.715,4205.0
60.7175,4073.0
60.72,4154.0
60.7225,4212.0
60.725,4131.0
60.7275,4111.0
60.73,4148.0
60.7325,4218.0
60.735,4108.0
60.7375,4095.0
60.74,4175.0
60.7425,4181.0
60.745,4158.0
60.7475,4170.0
60.75,4181.0
60.7525,4144.0
60.755,4120.0
60.7575,4125.0
60.76,4117.0
60.7625,4182.0
60.765,4179.0
60.7675,4205.0
60.77,4171.0
60.7725,4197.0
60.775,4191.0
60.7775,4150.0
60.78,4174.0
60.7825,4220.0
60.785,4225.0
60.7875,4138.0
60.79,4160.0
60.7925,4191.0
60.795,4144.0
60.7975,4154.0
60.8,4203.0
60.8025,4241.0
60.805,4148.0
60.8075,4170.0
60.81,4166.0
60.8125,4137.0
60.815,4158.0
60.8175,4192.0
60.82,4199.0
60.8225,4171.0
60.825,4180.0
60.8275,4183.0
60.83,4078.0
60.8325,4114.0
60.835,4159.0
60.8375,4176.0
60.84,4083.0
60.8425,4104.0
60.845,4137.0
60.8475,4085.0
60.85,4051.0
60.8525,4108.0
60.855,4188.0
60.8575,4117.0
60.86,4118.0
60.8625,4146.0
60.865,4119.0
60.8675,4134.0
60.87,4085.0
60.8725,4153.0
60.875,4153.0
60.8775,4191.0
60.88,4159.0
60.8825,4113.0
60.885,4160.0
60.8875,4172.0
60.89,4147.0
60.8925,4113.0
60.895,4207.0
60.8975,4245.0
60.9,4142.0
60.9025,4142.0
60.905,4204.0
60.9075,4197.0
60.91,4073.0
60.9125,4111.0
60.915,4196.0
60.9175,4127.0
60.92,4108.0
60.9225,4146.0
60.925,4214.0
60.9275,4135.0
60.93,4107.0
60.9325,4134.0
60.935,4188.0
60.9375,4172.0
60.94,4149.0
60.9425,4180.0
60.945,4151.0
60.9475,4120.0
60.95,4094.0
60.9525,4087.0
60.955,4155.0
60.9575,4143.0
60.96,4142.0
60.9625,4115.0
60.965,4219.0
60.9675,4189.0
60.97,4071.0
60.9725,4038.0
60.975,3975.0
60.9775,3730.0
60.98,3507.0
60.9825,3504.0
60.985,3822.0
60.9875,4169.0
60.99,4682.0
60.9925,5160.0
60.995,5377.0
60.9975,5376.0
61.0,5458.0
61.0025,5520.0
61.005,5509.0
61.0075,5467.0
61.01,5359.0
61.0125,5263.0
61.015,5073.0
61.0175,4943.0
61.02,4805.0
61.0225,4642.0
61.025,4552.0
61.0275,4390.0
61.03,4272.0
61.0325,4108.0
61.035,4019.0
61.0375,3860.0
61.04,3719.0
61.0425,3661.0
61.045,3675.0
61.0475,3634.0
61.05,3585.0
61.0525,3670.0
61.055,3738.0
61.0575,3632.0
61.06,3649.0
61.0625,3688.0
61.065,3728.0
61.0675,3597.0
61.07,3672.0
61.0725,3730.0
61.075,3695.0
61.0775,3671.0
61.08,3694.0
61.0825,3719.0
61.085,3659.0
61.0875,3618.0
61.09,3679.0
61.0925,3675.0
61.095,3722.0
61.0975,3694.0
61.1,3716.0
61.1025,3623.0
61.105,3685.0
61.1075,3660.0
61.11,3668.0
61.1125,3677.0
61.115,3718.0
61.1175,3732.0
61.12,3683.0
61.1225,3683.0
61.125,3751.0
61.1275,3648.0
61.13,3705.0
61.1325,3724.0
61.135,3757.0
61.1375,3673.0
61.14,3714.0
61.1425,3681.0
61.145,3704.0
61.1475,3710.0
61.15,3753.0
61.1525,3725.0
61.155,3665.0
61.1575,3694.0
61.16,3709.0
61.1625,3611.0
61.165,3680.0
61.1675,3702.0
61.17,3747.0
61.1725,3658.0
61.175,3719.0
61.1775,3744.0
61.18,3688.0
61.1825,3655.0
61.185,3756.0
61.1875,3810.0
61.19,3752.0
61.1925,3764.0
61.195,3813.0
61.1975,3814.0
61.2,3816.0
61.2025,3815.0
61.205,3932.0
61.2075,3915.0
61.21,3949.0
61.2125,3963.0
61.215,3983.0
61.2175,4039.0
61.22,4043.0
61.2225,4065.0
61.225,4102.0
61.2275,4174.0
61.23,4212.0
61.2325,4148.0
61.235,4203.0
61.2375,4257.0
61.24,4251.0
61.2425,4175.0
61.245,4304.0
61.2475,4379.0
61.25,4336.0
61.2525,4326.0
61.255,4397.0
61.2575,4443.0
61.26,4305.0
61.2625,4305.0
61.265,4418.0
61.2675,4417.0
61.27,4399.0
61.2725,4396.0
61.275,4467.0
61.2775,4410.0
61.28,4376.0
61.2825,4357.0
61.285,4418.0
61.2875,4453.0
61.29,4416.0
61.2925,4436.0
61.295,4419.0
61.2975,4419.0
61.3,4388.0
61.3025,4347.0
61.305,4454.0
61.3075,4483.0
61.31,4451.0
61.3125,4341.0
61.315,4416.0
61.3175,4403.0
61.32,4281.0
61.3225,4282.0
61.325,4401.0
61.3275,4435.0
61.33,4317.0
61.3325,4334.0
61.335,4384.0
61.3375,4300.0
61.34,4258.0
61.3425,4289.0
61.345,4410.0
61.3475,4337.0
61.35,4323.0
61.3525,4337.0
61.355,4343.0
61.3575,4327.0
61.36,4278.0
61.3625,4330.0
61.365,4311.0
61.3675,4324.0
61.37,4300.0
61.3725,4243.0
61.375,4274.0
61.3775,4281.0
61.38,4217.0
61.3825,4206.0
61.385,4298.0
61.3875,4309.0
61.39,4206.0
61.3925,4234.0
61.395,4284.0
61.3975,4295.0
61.4,4142.0
61.4025,4226.0
61.405,4306.0
61.4075,4260.0
61.41,4243.0
61.4125,4249.0
61.415,4291.0
61.4175,4197.0
61.42,4188.0
61.4225,4242.0
61.425,4233.0
61.4275,4226.0
61.43,4234.0
61.4325,4256.0
61.435,4214.0
61.4375,4249.0
61.44,4223.0
61.4425,4206.0
61.445,4218.0
61.4475,4239.0
61.45,4265.0
61.4525,4191.0
61.455,4220.0
61.4575,4240.0
61.46,4198.0
61.4625,4225.0
61.465,4246.0
61.4675,4254.0
61.47,4171.0
61.4725,4184.0
61.475,4197.0
61.4775,4176.0
61.48,4171.0
61.4825,4206.0
61.485,4233.0
61.4875,4161.0
61.49,4191.0
61.4925,4175.0
61.495,4145.0
61.4975,4188.0
61.5,4201.0
61.5025,4218.0
61.505,4141.0
61.5075,4173.0
61.51,4198.0
61.5125,4124.0
61.515,4141.0
61.5175,4197.0
61.52,4223.0
61.5225,4147.0
61.525,4166.0
61.5275,4205.0
61.53,4150.0
61.5325,4104.0
61.535,4154.0
61.5375,4228.0
61.54,4153.0
61.5425,4167.0
61.545,4182.0
61.5475,4144.0
61.55,4161.0
61.5525,4121.0
61.555,4154.0
61.5575,4147.0
61.56,4191.0
61.5625,4166.0
61.565,4098.0
61.5675,4145.0
61.57,4173.0
61.5725,4129.0
61.575,4083.0
61.5775,4181.0
61.58,4215.0
61.5825,4111.0
61.585,4093.0
61.5875,4162.0
61.59,4165.0
61.5925,4048.0
61.595,4067.0
61.5975,4185.0
61.6,4130.0
61.6025,4093.0
61.605,4109.0
61.6075,4182.0
61.61,4078.0
61.6125,4059.0
61.615,4083.0
61.6175,4157.0
61.62,4150.0
61.6225,4113.0
61.625,4136.0
61.6275,4117.0
61.63,4080.0
61.6325,4046.0
61.635,4019.0
61.6375,4117.0
61.64,4117.0
61.6425,4092.0
61.645,4021.0
61.6475,4085.0
61.65,4033.0
61.6525,3945.0
61.655,4015.0
61.6575,4117.0
61.66,4090.0
61.6625,3971.0
61.665,4027.0
61.6675,4086.0
61.67,3986.0
61.6725,3972.0
61.675,4071.0
61.6775,4151.0
61.68,4074.0
61.6825,4063.0
61.685,4079.0
61.6875,4044.0
61.69,4012.0
61.6925,4016.0
61.695,4105.0
61.6975,4078.0
61.7,4066.0
61.7025,4064.0
61.705,4024.0
61.7075,4069.0
61.71,4045.0
61.7125,4029.0
61.715,4021.0
61.7175,4095.0
61.72,4059.0
61.7225,3986.0
61.725,3985.0
61.7275,4055.0
61.73,4025.0
61.7325,3994.0
61.735,4077.0
61.7375,4121.0
61.74,4019.0
61.7425,4030.0
61.745,4078.0
61.7475,4138.0
61.75,3997.0
61.7525,4079.0
61.755,4159.0
61.7575,4135.0
61.76,4109.0
61.7625,4161.0
61.765,4204.0
61.7675,4173.0
61.77,4147.0
61.7725,4222.0
61.775,4207.0
61.7775,4253.0
61.78,4259.0
61.7825,4292.0
61.785,4213.0
61.7875,4282.0
61.79,4241.0
61.7925,4220.0
61.795,4221.0
61.7975,4262.0
61.8,4265.0
61.8025,4190.0
61.805,4187.0
61.8075,4251.0
61.81,4171.0
61.8125,4203.0
61.815,4228.0
61.8175,4266.0
61.82,4182.0
61.8225,4199.0
61.825,4164.0
61.8275,4155.0
61.83,4154.0
61.8325,4186.0
61.835,4187.0
61.8375,4154.0
61.84,4173.0
61.8425,4183.0
61.845,4102.0
61.8475,4203.0
61.85,4253.0
61.8525,4248.0
61.855,3982.0
61.8575,3843.0
61.86,3642.0
61.8625,3465.0
61.865,3453.0
61.8675,3908.0
61.87,4496.0
61.8725,4927.0
61.875,5137.0
61.8775,5283.0
61.88,5324.0
61.8825,5385.0
61.885,5351.0
61.8875,5465.0
61.89,5416.0
61.8925,5305.0
61.895,5071.0
61.8975,4885.0
61.9,4793.0
61.9025,4629.0
61.905,4462.0
61.9075,4337.0
61.91,4269.0
61.9125,4145.0
61.915,3858.0
61.9175,3766.0
61.92,3717.0
61.9225,3606.0
61.925,3448.0
61.9275,3530.0
61.93,3583.0
61.9325,3519.0
61.935,3511.0
61.9375,3574.0
61.94,3639.0
61.9425,3498.0
61.945,3492.0
61.9475,3615.0
61.95,3638.0
61.9525,3614.0
61.955,3607.0
61.9575,3676.0
61.96,3621.0
61.9625,3604.0
61.965,3601.0
61.9675,3643.0
61.97,3673.0
61.9725,3674.0
61.975,3690.0
61.9775,3678.0
61.98,3706.0
61.9825,3683.0
61.985,3613.0
61.9875,3721.0
61.99,3778.0
61.9925,3772.0
61.995,3676.0
61.9975,3766.0
62.0,3777.0
62.0025,3680.0
62.005,3694.0
62.0075,3811.0
62.01,3846.0
62.0125,3735.0
62.015,3739.0
62.0175,3803.0
62.02,3767.0
62.0225,3693.0
62.025,3738.0
62.0275,3845.0
62.03,3789.0
62.0325,3765.0
62.035,3795.0
62.0375,3787.0
62.04,3801.0
62.0425,3736.0
62.045,3787.0
62.0475,3793.0
62.05,3818.0
62.0525,3796.0
62.055,3773.0
62.0575,3827.0
62.06,3848.0
62.0625,3797.0
62.065,3784.0
62.0675,3865.0
62.07,3890.0
62.0725,3816.0
62.075,3838.0
62.0775,3900.0
62.08,3951.0
62.0825,3816.0
62.085,3913.0
62.0875,4002.0
62.09,3969.0
62.0925,3974.0
62.095,4046.0
62.0975,4113.0
62.1,4088.0
62.1025,4085.0
62.105,4183.0
62.1075,4222.0
62.11,4253.0
62.1125,4284.0
62.115,4324.0
62.1175,4273.0
62.12,4356.0
62.1225,4381.0
62.125,4380.0
62.1275,4404.0
62.13,4445.0
62.1325,4486.0
62.135,4429.0
62.1375,4448.0
62.14,4506.0
62.1425,4458.0
62.145,4480.0
62.1475,4515.0
62.15,4552.0
62.1525,4485.0
62.155,4490.0
62.1575,4494.0
62.16,4521.0
62.1625,4530.0
62.165,4549.0
62.1675,4563.0
62.17,4490.0
62.1725,4510.0
62.175,4482.0
62.1775,4422.0
62.18,4486.0
62.1825,4518.0
62.185,4514.0
62.1875,4420.0
62.19,4470.0
62.1925,4470.0
62.195,4358.0
62.1975,4369.0
62.2,4453.0
62.2025,4459.0
62.205,4362.0
62.2075,4358.0
62.21,4410.0
62.2125,4363.0
62.215,4313.0
62.2175,4301.0
62.22,4390.0
62.2225,4339.0
62.225,4310.0
62.2275,4308.0
62.23,4285.0
62.2325,4305.0
62.235,4285.0
62.2375,4275.0
62.24,4288.0
62.2425,4338.0
62.245,4316.0
62.2475,4244.0
62.25,4271.0
62.2525,4297.0
62.255,4259.0
62.2575,4186.0
62.26,4316.0
62.2625,4339.0
62.265,4241.0
62.2675,4250.0
62.27,4326.0
62.2725,4321.0
62.275,4212.0
62.2775,4213.0
62.28,4348.0
62.2825,4287.0
62.285,4232.0
62.2875,4232.0
62.29,4329.0
62.2925,4206.0
62.295,4187.0
62.2975,4214.0
62.3,4273.0
62.3025,4257.0
62.305,4222.0
62.3075,4274.0
62.31,4253.0
62.3125,4220.0
62.315,4206.0
62.3175,4178.0
62.32,4255.0
62.3225,4260.0
62.325,4253.0
62.3275,4229.0
62.33,4285.0
62.3325,4213.0
62.335,4119.0
62.3375,4177.0
62.34,4261.0
62.3425,4255.0
62.345,4152.0
62.3475,4215.0
62.35,4263.0
62.3525,4149.0
62.355,4115.0
62.3575,4200.0
62.36,4291.0
62.3625,4174.0
62.365,4141.0
62.3675,4176.0
62.37,4197.0
62.3725,4142.0
62.375,4105.0
62.3775,4214.0
62.38,4201.0
62.3825,4171.0
62.385,4159.0
62.3875,4129.0
62.39,4191.0
62.3925,4156.0
62.395,4171.0
62.3975,4165.0
62.4,4262.0
62.4025,4241.0
62.405,4176.0
62.4075,4173.0
62.41,4238.0
62.4125,4200.0
62.415,4136.0
62.4175,4218.0
62.42,4262.0
62.4225,4181.0
62.425,4203.0
62.4275,4236.0
62.43,4278.0
62.4325,4187.0
62.435,4221.0
62.4375,4261.0
62.44,4228.0
62.4425,4219.0
62.445,4216.0
62.4475,4231.0
62.45,4179.0
62.4525,4173.0
62.455,4229.0
62.4575,4197.0
62.46,4205.0
62.4625,4221.0
62.465,4248.0
62.4675,4141.0
62.47,4203.0
62.4725,4182.0
62.475,4172.0
62.4775,4175.0
62.48,4213.0
62.4825,4231.0
62.485,4190.0
62.4875,4169.0
62.49,4211.0
62.4925,4123.0
62.495,4174.0
62.4975,4185.0
62.5,4224.0
62.5025,4140.0
62.505,4154.0
62.5075,4120.0
62.51,4114.0
62.5125,4133.0
62.515,4187.0
62.5175,4183.0
62.52,4101.0
62.5225,4136.0
62.525,4134.0
62.5275,4015.0
62.53,4087.0
62.5325,4121.0
62.535,4174.0
62.5375,4113.0
62.54,4150.0
62.5425,4155.0
62.545,4076.0
62.5475,4029.0
62.55,4112.0
62.5525,4177.0
62.555,4096.0
62.5575,4099.0
62.56,4125.0
62.5625,4083.0
62.565,4052.0
62.5675,4037.0
62.57,4126.0
62.5725,4087.0
62.575,4120.0
62.5775,4086.0
62.58,4082.0
62.5825,4122.0
62.585,4080.0
62.5875,4079.0
62.59,4048.0
62.5925,4109.0
62.595,4118.0
62.5975,4045.0
62.6,4088.0
62.6025,4132.0
62.605,4099.0
62.6075,3971.0
62.61,4044.0
62.6125,4093.0
62.615,4004.0
62.6175,3989.0
62.62,4066.0
62.6225,4122.0
62.625,3972.0
62.6275,3953.0
62.63,4052.0
62.6325,4067.0
62.635,4037.0
62.6375,4039.0
62.64,4106.0
62.6425,4055.0
62.645,4030.0
62.6475,4016.0
62.65,4082.0
62.6525,4131.0
62.655,4111.0
62.6575,4109.0
62.66,4082.0
62.6625,4137.0
62.665,4087.0
62.6675,3995.0
62.67,4093.0
62.6725,4161.0
62.675,4125.0
62.6775,4029.0
62.68,4099.0
62.6825,4136.0
62.685,3990.0
62.6875,3996.0
62.69,4096.0
62.6925,4138.0
62.695,4017.0
62.6975,4052.0
62.7,4102.0
62.7025,4108.0
62.705,4035.0
62.7075,4043.0
62.71,4140.0
62.7125,4052.0
62.715,4049.0
62.7175,4055.0
62.72,4031.0
62.7225,4050.0
62.725,3984.0
62.7275,4033.0
62.73,4023.0
62.7325,4082.0
62.735,4076.0
62.7375,4004.0
62.74,3912.0
62.7425,3776.0
62.745,3512.0
62.7475,3308.0
62.75,3264.0
62.7525,3469.0
62.755,3818.0
62.7575,4308.0
62.76,4778.0
62.7625,5050.0
62.765,5108.0
62.7675,5302.0
62.77,5411.0
62.7725,5362.0
62.775,5363.0
62.7775,5343.0
62.78,5230.0
62.7825,4976.0
62.785,4822.0
62.7875,4779.0
62.79,4668.0
62.7925,4587.0
62.795,4486.0
62.7975,4416.0
62.8,4201.0
62.8025,4150.0
62.805,3990.0
62.8075,3881.0
62.81,3840.0
62.8125,3824.0
62.815,3802.0
62.8175,3701.0
62.82,3684.0
62.8225,3762.0
62.825,3698.0
62.8275,3708.0
62.83,3716.0
62.8325,3759.0
62.835,3698.0
62.8375,3725.0
62.84,3701.0
62.8425,3702.0
62.845,3716.0
62.8475,3724.0
62.85,3731.0
62.8525,3680.0
62.855,3720.0
62.8575,3712.0
62.86,3674.0
62.8625,3748.0
62.865,3782.0
62.8675,3780.0
62.87,3689.0
62.8725,3763.0
62.875,3810.0
62.8775,3710.0
62.88,3719.0
62.8825,3827.0
62.885,3874.0
62.8875,3799.0
62.89,3811.0
62.8925,3897.0
62.895,3847.0
62.8975,3799.0
62.9,3817.0
62.9025,3942.0
62.905,3889.0
62.9075,3883.0
62.91,3864.0
62.9125,3883.0
62.915,3905.0
62.9175,3851.0
62.92,3844.0
62.9225,3872.0
62.925,3918.0
62.9275,3892.0
62.93,3806.0
62.9325,3865.0
62.935,3879.0
62.9375,3840.0
62.94,3742.0
62.9425,3876.0
62.945,3901.0
62.9475,3813.0
62.95,3802.0
62.9525,3895.0
62.955,3901.0
62.9575,3780.0
62.96,3803.0
62.9625,3939.0
62.965,3938.0
62.9675,3892.0
62.97,3925.0
62.9725,4030.0
62.975,3936.0
62.9775,3951.0
62.98,4007.0
62.9825,4068.0
62.985,4087.0
62.9875,4112.0
62.99,4173.0
62.9925,4190.0
62.995,4193.0
62.9975,4181.0
63.0,4195.0
63.0025,4305.0
63.005,4354.0
63.0075,4360.0
63.01,4317.0
63.0125,4407.0
63.015,4389.0
63.0175,4345.0
63.02,4426.0
63.0225,4532.0
63.025,4527.0
63.0275,4422.0
63.03,4466.0
63.0325,4505.0
63.035,4415.0
63.0375,4399.0
63.04,4459.0
63.0425,4556.0
63.045,4450.0
63.0475,4449.0
63.05,4468.0
63.0525,4437.0
63.055,4398.0
63.0575,4391.0
63.06,4475.0
63.0625,4435.0
63.065,4413.0
63.0675,4399.0
63.07,4370.0
63.0725,4419.0
63.075,4374.0
63.0775,4376.0
63.08,4336.0
63.0825,4401.0
63.085,4373.0
63.0875,4296.0
63.09,4309.0
63.0925,4355.0
63.095,4324.0
63.0975,4248.0
63.1,4320.0
63.1025,4373.0
63.105,4288.0
63.1075,4278.0
63.11,4301.0
63.1125,4342.0
63.115,4203.0
63.1175,4256.0
63.12,4298.0
63.1225,4286.0
63.125,4264.0
63.1275,4290.0
63.13,4279.0
63.1325,4229.0
63.135,4203.0
63.1375,4256.0
63.14,4228.0
63.1425,4244.0
63.145,4256.0
63.1475,4277.0
63.15,4167.0
63.1525,4234.0
63.155,4233.0
63.1575,4222.0
63.16,4220.0
63.1625,4265.0
63.165,4281.0
63.1675,4203.0
63.17,4179.0
63.1725,4243.0
63.175,4214.0
63.1775,4220.0
63.18,4233.0
63.1825,4267.0
63.185,4203.0
63.1875,4211.0
63.19,4190.0
63.1925,4180.0
63.195,4210.0
63.1975,4239.0
63.2,4228.0
63.2025,4182.0
63.205,4203.0
63.2075,4234.0
63.21,4116.0
63.2125,4163.0
63.215,4218.0
63.2175,4261.0
63.22,4144.0
63.2225,4180.0
63.225,4215.0
63.2275,4165.0
63.23,4114.0
63.2325,4171.0
63.235,4218.0
63.2375,4159.0
63.24,4143.0
63.2425,4184.0
63.245,4152.0
63.2475,4122.0
63.25,4110.0
63.2525,4167.0
63.255,4152.0
63.2575,4178.0
63.26,4153.0
63.2625,4122.0
63.265,4170.0
63.2675,4139.0
63.27,4119.0
63.2725,4106.0
63.275,4193.0
63.2775,4198.0
63.28,4140.0
63.2825,4158.0
63.285,4215.0
63.2875,4160.0
63.29,4052.0
63.2925,4127.0
63.295,4217.0
63.2975,4172.0
63.3,4149.0
63.3025,4176.0
63.305,4239.0
63.3075,4011.0
63.31,4018.0
63.3125,4133.0
63.315,4151.0
63.3175,4148.0
63.32,4129.0
63.3225,4188.0
63.325,4145.0
63.3275,4102.0
63.33,4064.0
63.3325,4139.0
63.335,4183.0
63.3375,4154.0
63.34,4149.0
63.3425,4122.0
63.345,4172.0
63.3475,4120.0
63.35,4018.0
63.3525,4069.0
63.355,4148.0
63.3575,4159.0
63.36,4075.0
63.3625,4141.0
63.365,4186.0
63.3675,4051.0
63.37,4053.0
63.3725,4149.0
63.375,4203.0
63.3775,4080.0
63.38,4074.0
63.3825,4108.0
63.385,4101.0
63.3875,4033.0
63.39,4094.0
63.3925,4162.0
63.395,4109.0
63.3975,4096.0
63.4,4109.0
63.4025,4081.0
63.405,4121.0
63.4075,4070.0
63.41,4132.0
63.4125,4119.0
63.415,4151.0
63.4175,4123.0
63.42,4087.0
63.4225,4121.0
63.425,4185.0
63.4275,4137.0
63.43,4113.0
63.4325,4175.0
63.435,4196.0
63.4375,4165.0
63.44,4185.0
63.4425,4179.0
63.445,4234.0
63.4475,4088.0
63.45,4150.0
63.4525,4186.0
63.455,4152.0
63.4575,4147.0
63.46,4165.0
63.4625,4189.0
63.465,4176.0
63.4675,4166.0
63.47,4208.0
63.4725,4160.0
63.475,4175.0
63.4775,4193.0
63.48,4207.0
63.4825,4095.0
63.485,4196.0
63.4875,4199.0
63.49,4174.0
63.4925,4170.0
63.495,4190.0
63.4975,4193.0
63.5,4121.0
63.5025,4110.0
63.505,4221.0
63.5075,4172.0
63.51,4149.0
63.5125,4029.0
63.515,3912.0
63.5175,3643.0
63.52,3444.0
63.5225,3265.0
63.525,3405.0
63.5275,3764.0
63.53,4264.0
63.5325,4722.0
63.535,4953.0
63.5375,5240.0
63.54,5363.0
63.5425,5350.0
63.545,5424.0
63.5475,5452.0
63.55,5410.0
63.5525,5200.0
63.555,5037.0
63.5575,4910.0
63.56,4694.0
63.5625,4607.0
63.565,4627.0
63.5675,4541.0
63.57,4344.0
63.5725,4226.0
63.575,4176.0
63.5775,3959.0
63.58,3788.0
63.5825,3724.0
63.585,3788.0
63.5875,3705.0
63.59,3680.0
63.5925,3669.0
63.595,3706.0
63.5975,3729.0
63.6,3682.0
63.6025,3669.0
63.605,3705.0
63.6075,3768.0
63.61,3753.0
63.6125,3677.0
63.615,3729.0
63.6175,3745.0
63.62,3704.0
63.6225,3617.0
63.625,3757.0
63.6275,3790.0
63.63,3712.0
63.6325,3689.0
63.635,3789.0
63.6375,3787.0
63.64,3678.0
63.6425,3709.0
63.645,3841.0
63.6475,3812.0
63.65,3790.0
63.6525,3791.0
63.655,3881.0
63.6575,3767.0
63.66,3756.0
63.6625,3791.0
63.665,3835.0
63.6675,3839.0
63.67,3814.0
63.6725,3851.0
63.675,3821.0
63.6775,3797.0
63.68,3759.0
63.6825,3744.0
63.685,3836.0
63.6875,3848.0
63.69,3833.0
63.6925,3759.0
63.695,3814.0
63.6975,3770.0
63.7,3684.0
63.7025,3720.0
63.705,3808.0
63.7075,3810.0
63.71,3728.0
63.7125,3747.0
63.715,3796.0
63.7175,3721.0
63.72,3682.0
63.7225,3777.0
63.725,3879.0
63.7275,3788.0
63.73,3795.0
63.7325,3850.0
63.735,3841.0
63.7375,3829.0
63.74,3835.0
63.7425,3931.0
63.745,3938.0
63.7475,3956.0
63.75,3996.0
63.7525,3974.0
63.755,4037.0
63.7575,4043.0
63.76,4094.0
63.7625,4118.0
63.765,4213.0
63.7675,4194.0
63.77,4146.0
63.7725,4181.0
63.775,4246.0
63.7775,4260.0
63.78,4217.0
63.7825,4300.0
63.785,4378.0
63.7875,4316.0
63.79,4342.0
63.7925,4379.0
63.795,4401.0
63.7975,4304.0
63.8,4358.0
63.8025,4411.0
63.805,4379.0
63.8075,4386.0
63.81,4422.0
63.8125,4456.0
63.815,4413.0
63.8175,4408.0
63.82,4464.0
63.8225,4421.0
63.825,4434.0
63.8275,4444.0
63.83,4453.0
63.8325,4347.0
63.835,4403.0
63.8375,4418.0
63.84,4398.0
63.8425,4386.0
63.845,4409.0
63.8475,4446.0
63.85,4362.0
63.8525,4309.0
63.855,4363.0
63.8575,4318.0
63.86,4349.0
63.8625,4337.0
63.865,4361.0
63.8675,4314.0
63.87,4313.0
63.8725,4257.0
63.875,4232.0
63.8775,4269.0
63.88,4299.0
63.8825,4288.0
63.885,4201.0
63.8875,4240.0
63.89,4248.0
63.8925,4123.0
63.895,4153.0
63.8975,4206.0
63.9,4243.0
63.9025,4133.0
63.905,4171.0
63.9075,4196.0
63.91,4129.0
63.9125,4069.0
63.915,4129.0
63.9175,4231.0
63.92,4196.0
63.9225,4184.0
63.925,4213.0
63.9275,4187.0
63.93,4157.0
63.9325,4157.0
63.935,4198.0
63.9375,4196.0
63.94,4216.0
63.9425,4195.0
63.945,4166.0
63.9475,4222.0
63.95,4202.0
63.9525,4193.0
63.955,4153.0
63.9575,4268.0
63.96,4282.0
63.9625,4192.0
63.965,4228.0
63.9675,4287.0
63.97,4259.0
63.9725,4183.0
63.975,4259.0
63.9775,4361.0
63.98,4282.0
63.9825,4264.0
63.985,4330.0
63.9875,4427.0
63.99,4303.0
63.9925,4328.0
63.995,4455.0
63.9975,4495.0
64.0,4503.0
64.0025,4536.0
64.005,4643.0
64.0075,4637.0
64.01,4649.0
64.0125,4672.0
64.015,4746.0
64.0175,4850.0
64.02,4864.0
64.0225,4911.0
64.025,4897.0
64.0275,4995.0
64.03,4994.0
64.0325,5029.0
64.035,5181.0
64.0375,5320.0
64.04,5358.0
64.0425,5321.0
64.045,5449.0
64.0475,5604.0
64.05,5589.0
64.0525,5663.0
64.055,5845.0
64.0575,6046.0
64.06,6081.0
64.0625,6242.0
64.065,6453.0
64.0675,6603.0
64.07,6680.0
64.0725,6705.0
64.075,6883.0
64.0775,6850.0
64.08,6747.0
64.0825,6827.0
64.085,6838.0
64.0875,6589.0
64.09,5896.0
64.0925,5210.0
64.095,4468.0
64.0975,3469.0
64.1,2320.0
64.1025,607.0
64.105,2.0
64.1075,4.0
64.11,0.0
64.1125,5.0
64.115,1.0
64.1175,4.0
64.12,0.0
64.1225,6.0
64.125,0.0
64.1275,5.0
64.13,1.0
64.1325,5.0
64.135,1.0
64.1375,3.0
64.14,1.0
64.1425,3.0
64.145,1.0
64.1475,3.0
64.15,2.0
64.1525,1.0
64.155,3.0
64.1575,1.0
64.16,4.0
64.1625,1.0
64.165,4.0
64.1675,1.0
64.17,5.0
64.1725,1.0
64.175,5.0
64.1775,1.0
64.18,5.0
64.1825,0.0
64.185,5.0
64.1875,0.0
64.19,5.0
64.1925,0.0
64.195,3.0
64.1975,0.0
64.2,4.0
64.2025,2.0
64.205,2.0
64.2075,3.0
64.21,2.0
64.2125,3.0
64.215,1.0
64.2175,4.0
64.22,1.0
64.2225,4.0
64.225,1.0
64.2275,5.0
64.23,0.0
64.2325,4.0
64.235,1.0
64.2375,5.0
64.24,0.0
64.2425,4.0
64.245,0.0
64.2475,4.0
64.25,1.0
64.2525,4.0
64.255,2.0
64.2575,3.0
64.26,1.0
64.2625,2.0
64.265,2.0
64.2675,1.0
64.27,4.0
64.2725,1.0
64.275,4.0
64.2775,1.0
64.28,4.0
64.2825,1.0
64.285,4.0
64.2875,1.0
64.29,5.0
64.2925,1.0
64.295,6.0
64.2975,0.0
64.3,3.0
64.3025,8059.0
64.305,8119.0
64.3075,8117.0
64.31,8119.0
64.3125,8118.0
64.315,8120.0
64.3175,8118.0
64.32,8118.0
64.3225,8118.0
64.325,8117.0
64.3275,8118.0
64.33,8117.0
64.3325,8120.0
64.335,8116.0
64.3375,8119.0
64.34,8116.0
64.3425,8119.0
64.345,8114.0
64.3475,8117.0
64.35,8114.0
64.3525,8116.0
64.355,8114.0
64.3575,8115.0
64.36,8116.0
64.3625,8114.0
64.365,8116.0
64.3675,8114.0
64.37,8116.0
64.3725,8114.0
64.375,8119.0
64.3775,8114.0
64.38,8119.0
64.3825,8116.0
64.385,8118.0
64.3875,8116.0
64.39,8119.0
64.3925,8117.0
64.395,8119.0
64.3975,8116.0
64.4,8119.0
64.4025,8116.0
64.405,8119.0
64.4075,8114.0
64.41,8120.0
64.4125,8115.0
64.415,8118.0
64.4175,8115.0
64.42,8116.0
64.4225,8115.0
64.425,8115.0
64.4275,8114.0
64.43,8114.0
64.4325,8117.0
64.435,8112.0
64.4375,8118.0
64.44,8112.0
64.4425,8117.0
64.445,8111.0
64.4475,8118.0
64.45,8113.0
64.4525,8120.0
64.455,8111.0
64.4575,8119.0
64.46,8114.0
64.4625,8118.0
64.465,8115.0
64.4675,8118.0
64.47,8117.0
64.4725,8119.0
64.475,8116.0
64.4775,8117.0
64.48,8116.0
64.4825,8118.0
64.485,8117.0
64.4875,8117.0
64.49,8117.0
64.4925,8115.0
64.495,8117.0
64.4975,8115.0
64.5,8116.0
64.5025,8112.0
64.505,8117.0
64.5075,8113.0
64.51,8118.0
64.5125,8111.0
64.515,8118.0
64.5175,8111.0
64.52,8118.0
64.5225,8111.0
64.525,8119.0
64.5275,8112.0
64.53,8119.0
64.5325,8113.0
64.535,8118.0
64.5375,8116.0
64.54,8116.0
64.5425,8117.0
64.545,8115.0
64.5475,8119.0
64.55,8116.0
64.5525,8119.0
64.555,8116.0
64.5575,8118.0
64.56,8115.0
64.5625,8120.0
64.565,8115.0
64.5675,8119.0
64.57,8114.0
64.5725,8119.0
64.575,8114.0
64.5775,8118.0
64.58,8114.0
64.5825,8116.0
64.585,8112.0
64.5875,8117.0
64.59,8113.0
64.5925,8117.0
64.595,8113.0
64.5975,8117.0
64.6,8114.0
64.6025,8116.0
64.605,8115.0
64.6075,8116.0
64.61,8116.0
64.6125,8115.0
64.615,8118.0
64.6175,8114.0
64.62,8120.0
64.6225,8115.0
64.625,8121.0
64.6275,8115.0
64.63,8120.0
64.6325,8115.0
64.635,8119.0
64.6375,8116.0
64.64,8118.0
64.6425,8116.0
64.645,8118.0
64.6475,8116.0
64.65,8116.0
64.6525,8116.0
64.655,8114.0
64.6575,8115.0
64.66,8114.0
64.6625,8115.0
64.665,8115.0
64.6675,8115.0
64.67,8114.0
64.6725,8117.0
64.675,8114.0
64.6775,8115.0
64.68,8116.0
64.6825,8117.0
64.685,8117.0
64.6875,8116.0
64.69,8115.0
64.6925,8118.0
64.695,8115.0
64.6975,8118.0
64.7,8116.0
64.7025,8118.0
64.705,8116.0
64.7075,8118.0
64.71,8117.0
64.7125,8117.0
64.715,8118.0
64.7175,8116.0
64.72,8118.0
64.7225,8115.0
64.725,8118.0
64.7275,8116.0
64.73,8119.0
64.7325,8114.0
64.735,8118.0
64.7375,8114.0
64.74,8117.0
64.7425,8115.0
64.745,8115.0
64.7475,8114.0
64.75,8117.0
64.7525,8115.0
64.755,8114.0
64.7575,8116.0
64.76,8114.0
64.7625,8119.0
64.765,8115.0
64.7675,8118.0
64.77,8116.0
64.7725,8119.0
64.775,8117.0
64.7775,8120.0
64.78,8119.0
64.7825,8121.0
64.785,59.0
64.7875,5.0
64.79,1.0
64.7925,4.0
64.795,1.0
64.7975,5.0
64.8,0.0
64.8025,4.0
64.805,0.0
64.8075,3.0
64.81,1.0
64.8125,3.0
64.815,1.0
64.8175,2.0
64.82,3.0
64.8225,2.0
64.825,3.0
64.8275,1.0
64.83,4.0
64.8325,1.0
64.835,4.0
64.8375,1.0
64.84,5.0
64.8425,2.0
64.845,3.0
64.8475,0.0
64.85,4.0
64.8525,0.0
64.855,5.0
64.8575,0.0
64.86,4.0
64.8625,0.0
64.865,4.0
64.8675,1.0
64.87,3.0
64.8725,2.0
64.875,3.0
64.8775,2.0
64.88,2.0
64.8825,3.0
64.885,1.0
64.8875,4.0
64.89,1.0
64.8925,5.0
64.895,0.0
64.8975,5.0
64.9,1.0
64.9025,6.0
64.905,-1.0
64.9075,5.0
64.91,0.0
64.9125,4.0
64.915,0.0
64.9175,3.0
64.92,0.0
64.9225,4.0
64.925,1.0
64.9275,1.0
64.93,1.0
64.9325,2.0
64.935,2.0
64.9375,2.0
64.94,4.0
64.9425,1.0
64.945,4.0
64.9475,0.0
64.95,5.0
64.9525,1.0
64.955,5.0
64.9575,1.0
64.96,5.0
64.9625,0.0
64.965,5.0
64.9675,-1.0
64.97,4.0
64.9725,0.0
64.975,4.0
64.9775,1.0
64.98,3.0
64.9825,1.0
64.985,2.0
64.9875,2.0
64.99,0.0
64.9925,3.0
64.995,1.0
64.9975,3.0
65.0,1.0
65.0025,5.0
65.005,1.0
65.0075,5.0
65.01,1.0
65.0125,6.0
65.015,0.0
65.0175,5.0
65.02,0.0
65.0225,5.0
65.025,0.0
65.0275,4.0
65.03,1.0
65.0325,4.0
65.035,1.0
65.0375,3.0
65.04,1.0
65.0425,3.0
65.045,2.0
65.0475,1.0
65.05,3.0
65.0525,3.0
65.055,4.0
65.0575,1.0
65.06,5.0
65.0625,1.0
65.065,5.0
65.0675,1.0
65.07,6.0
65.0725,0.0
65.075,4.0
65.0775,1.0
65.08,6.0
65.0825,0.0
65.085,4.0
65.0875,2.0
65.09,3.0
65.0925,1.0
65.095,2.0
65.0975,2.0
65.1,2.0
65.1025,2.0
65.105,1.0
65.1075,4.0
65.11,1.0
65.1125,4.0
65.115,1.0
65.1175,6.0
65.12,1.0
65.1225,5.0
65.125,1.0
65.1275,5.0
65.13,1.0
65.1325,5.0
65.135,1.0
65.1375,4.0
65.14,1.0
65.1425,3.0
65.145,1.0
65.1475,3.0
65.15,2.0
65.1525,3.0
65.155,2.0
65.1575,2.0
65.16,3.0
65.1625,1.0
65.165,5.0
65.1675,1.0
65.17,5.0
65.1725,0.0
65.175,5.0
65.1775,1.0
65.18,5.0
65.1825,1.0
65.185,5.0
65.1875,0.0
65.19,5.0
65.1925,1.0
65.195,2.0
65.1975,1.0
65.2,4.0
65.2025,1.0
65.205,2.0
65.2075,2.0
65.21,2.0
65.2125,3.0
65.215,1.0
65.2175,3.0
65.22,1.0
65.2225,4.0
65.225,2.0
65.2275,5.0
65.23,1.0
65.2325,5.0
65.235,1.0
65.2375,4.0
65.24,0.0
65.2425,5.0
65.245,0.0
65.2475,3.0
65.25,0.0
65.2525,3.0
65.255,0.0
65.2575,2.0
65.26,1.0
65.2625,2.0
65.265,1.0
65.2675,2.0
65.27,3.0
65.2725,1.0
65.275,4.0
65.2775,1.0
65.28,4.0
65.2825,1.0
65.285,6.0
65.2875,1.0
65.29,5.0
65.2925,0.0
65.295,5.0
65.2975,-1.0
65.3,3.0
65.3025,0.0
65.305,4.0
65.3075,1.0
65.31,3.0
65.3125,1.0
65.315,2.0
65.3175,2.0
65.32,3.0
65.3225,2.0
65.325,1.0
65.3275,4.0
65.33,2.0
65.3325,4.0
65.335,1.0
65.3375,5.0
65.34,1.0
65.3425,4.0
65.345,1.0
65.3475,5.0
65.35,0.0
65.3525,5.0
65.355,0.0
65.3575,3.0
65.36,0.0
65.3625,5.0
65.365,1.0
65.3675,2.0
65.37,1.0
65.3725,2.0
65.375,3.0
65.3775,2.0
65.38,4.0
65.3825,1.0
65.385,4.0
65.3875,1.0
65.39,5.0
65.3925,0.0
65.395,5.0
65.3975,1.0
65.4,5.0
65.4025,0.0
65.405,4.0
65.4075,0.0
65.41,4.0
65.4125,0.0
65.415,4.0
65.4175,0.0
65.42,4.0
65.4225,1.0
65.425,3.0
65.4275,2.0
65.43,2.0
65.4325,3.0
65.435,1.0
65.4375,4.0
65.44,1.0
65.4425,4.0
65.445,1.0
65.4475,5.0
65.45,1.0
65.4525,4.0
65.455,0.0
65.4575,5.0
65.46,0.0
65.4625,5.0
65.465,0.0
65.4675,4.0
65.47,0.0
65.4725,4.0
65.475,2.0
65.4775,3.0
65.48,2.0
65.4825,3.0
65.485,3.0
65.4875,1.0
65.49,2.0
65.4925,1.0
65.495,3.0
65.4975,1.0
65.5,5.0
65.5025,1.0
65.505,4.0
65.5075,1.0
65.51,5.0
65.5125,0.0
65.515,5.0
65.5175,1.0
65.52,4.0
65.5225,0.0
65.525,4.0
65.5275,1.0
65.53,3.0
65.5325,1.0
65.535,3.0
65.5375,2.0
65.54,2.0
65.5425,3.0
65.545,1.0
65.5475,4.0
65.55,1.0
65.5525,5.0
65.555,2.0
65.5575,5.0
65.56,1.0
65.5625,5.0
65.565,1.0
65.5675,4.0
65.57,0.0
65.5725,6.0
65.575,1.0
65.5775,4.0
65.58,0.0
65.5825,3.0
65.585,2.0
65.5875,3.0
65.59,1.0
65.5925,2.0
65.595,3.0
65.5975,1.0
65.6,3.0
65.6025,1.0
65.605,4.0
65.6075,2.0
65.61,5.0
65.6125,1.0
65.615,5.0
65.6175,1.0
65.62,5.0
65.6225,1.0
65.625,5.0
65.6275,0.0
65.63,5.0
65.6325,0.0
65.635,3.0
65.6375,1.0
65.64,2.0
65.6425,1.0
65.645,2.0
65.6475,2.0
65.65,2.0
65.6525,3.0
65.655,1.0
65.6575,3.0
65.66,0.0
65.6625,5.0
65.665,2.0
65.6675,5.0
65.67,0.0
65.6725,6.0
65.675,0.0
65.6775,5.0
65.68,1.0
65.6825,4.0
65.685,0.0
65.6875,4.0
65.69,1.0
65.6925,3.0
65.695,1.0
65.6975,2.0
65.7,2.0
65.7025,2.0
65.705,3.0
65.7075,2.0
65.71,4.0
65.7125,1.0
65.715,4.0
65.7175,1.0
65.72,5.0
65.7225,1.0
65.725,5.0
65.7275,1.0
65.73,4.0
65.7325,0.0
65.735,4.0
65.7375,-1.0
65.74,5.0
65.7425,1.0
65.745,3.0
65.7475,1.0
65.75,3.0
65.7525,2.0
65.755,2.0
65.7575,3.0
65.76,2.0
65.7625,4.0
65.765,1.0
65.7675,5.0
65.77,1.0
65.7725,4.0
65.775,0.0
65.7775,5.0
65.78,0.0
65.7825,5.0
65.785,1.0
65.7875,5.0
65.79,-1.0
65.7925,4.0
65.795,1.0
65.7975,4.0
65.8,0.0
65.8025,4.0
65.805,2.0
65.8075,2.0
65.81,2.0
65.8125,2.0
65.815,3.0
65.8175,3.0
65.82,5.0
65.8225,1.0
65.825,4.0
65.8275,2.0
65.83,6.0
65.8325,1.0
65.835,213.0
65.8375,600.0
65.84,987.0
65.8425,1333.0
65.845,1572.0
65.8475,1946.0
65.85,2305.0
65.8525,2546.0
65.855,2841.0
65.8575,3132.0
65.86,3426.0
65.8625,3575.0
65.865,3888.0
65.8675,4166.0
65.87,4353.0
65.8725,4582.0
65.875,4874.0
65.8775,5119.0
65.88,5180.0
65.8825,5413.0
65.885,5648.0
65.8875,5834.0
65.89,5999.0
65.8925,6188.0
65.895,6411.0
65.8975,6463.0
65.9,6615.0
65.9025,6775.0
65.905,6914.0
65.9075,7038.0
65.91,7208.0
65.9125,7353.0
65.915,7373.0
65.9175,7468.0
65.92,7443.0
65.9225,7317.0
65.925,7281.0
65.9275,7245.0
65.93,7319.0
65.9325,7488.0
65.935,7961.0
65.9375,8116.0
65.94,8120.0
65.9425,8118.0
65.945,8121.0
65.9475,8117.0
65.95,8121.0
65.9525,8116.0
65.955,8120.0
65.9575,8115.0
65.96,8120.0
65.9625,8116.0
65.965,8118.0
65.9675,8116.0
65.97,8117.0
65.9725,8116.0
65.975,8115.0
65.9775,8117.0
65.98,8115.0
65.9825,8117.0
65.985,8114.0
65.9875,8119.0
65.99,8113.0
65.9925,8120.0
65.995,8113.0
65.9975,8120.0
66.0,8113.0
66.0025,8121.0
66.005,8114.0
66.0075,8120.0
66.01,8115.0
66.0125,8120.0
66.015,8117.0
66.0175,8119.0
66.02,8117.0
66.0225,8118.0
66.025,8119.0
66.0275,8118.0
66.03,8119.0
66.0325,8118.0
66.035,8119.0
66.0375,8117.0
66.04,8119.0
66.0425,8116.0
66.045,8120.0
66.0475,8115.0
66.05,8119.0
66.0525,8114.0
66.055,8118.0
66.0575,8113.0
66.06,8119.0
66.0625,8112.0
66.065,8120.0
66.0675,8113.0
66.07,8118.0
66.0725,8113.0
66.075,8119.0
66.0775,8114.0
66.08,8119.0
66.0825,8116.0
66.085,8118.0
66.0875,8118.0
66.09,8117.0
66.0925,8119.0
66.095,8117.0
66.0975,8121.0
66.1,8117.0
66.1025,8121.0
66.105,8116.0
66.1075,8121.0
66.11,8116.0
66.1125,8120.0
66.115,8116.0
66.1175,8120.0
66.12,8116.0
66.1225,8119.0
66.125,8115.0
66.1275,8117.0
66.13,8115.0
66.1325,8117.0
66.135,8114.0
66.1375,8116.0
66.14,8114.0
66.1425,8116.0
66.145,8116.0
66.1475,8117.0
66.15,8115.0
66.1525,8117.0
66.155,8116.0
66.1575,8117.0
66.16,8119.0
66.1625,8117.0
66.165,8120.0
66.1675,8116.0
66.17,8121.0
66.1725,8116.0
66.175,8121.0
66.1775,8117.0
66.18,8120.0
66.1825,8116.0
66.185,8119.0
66.1875,8117.0
66.19,8118.0
66.1925,8118.0
66.195,8117.0
66.1975,8118.0
66.2,8117.0
66.2025,8119.0
66.205,8115.0
66.2075,8118.0
66.21,8115.0
66.2125,8117.0
66.215,8116.0
66.2175,8118.0
66.22,8115.0
66.2225,8118.0
66.225,8117.0
66.2275,8115.0
66.23,8115.0
66.2325,8117.0
66.235,8117.0
66.2375,8117.0
66.24,8117.0
66.2425,8117.0
66.245,8116.0
66.2475,8118.0
66.25,8119.0
66.2525,8119.0
66.255,8120.0
66.2575,8119.0
66.26,8121.0
66.2625,8117.0
66.265,8120.0
66.2675,8116.0
66.27,8121.0
66.2725,8116.0
66.275,8120.0
66.2775,8115.0
66.28,8118.0
66.2825,8114.0
66.285,8117.0
66.2875,8115.0
66.29,8117.0
66.2925,8116.0
66.295,8115.0
66.2975,8116.0
66.3,8114.0
66.3025,8118.0
66.305,8113.0
66.3075,8118.0
66.31,8114.0
66.3125,8120.0
66.315,8114.0
66.3175,8120.0
66.32,8115.0
66.3225,8103.0
66.325,8059.0
66.3275,8026.0
66.33,7972.0
66.3325,7961.0
66.335,7846.0
66.3375,7866.0
66.34,7802.0
66.3425,7694.0
66.345,7675.0
66.3475,7653.0
66.35,7619.0
66.3525,7438.0
66.355,7488.0
66.3575,7495.0
66.36,7410.0
66.3625,7357.0
66.365,7373.0
66.3675,7382.0
66.37,7195.0
66.3725,7176.0
66.375,7219.0
66.3775,7158.0
66.38,7104.0
66.3825,7077.0
66.385,7121.0
66.3875,6962.0
66.39,6950.0
66.3925,6942.0
66.395,6897.0
66.3975,6856.0
66.4,6825.0
66.4025,6833.0
66.405,6699.0
66.4075,6698.0
66.41,6648.0
66.4125,6603.0
66.415,6601.0
66.4175,6584.0
66.42,6583.0
66.4225,6457.0
66.425,6455.0
66.4275,6432.0
66.43,6329.0
66.4325,6336.0
66.435,6369.0
66.4375,6402.0
66.44,6243.0
66.4425,6281.0
66.445,6270.0
66.4475,6207.0
66.45,6158.0
66.4525,6212.0
66.455,6265.0
66.4575,6146.0
66.46,6145.0
66.4625,6180.0
66.465,6138.0
66.4675,6141.0
66.47,6118.0
66.4725,6172.0
66.475,6067.0
66.4775,6083.0
66.48,6078.0
66.4825,6004.0
66.485,5972.0
66.4875,5998.0
66.49,6037.0
66.4925,5943.0
66.495,5966.0
66.4975,5964.0
66.5,5866.0
66.5025,5825.0
66.505,5846.0
66.5075,5898.0
66.51,5775.0
66.5125,5818.0
66.515,5839.0
66.5175,5766.0
66.52,5736.0
66.5225,5749.0
66.525,5770.0
66.5275,5696.0
66.53,5696.0
66.5325,5701.0
66.535,5638.0
66.5375,5622.0
66.54,5641.0
66.5425,5667.0
66.545,5553.0
66.5475,5594.0
66.55,5618.0
66.5525,5572.0
66.555,5552.0
66.5575,5586.0
66.56,5629.0
66.5625,5482.0
66.565,5503.0
66.5675,5546.0
66.57,5501.0
66.5725,5473.0
66.575,5471.0
66.5775,5519.0
66.58,5392.0
66.5825,5400.0
66.585,5393.0
66.5875,5403.0
66.59,5402.0
66.5925,5394.0
66.595,5417.0
66.5975,5344.0
66.6,5372.0
66.6025,5341.0
66.605,5273.0
66.6075,5291.0
66.61,5321.0
66.6125,5337.0
66.615,5202.0
66.6175,5257.0
66.62,5265.0
66.6225,5180.0
66.625,5179.0
66.6275,5247.0
66.63,5267.0
66.6325,5060.0
66.635,4952.0
66.6375,4832.0
66.64,4584.0
66.6425,4358.0
66.645,4282.0
66.6475,4585.0
66.65,4831.0
66.6525,5236.0
66.655,5657.0
66.6575,5911.0
66.66,6075.0
66.6625,6189.0
66.665,6268.0
66.6675,6213.0
66.67,6238.0
66.6725,6163.0
66.675,6023.0
66.6775,5845.0
66.68,5687.0
66.6825,5584.0
66.685,5396.0
66.6875,5398.0
66.69,5280.0
66.6925,5104.0
66.695,4995.0
66.6975,4915.0
66.7,4795.0
66.7025,4545.0
66.705,4552.0
66.7075,4575.0
66.71,4479.0
66.7125,4433.0
66.715,4480.0
66.7175,4557.0
66.72,4423.0
66.7225,4419.0
66.725,4492.0
66.7275,4492.0
66.73,4465.0
66.7325,4464.0
66.735,4511.0
66.7375,4432.0
66.74,4431.0
66.7425,4426.0
66.745,4414.0
66.7475,4434.0
66.75,4442.0
66.7525,4478.0
66.755,4391.0
66.7575,4455.0
66.76,4450.0
66.7625,4387.0
66.765,4411.0
66.7675,4474.0
66.77,4480.0
66.7725,4373.0
66.775,4416.0
66.7775,4471.0
66.78,4390.0
66.7825,4373.0
66.785,4442.0
66.7875,4517.0
66.79,4435.0
66.7925,4448.0
66.795,4464.0
66.7975,4424.0
66.8,4393.0
66.8025,4402.0
66.805,4461.0
66.8075,4369.0
66.81,4395.0
66.8125,4397.0
66.815,4342.0
66.8175,4346.0
66.82,4345.0
66.8225,4391.0
66.825,4286.0
66.8275,4324.0
66.83,4320.0
66.8325,4274.0
66.835,4273.0
66.8375,4315.0
66.84,4349.0
66.8425,4279.0
66.845,4312.0
66.8475,4343.0
66.85,4282.0
66.8525,4283.0
66.855,4315.0
66.8575,4398.0
66.86,4324.0
66.8625,4378.0
66.865,4419.0
66.8675,4407.0
66.87,4434.0
66.8725,4487.0
66.875,4533.0
66.8775,4498.0
66.88,4566.0
66.8825,4599.0
66.885,4578.0
66.8875,4611.0
66.89,4660.0
66.8925,4721.0
66.895,4643.0
66.8975,4707.0
66.9,4743.0
66.9025,4712.0
66.905,4707.0
66.9075,4755.0
66.91,4829.0
66.9125,4737.0
66.915,4756.0
66.9175,4801.0
66.92,4786.0
66.9225,4797.0
66.925,4818.0
66.9275,4877.0
66.93,4800.0
66.9325,4805.0
66.935,4793.0
66.9375,4765.0
66.94,4793.0
66.9425,4822.0
66.945,4833.0
66.9475,4794.0
66.95,4839.0
66.9525,4837.0
66.955,4766.0
66.9575,4798.0
66.96,4867.0
66.9625,4908.0
66.965,4778.0
66.9675,4807.0
66.97,4838.0
66.9725,4740.0
66.975,4692.0
66.9775,4760.0
66.98,4829.0
66.9825,4711.0
66.985,4703.0
66.9875,4721.0
66.99,4687.0
66.9925,4632.0
66.995,4634.0
66.9975,4695.0
67.0,4651.0
67.0025,4651.0
67.005,4623.0
67.0075,4567.0
67.01,4566.0
67.0125,4553.0
67.015,4559.0
67.0175,4497.0
67.02,4556.0
67.0225,4564.0
67.025,4484.0
67.0275,4494.0
67.03,4535.0
67.0325,4551.0
67.035,4423.0
67.0375,4492.0
67.04,4539.0
67.0425,4462.0
67.045,4461.0
67.0475,4530.0
67.05,4570.0
67.0525,4474.0
67.055,4502.0
67.0575,4562.0
67.06,4512.0
67.0625,4451.0
67.065,4474.0
67.0675,4539.0
67.07,4432.0
67.0725,4438.0
67.075,4463.0
67.0775,4467.0
67.08,4460.0
67.0825,4446.0
67.085,4504.0
67.0875,4421.0
67.09,4455.0
67.0925,4451.0
67.095,4417.0
67.0975,4443.0
67.1,4478.0
67.1025,4478.0
67.105,4413.0
67.1075,4453.0
67.11,4451.0
67.1125,4371.0
67.115,4390.0
67.1175,4449.0
67.12,4490.0
67.1225,4356.0
67.125,4400.0
67.1275,4406.0
67.13,4375.0
67.1325,4344.0
67.135,4399.0
67.1375,4462.0
67.14,4345.0
67.1425,4365.0
67.145,4370.0
67.1475,4306.0
67.15,4330.0
67.1525,4337.0
67.155,4398.0
67.1575,4293.0
67.16,4335.0
67.1625,4348.0
67.165,4316.0
67.1675,4303.0
67.17,4329.0
67.1725,4348.0
67.175,4256.0
67.1775,4294.0
67.18,4333.0
67.1825,4286.0
67.185,4283.0
67.1875,4282.0
67.19,4364.0
67.1925,4254.0
67.195,4298.0
67.1975,4292.0
67.2,4245.0
67.2025,4240.0
67.205,4269.0
67.2075,4297.0
67.21,4248.0
67.2125,4266.0
67.215,4283.0
67.2175,4220.0
67.22,4230.0
67.2225,4255.0
67.225,4263.0
67.2275,4142.0
67.23,4207.0
67.2325,4248.0
67.235,4186.0
67.2375,4187.0
67.24,4234.0
67.2425,4306.0
67.245,4171.0
67.2475,4201.0
67.25,4273.0
67.2525,4235.0
67.255,4242.0
67.2575,4268.0
67.26,4345.0
67.2625,4232.0
67.265,4249.0
67.2675,4227.0
67.27,4233.0
67.2725,4287.0
67.275,4320.0
67.2775,4358.0
67.28,4291.0
67.2825,4340.0
67.285,4295.0
67.2875,4232.0
67.29,4301.0
67.2925,4333.0
67.295,4339.0
67.2975,4203.0
67.3,4264.0
67.3025,4289.0
67.305,4212.0
67.3075,4200.0
67.31,4282.0
67.3125,4335.0
67.315,4195.0
67.3175,4234.0
67.32,4282.0
67.3225,4236.0
67.325,4225.0
67.3275,4240.0
67.33,4336.0
67.3325,4225.0
67.335,4222.0
67.3375,4237.0
67.34,4213.0
67.3425,4171.0
67.345,4181.0
67.3475,4231.0
67.35,4223.0
67.3525,4249.0
67.355,4220.0
67.3575,4105.0
67.36,3980.0
67.3625,3773.0
67.365,3605.0
67.3675,3439.0
67.37,3724.0
67.3725,4155.0
67.375,4528.0
67.3775,4985.0
67.38,5268.0
67.3825,5462.0
67.385,5458.0
67.3875,5565.0
67.39,5623.0
67.3925,5585.0
67.395,5470.0
67.3975,5370.0
67.4,5234.0
67.4025,4959.0
67.405,4849.0
67.4075,4789.0
67.41,4666.0
67.4125,4517.0
67.415,4410.0
67.4175,4333.0
67.42,4106.0
67.4225,3968.0
67.425,3864.0
67.4275,3834.0
67.43,3832.0
67.4325,3803.0
67.435,3811.0
67.4375,3715.0
67.44,3770.0
67.4425,3766.0
67.445,3678.0
67.4475,3711.0
67.45,3785.0
67.4525,3838.0
67.455,3756.0
67.4575,3796.0
67.46,3826.0
67.4625,3739.0
67.465,3758.0
67.4675,3820.0
67.47,3889.0
67.4725,3785.0
67.475,3828.0
67.4775,3857.0
67.48,3857.0
67.4825,3862.0
67.485,3884.0
67.4875,3946.0
67.49,3885.0
67.4925,3894.0
67.495,3930.0
67.4975,3890.0
67.5,3899.0
67.5025,3930.0
67.505,3998.0
67.5075,3907.0
67.51,3963.0
67.5125,3996.0
67.515,3961.0
67.5175,3946.0
67.52,3991.0
67.5225,4033.0
67.525,3943.0
67.5275,3999.0
67.53,4024.0
67.5325,4001.0
67.535,4005.0
67.5375,3981.0
67.54,4039.0
67.5425,3938.0
67.545,3979.0
67.5475,3996.0
67.55,3942.0
67.5525,3912.0
67.555,3933.0
67.5575,3957.0
67.56,3873.0
67.5625,3918.0
67.565,3951.0
67.5675,3894.0
67.57,3898.0
67.5725,3939.0
67.575,4000.0
67.5775,3866.0
67.58,3937.0
67.5825,3979.0
67.585,3979.0
67.5875,3994.0
67.59,4055.0
67.5925,4108.0
67.595,4032.0
67.5975,4079.0
67.6,4159.0
67.6025,4158.0
67.605,4181.0
67.6075,4247.0
67.61,4315.0
67.6125,4274.0
67.615,4297.0
67.6175,4316.0
67.62,4305.0
67.6225,4367.0
67.625,4416.0
67.6275,4474.0
67.63,4389.0
67.6325,4456.0
67.635,4469.0
67.6375,4437.0
67.64,4468.0
67.6425,4537.0
67.645,4577.0
67.6475,4470.0
67.65,4503.0
67.6525,4544.0
67.655,4466.0
67.6575,4450.0
67.66,4493.0
67.6625,4567.0
67.665,4457.0
67.6675,4477.0
67.67,4524.0
67.6725,4491.0
67.675,4468.0
67.6775,4485.0
67.68,4553.0
67.6825,4463.0
67.685,4474.0
67.6875,4479.0
67.69,4451.0
67.6925,4463.0
67.695,4456.0
67.6975,4464.0
67.7,4402.0
67.7025,4448.0
67.705,4414.0
67.7075,4352.0
67.71,4355.0
67.7125,4389.0
67.715,4400.0
67.7175,4265.0
67.72,4344.0
67.7225,4387.0
67.725,4323.0
67.7275,4297.0
67.73,4342.0
67.7325,4383.0
67.735,4237.0
67.7375,4266.0
67.74,4318.0
67.7425,4312.0
67.745,4281.0
67.7475,4283.0
67.75,4329.0
67.7525,4235.0
67.755,4240.0
67.7575,4270.0
67.76,4263.0
67.7625,4289.0
67.765,4280.0
67.7675,4305.0
67.77,4211.0
67.7725,4247.0
67.775,4250.0
67.7775,4216.0
67.78,4228.0
67.7825,4269.0
67.785,4318.0
67.7875,4204.0
67.79,4244.0
67.7925,4254.0
67.795,4193.0
67.7975,4211.0
67.8,4252.0
67.8025,4280.0
67.805,4146.0
67.8075,4183.0
67.81,4193.0
67.8125,4148.0
67.815,4128.0
67.8175,4197.0
67.82,4251.0
67.8225,4146.0
67.825,4168.0
67.8275,4206.0
67.83,4138.0
67.8325,4155.0
67.835,4134.0
67.8375,4196.0
67.84,4092.0
67.8425,4139.0
67.845,4153.0
67.8475,4131.0
67.85,4112.0
67.8525,4158.0
67.855,4191.0
67.8575,4111.0
67.86,4155.0
67.8625,4189.0
67.865,4138.0
67.8675,4127.0
67.87,4120.0
67.8725,4206.0
67.875,4104.0
67.8775,4144.0
67.88,4159.0
67.8825,4124.0
67.885,4149.0
67.8875,4168.0
67.89,4189.0
67.8925,4115.0
67.895,4164.0
67.8975,4177.0
67.9,4138.0
67.9025,4163.0
67.905,4202.0
67.9075,4214.0
67.91,4105.0
67.9125,4169.0
67.915,4193.0
67.9175,4128.0
67.92,4135.0
67.9225,4184.0
67.925,4229.0
67.9275,4101.0
67.93,4122.0
67.9325,4188.0
67.935,4150.0
67.9375,4152.0
67.94,4148.0
67.9425,4205.0
67.945,4097.0
67.9475,4102.0
67.95,4109.0
67.9525,4121.0
67.955,4148.0
67.9575,4170.0
67.96,4178.0
67.9625,4100.0
67.965,4134.0
67.9675,4126.0
67.97,4072.0
67.9725,4108.0
67.975,4151.0
67.9775,4181.0
67.98,4066.0
67.9825,4135.0
67.985,4155.0
67.9875,4083.0
67.99,4090.0
67.9925,4146.0
67.995,4205.0
67.9975,4080.0
68.0,4097.0
68.0025,4149.0
68.005,4116.0
68.0075,4125.0
68.01,4141.0
68.0125,4254.0
68.015,4166.0
68.0175,4175.0
68.02,4165.0
68.0225,4114.0
68.025,4115.0
68.0275,4133.0
68.03,4192.0
68.0325,4167.0
68.035,4203.0
68.0375,4197.0
68.04,4136.0
68.0425,4154.0
68.045,4164.0
68.0475,4177.0
68.05,4112.0
68.0525,4181.0
68.055,4189.0
68.0575,4135.0
68.06,4141.0
68.0625,4173.0
68.065,4200.0
68.0675,4077.0
68.07,4148.0
68.0725,4199.0
68.075,4139.0
68.0775,4122.0
68.08,4149.0
68.0825,4210.0
68.085,4105.0
68.0875,4110.0
68.09,4148.0
68.0925,4118.0
68.095,4107.0
68.0975,4118.0
68.1,4183.0
68.1025,4082.0
68.105,4113.0
68.1075,4112.0
68.11,4109.0
68.1125,4152.0
68.115,4147.0
68.1175,4176.0
68.12,4071.0
68.1225,4097.0
68.125,4110.0
68.1275,4050.0
68.13,4058.0
68.1325,4117.0
68.135,4150.0
68.1375,4028.0
68.14,4066.0
68.1425,4143.0
68.145,4111.0
68.1475,4133.0
68.15,4156.0
68.1525,4115.0
68.155,3847.0
68.1575,3653.0
68.16,3514.0
68.1625,3430.0
68.165,3735.0
68.1675,4209.0
68.17,4719.0
68.1725,5026.0
68.175,5183.0
68.1775,5318.0
68.18,5346.0
68.1825,5391.0
68.185,5457.0
68.1875,5515.0
68.19,5336.0
68.1925,5174.0
68.195,4978.0
68.1975,4777.0
68.2,4646.0
68.2025,4554.0
68.205,4495.0
68.2075,4266.0
68.21,4175.0
68.2125,4091.0
68.215,3918.0
68.2175,3793.0
68.22,3705.0
68.2225,3703.0
68.225,3566.0
68.2275,3592.0
68.23,3593.0
68.2325,3535.0
68.235,3553.0
68.2375,3563.0
68.24,3599.0
68.2425,3505.0
68.245,3544.0
68.2475,3575.0
68.25,3504.0
68.2525,3490.0
68.255,3509.0
68.2575,3553.0
68.26,3419.0
68.2625,3457.0
68.265,3476.0
68.2675,3419.0
68.27,3367.0
68.2725,3372.0
68.275,3403.0
68.2775,3298.0
68.28,3248.0
68.2825,3250.0
68.285,3211.0
68.2875,3227.0
68.29,3232.0
68.2925,3264.0
68.295,3176.0
68.2975,3197.0
68.3,3213.0
68.3025,3202.0
68.305,3245.0
68.3075,3286.0
68.31,3333.0
68.3125,3255.0
68.315,3326.0
68.3175,3352.0
68.32,3307.0
68.3225,3336.0
68.325,3439.0
68.3275,3483.0
68.33,3436.0
68.3325,3486.0
68.335,3531.0
68.3375,3474.0
68.34,3503.0
68.3425,3561.0
68.345,3659.0
68.3475,3584.0
68.35,3624.0
68.3525,3677.0
68.355,3642.0
68.3575,3640.0
68.36,3669.0
68.3625,3766.0
68.365,3732.0
68.3675,3779.0
68.37,3812.0
68.3725,3785.0
68.375,3815.0
68.3775,3860.0
68.38,3898.0
68.3825,3894.0
68.385,3985.0
68.3875,3995.0
68.39,3946.0
68.3925,3983.0
68.395,4063.0
68.3975,4132.0
68.4,4046.0
68.4025,4141.0
68.405,4221.0
68.4075,4159.0
68.41,4172.0
68.4125,4254.0
68.415,4334.0
68.4175,4220.0
68.42,4266.0
68.4225,4340.0
68.425,4333.0
68.4275,4328.0
68.43,4376.0
68.4325,4428.0
68.435,4383.0
68.4375,4382.0
68.44,4417.0
68.4425,4395.0
68.445,4416.0
68.4475,4438.0
68.45,4489.0
68.4525,4399.0
68.455,4437.0
68.4575,4430.0
68.46,4399.0
68.4625,4429.0
68.465,4467.0
68.4675,4512.0
68.47,4408.0
68.4725,4441.0
68.475,4464.0
68.4775,4384.0
68.48,4414.0
68.4825,4454.0
68.485,4516.0
68.4875,4432.0
68.49,4434.0
68.4925,4420.0
68.495,4379.0
68.4975,4359.0
68.5,4410.0
68.5025,4450.0
68.505,4359.0
68.5075,4381.0
68.51,4407.0
68.5125,4353.0
68.515,4358.0
68.5175,4376.0
68.52,4435.0
68.5225,4371.0
68.525,4379.0
68.5275,4373.0
68.53,4358.0
68.5325,4221.0
68.535,4324.0
68.5375,4363.0
68.54,4262.0
68.5425,4283.0
68.545,4332.0
68.5475,4325.0
68.55,4315.0
68.5525,4296.0
68.555,4359.0
68.5575,4251.0
68.56,4303.0
68.5625,4300.0
68.565,4268.0
68.5675,4268.0
68.57,4290.0
68.5725,4314.0
68.575,4242.0
68.5775,4289.0
68.58,4306.0
68.5825,4243.0
68.585,4265.0
68.5875,4303.0
68.59,4341.0
68.5925,4218.0
68.595,4288.0
68.5975,4338.0
68.6,4297.0
68.6025,4299.0
68.605,4332.0
68.6075,4375.0
68.61,4243.0
68.6125,4260.0
68.615,4321.0
68.6175,4294.0
68.62,4293.0
68.6225,4302.0
68.625,4367.0
68.6275,4267.0
68.63,4268.0
68.6325,4271.0
68.635,4271.0
68.6375,4296.0
68.64,4304.0
68.6425,4336.0
68.645,4252.0
68.6475,4293.0
68.65,4287.0
68.6525,4247.0
68.655,4308.0
68.6575,4329.0
68.66,4350.0
68.6625,4211.0
68.665,4250.0
68.6675,4280.0
68.67,4203.0
68.6725,4197.0
68.675,4273.0
68.6775,4329.0
68.68,4211.0
68.6825,4234.0
68.685,4273.0
68.6875,4235.0
68.69,4200.0
68.6925,4215.0
68.695,4311.0
68.6975,4212.0
68.7,4231.0
68.7025,4250.0
68.705,4244.0
68.7075,4252.0
68.71,4258.0
68.7125,4278.0
68.715,4222.0
68.7175,4253.0
68.72,4256.0
68.7225,4202.0
68.725,4237.0
68.7275,4274.0
68.73,4305.0
68.7325,4213.0
68.735,4294.0
68.7375,4311.0
68.74,4265.0
68.7425,4252.0
68.745,4301.0
68.7475,4346.0
68.75,4212.0
68.7525,4272.0
68.755,4331.0
68.7575,4298.0
68.76,4289.0
68.7625,4315.0
68.765,4365.0
68.7675,4250.0
68.77,4261.0
68.7725,4313.0
68.775,4293.0
68.7775,4298.0
68.78,4309.0
68.7825,4356.0
68.785,4286.0
68.7875,4312.0
68.79,4298.0
68.7925,4280.0
68.795,4288.0
68.7975,4316.0
68.8,4345.0
68.8025,4254.0
68.805,4306.0
68.8075,4336.0
68.81,4274.0
68.8125,4294.0
68.815,4336.0
68.8175,4363.0
68.82,4265.0
68.8225,4277.0
68.825,4317.0
68.8275,4261.0
68.83,4252.0
68.8325,4293.0
68.835,4349.0
68.8375,4253.0
68.84,4281.0
68.8425,4292.0
68.845,4237.0
68.8475,4240.0
68.85,4264.0
68.8525,4331.0
68.855,4238.0
68.8575,4247.0
68.86,4275.0
68.8625,4235.0
68.865,4231.0
68.8675,4277.0
68.87,4315.0
68.8725,4209.0
68.875,4239.0
68.8775,4256.0
68.88,4215.0
68.8825,4189.0
68.885,4233.0
68.8875,4292.0
68.89,4184.0
68.8925,4222.0
68.895,4247.0
68.8975,4199.0
68.9,4219.0
68.9025,4222.0
68.905,4239.0
68.9075,4148.0
68.91,4186.0
68.9125,4216.0
68.915,4202.0
68.9175,4235.0
68.92,4249.0
68.9225,4242.0
68.925,4142.0
68.9275,4205.0
68.93,4236.0
68.9325,4156.0
68.935,4157.0
68.9375,4217.0
68.94,4267.0
68.9425,4118.0
68.945,4150.0
68.9475,4206.0
68.95,4161.0
68.9525,4142.0
68.955,4170.0
68.9575,4261.0
68.96,4151.0
68.9625,4155.0
68.965,4174.0
68.9675,4167.0
68.97,4182.0
68.9725,4176.0
68.975,4215.0
68.9775,4114.0
68.98,4116.0
68.9825,4106.0
68.985,4056.0
68.9875,4108.0
68.99,4138.0
68.9925,4168.0
68.995,4062.0
68.9975,4118.0
69.0,4127.0
69.0025,4049.0
69.005,4057.0
69.0075,4134.0
69.01,4178.0
69.0125,4064.0
69.015,4113.0
69.0175,4135.0
69.02,4073.0
69.0225,4054.0
69.025,4097.0
69.0275,4210.0
69.03,4121.0
69.0325,4144.0
69.035,4133.0
69.0375,3984.0
69.04,3780.0
69.0425,3549.0
69.045,3510.0
69.0475,3456.0
69.05,3805.0
69.0525,4248.0
69.055,4673.0
69.0575,5037.0
69.06,5200.0
69.0625,5368.0
69.065,5381.0
69.0675,5483.0
69.07,5501.0
69.0725,5456.0
69.075,5382.0
69.0775,5213.0
69.08,5030.0
69.0825,4757.0
69.085,4718.0
69.0875,4636.0
69.09,4438.0
69.0925,4299.0
69.095,4214.0
69.0975,4161.0
69.1,3913.0
69.1025,3816.0
69.105,3773.0
69.1075,3719.0
69.11,3667.0
69.1125,3681.0
69.115,3721.0
69.1175,3629.0
69.12,3658.0
69.1225,3689.0
69.125,3690.0
69.1275,3735.0
69.13,3740.0
69.1325,3785.0
69.135,3678.0
69.1375,3727.0
69.14,3721.0
69.1425,3686.0
69.145,3723.0
69.1475,3789.0
69.15,3836.0
69.1525,3738.0
69.155,3764.0
69.1575,3805.0
69.16,3739.0
69.1625,3774.0
69.165,3808.0
69.1675,3876.0
69.17,3760.0
69.1725,3796.0
69.175,3823.0
69.1775,3824.0
69.18,3831.0
69.1825,3860.0
69.185,3919.0
69.1875,3826.0
69.19,3844.0
69.1925,3864.0
69.195,3816.0
69.1975,3840.0
69.2,3858.0
69.2025,3906.0
69.205,3815.0
69.2075,3840.0
69.21,3866.0
69.2125,3810.0
69.215,3795.0
69.2175,3841.0
69.22,3891.0
69.2225,3808.0
69.225,3826.0
69.2275,3858.0
69.23,3830.0
69.2325,3837.0
69.235,3832.0
69.2375,3909.0
69.24,3821.0
69.2425,3857.0
69.245,3877.0
69.2475,3838.0
69.25,3852.0
69.2525,3890.0
69.255,3921.0
69.2575,3849.0
69.26,3899.0
69.2625,3933.0
69.265,3893.0
69.2675,3928.0
69.27,3967.0
69.2725,4015.0
69.275,3925.0
69.2775,4011.0
69.28,4077.0
69.2825,4077.0
69.285,4093.0
69.2875,4147.0
69.29,4229.0
69.2925,4127.0
69.295,4174.0
69.2975,4258.0
69.3,4242.0
69.3025,4276.0
69.305,4319.0
69.3075,4391.0
69.31,4313.0
69.3125,4340.0
69.315,4352.0
69.3175,4361.0
69.32,4387.0
69.3225,4411.0
69.325,4464.0
69.3275,4398.0
69.33,4449.0
69.3325,4452.0
69.335,4390.0
69.3375,4447.0
69.34,4486.0
69.3425,4502.0
69.345,4380.0
69.3475,4421.0
69.35,4439.0
69.3525,4360.0
69.355,4335.0
69.3575,4410.0
69.36,4473.0
69.3625,4366.0
69.365,4379.0
69.3675,4428.0
69.37,4365.0
69.3725,4330.0
69.375,4359.0
69.3775,4452.0
69.38,4353.0
69.3825,4366.0
69.385,4390.0
69.3875,4354.0
69.39,4345.0
69.3925,4337.0
69.395,4373.0
69.3975,4350.0
69.4,4356.0
69.4025,4357.0
69.405,4300.0
69.4075,4312.0
69.41,4339.0
69.4125,4340.0
69.415,4251.0
69.4175,4320.0
69.42,4347.0
69.4225,4268.0
69.425,4273.0
69.4275,4313.0
69.43,4351.0
69.4325,4197.0
69.435,4257.0
69.4375,4294.0
69.44,4231.0
69.4425,4220.0
69.445,4259.0
69.4475,4322.0
69.45,4271.0
69.4525,4246.0
69.455,4278.0
69.4575,4246.0
69.46,4248.0
69.4625,4251.0
69.465,4293.0
69.4675,4197.0
69.47,4235.0
69.4725,4204.0
69.475,4206.0
69.4775,4222.0
69.48,4247.0
69.4825,4269.0
69.485,4178.0
69.4875,4209.0
69.49,4227.0
69.4925,4153.0
69.495,4156.0
69.4975,4207.0
69.5,4247.0
69.5025,4184.0
69.505,4212.0
69.5075,4228.0
69.51,4183.0
69.5125,4162.0
69.515,4210.0
69.5175,4264.0
69.52,4157.0
69.5225,4208.0
69.525,4216.0
69.5275,4163.0
69.53,4176.0
69.5325,4212.0
69.535,4271.0
69.5375,4169.0
69.54,4209.0
69.5425,4224.0
69.545,4160.0
69.5475,4168.0
69.55,4218.0
69.5525,4259.0
69.555,4190.0
69.5575,4219.0
69.56,4246.0
69.5625,4198.0
69.565,4171.0
69.5675,4216.0
69.57,4277.0
69.5725,4200.0
69.575,4221.0
69.5775,4243.0
69.58,4215.0
69.5825,4217.0
69.585,4228.0
69.5875,4275.0
69.59,4194.0
69.5925,4240.0
69.595,4260.0
69.5975,4200.0
69.6,4215.0
69.6025,4243.0
69.605,4263.0
69.6075,4198.0
69.61,4263.0
69.6125,4291.0
69.615,4226.0
69.6175,4203.0
69.62,4253.0
69.6225,4308.0
69.625,4182.0
69.6275,4200.0
69.63,4273.0
69.6325,4221.0
69.635,4194.0
69.6375,4221.0
69.64,4292.0
69.6425,4180.0
69.645,4183.0
69.6475,4207.0
69.65,4218.0
69.6525,4224.0
69.655,4242.0
69.6575,4274.0
69.66,4209.0
69.6625,4210.0
69.665,4194.0
69.6675,4141.0
69.67,4190.0
69.6725,4232.0
69.675,4269.0
69.6775,4159.0
69.68,4217.0
69.6825,4201.0
69.685,4133.0
69.6875,4135.0
69.69,4214.0
69.6925,4247.0
69.695,4132.0
69.6975,4168.0
69.7,4212.0
69.7025,4133.0
69.705,4103.0
69.7075,4161.0
69.71,4246.0
69.7125,4136.0
69.715,4164.0
69.7175,4181.0
69.72,4152.0
69.7225,4150.0
69.725,4129.0
69.7275,4193.0
69.73,4119.0
69.7325,4150.0
69.735,4148.0
69.7375,4115.0
69.74,4139.0
69.7425,4142.0
69.745,4186.0
69.7475,4100.0
69.75,4162.0
69.7525,4186.0
69.755,4123.0
69.7575,4140.0
69.76,4201.0
69.7625,4220.0
69.765,4112.0
69.7675,4181.0
69.77,4237.0
69.7725,4193.0
69.775,4192.0
69.7775,4224.0
69.78,4301.0
69.7825,4145.0
69.785,4185.0
69.7875,4223.0
69.79,4202.0
69.7925,4196.0
69.795,4223.0
69.7975,4254.0
69.8,4145.0
69.8025,4154.0
69.805,4183.0
69.8075,4184.0
69.81,4203.0
69.8125,4216.0
69.815,4268.0
69.8175,4176.0
69.82,4230.0
69.8225,4208.0
69.825,4188.0
69.8275,4215.0
69.83,4236.0
69.8325,4258.0
69.835,4161.0
69.8375,4199.0
69.84,4226.0
69.8425,4135.0
69.845,4163.0
69.8475,4186.0
69.85,4235.0
69.8525,4138.0
69.855,4182.0
69.8575,4166.0
69.86,4058.0
69.8625,3904.0
69.865,3783.0
69.8675,3610.0
69.87,3324.0
69.8725,3384.0
69.875,3687.0
69.8775,4050.0
69.88,4465.0
69.8825,4803.0
69.885,5086.0
69.8875,5149.0
69.89,5277.0
69.8925,5351.0
69.895,5336.0
69.8975,5323.0
69.9,5294.0
69.9025,5166.0
69.905,4843.0
69.9075,4717.0
69.91,4650.0
69.9125,4532.0
69.915,4440.0
69.9175,4323.0
69.92,4298.0
69.9225,4097.0
69.925,4041.0
69.9275,3920.0
69.93,3813.0
69.9325,3767.0
69.935,3752.0
69.9375,3723.0
69.94,3640.0
69.9425,3681.0
69.945,3723.0
69.9475,3665.0
69.95,3678.0
69.9525,3708.0
69.955,3726.0
69.9575,3613.0
69.96,3680.0
69.9625,3719.0
69.965,3684.0
69.9675,3658.0
69.97,3714.0
69.9725,3779.0
69.975,3666.0
69.9775,3705.0
69.98,3729.0
69.9825,3724.0
69.985,3743.0
69.9875,3757.0
69.99,3793.0
69.9925,3713.0
69.995,3732.0
69.9975,3749.0
70.0,3739.0
70.0025,3782.0
70.005,3802.0
70.0075,3834.0
70.01,3742.0
70.0125,3801.0
70.015,3808.0
70.0175,3753.0
70.02,3805.0
70.0225,3875.0
70.025,3919.0
70.0275,3783.0
70.03,3829.0
70.0325,3846.0
70.035,3794.0
70.0375,3789.0
70.04,3859.0
70.0425,3905.0
70.045,3807.0
70.0475,3817.0
70.05,3852.0
70.0525,3814.0
70.055,3804.0
70.0575,3823.0
70.06,3901.0
70.0625,3804.0
70.065,3824.0
70.0675,3836.0
70.07,3826.0
70.0725,3855.0
70.075,3866.0
70.0775,3935.0
70.08,3884.0
70.0825,3942.0
70.085,3963.0
70.0875,3949.0
70.09,3991.0
70.0925,4037.0
70.095,4063.0
70.0975,3994.0
70.1,4085.0
70.1025,4140.0
70.105,4102.0
70.1075,4129.0
70.11,4204.0
70.1125,4262.0
70.115,4148.0
70.1175,4219.0
70.12,4303.0
70.1225,4268.0
70.125,4294.0
