32.975,4203.0
32.9775,4226.0
32.98,4137.0
32.9825,4162.0
32.985,4185.0
32.9875,4117.0
32.99,4142.0
32.9925,4194.0
32.995,4236.0
32.9975,4186.0
33.0,4195.0
33.0025,4208.0
33.005,4132.0
33.0075,4142.0
33.01,4172.0
33.0125,4204.0
33.015,4165.0
33.0175,4207.0
33.02,4209.0
33.0225,4138.0
33.025,4122.0
33.0275,4151.0
33.03,4189.0
33.0325,4143.0
33.035,4166.0
33.0375,4177.0
33.04,4141.0
33.0425,4142.0
33.045,4127.0
33.0475,4158.0
33.05,4144.0
33.0525,4188.0
33.055,4182.0
33.0575,4107.0
33.06,4119.0
33.0625,4125.0
33.065,4112.0
33.0675,4044.0
33.07,4096.0
33.0725,4145.0
33.075,4064.0
33.0775,4063.0
33.08,4099.0
33.0825,4120.0
33.085,4019.0
33.0875,4069.0
33.09,4139.0
33.0925,4144.0
33.095,4133.0
33.0975,4174.0
33.1,4213.0
33.1025,4160.0
33.105,4135.0
33.1075,4153.0
33.11,4148.0
33.1125,4181.0
33.115,4170.0
33.1175,4177.0
33.12,4141.0
33.1225,4157.0
33.125,4131.0
33.1275,4111.0
33.13,4160.0
33.1325,4200.0
33.135,4156.0
33.1375,4075.0
33.14,4139.0
33.1425,4122.0
33.145,4032.0
33.1475,4060.0
33.15,4182.0
33.1525,4205.0
33.155,4111.0
33.1575,4137.0
33.16,4181.0
33.1625,4125.0
33.165,4103.0
33.1675,4126.0
33.17,4189.0
33.1725,4103.0
33.175,4089.0
33.1775,4101.0
33.18,4072.0
33.1825,4027.0
33.185,4013.0
33.1875,4063.0
33.19,4056.0
33.1925,4041.0
33.195,4020.0
33.1975,3984.0
33.2,4009.0
33.2025,3974.0
33.205,3989.0
33.2075,3964.0
33.21,4055.0
33.2125,4067.0
33.215,4017.0
33.2175,4041.0
33.22,4089.0
33.2225,4054.0
33.225,3983.0
33.2275,4070.0
33.23,4141.0
33.2325,4079.0
33.235,4078.0
33.2375,4111.0
33.24,4154.0
33.2425,4045.0
33.245,4076.0
33.2475,4146.0
33.25,4138.0
33.2525,4105.0
33.255,4121.0
33.2575,4137.0
33.26,4101.0
33.2625,4093.0
33.265,4116.0
33.2675,4121.0
33.27,4136.0
33.2725,4121.0
33.275,4111.0
33.2775,4016.0
33.28,4056.0
33.2825,4027.0
33.285,3986.0
33.2875,4027.0
33.29,4062.0
33.2925,4033.0
33.295,3962.0
33.2975,3980.0
33.3,4009.0
33.3025,3907.0
33.305,3932.0
33.3075,3972.0
33.31,4000.0
33.3125,3901.0
33.315,3927.0
33.3175,3913.0
33.32,3892.0
33.3225,3889.0
33.325,3946.0
33.3275,3977.0
33.33,3926.0
33.3325,3969.0
33.335,3983.0
33.3375,3935.0
33.34,3993.0
33.3425,4031.0
33.345,4107.0
33.3475,4063.0
33.35,4128.0
33.3525,4170.0
33.355,4132.0
33.3575,4111.0
33.36,4188.0
33.3625,4225.0
33.365,4186.0
33.3675,4223.0
33.37,4253.0
33.3725,4239.0
33.375,4240.0
33.3775,4218.0
33.38,4269.0
33.3825,4212.0
33.385,4260.0
33.3875,4260.0
33.39,4212.0
33.3925,4215.0
33.395,4218.0
33.3975,4192.0
33.4,4171.0
33.4025,4223.0
33.405,4271.0
33.4075,4189.0
33.41,4207.0
33.4125,4242.0
33.415,4233.0
33.4175,4118.0
33.42,4201.0
33.4225,4245.0
33.425,4207.0
33.4275,4177.0
33.43,4194.0
33.4325,4187.0
33.435,4064.0
33.4375,4073.0
33.44,4143.0
33.4425,4137.0
33.445,4137.0
33.4475,4106.0
33.45,4006.0
33.4525,3780.0
33.455,3525.0
33.4575,3399.0
33.46,3368.0
33.4625,3691.0
33.465,4171.0
33.4675,4660.0
33.47,5027.0
33.4725,5241.0
33.475,5311.0
33.4775,5379.0
33.48,5489.0
33.4825,5588.0
33.485,5577.0
33.4875,5401.0
33.49,5262.0
33.4925,5122.0
33.495,4900.0
33.4975,4778.0
33.5,4744.0
33.5025,4662.0
33.505,4475.0
33.5075,4344.0
33.51,4250.0
33.5125,4055.0
33.515,3906.0
33.5175,3833.0
33.52,3889.0
33.5225,3801.0
33.525,3794.0
33.5275,3797.0
33.53,3808.0
33.5325,3790.0
33.535,3794.0
33.5375,3814.0
33.54,3866.0
33.5425,3901.0
33.545,3864.0
33.5475,3812.0
33.55,3832.0
33.5525,3819.0
33.555,3807.0
33.5575,3764.0
33.56,3844.0
33.5625,3850.0
33.565,3763.0
33.5675,3766.0
33.57,3830.0
33.5725,3823.0
33.575,3724.0
33.5775,3783.0
33.58,3851.0
33.5825,3800.0
33.585,3749.0
33.5875,3802.0
33.59,3838.0
33.5925,3789.0
33.595,3781.0
33.5975,3825.0
33.6,3811.0
33.6025,3805.0
33.605,3805.0
33.6075,3806.0
33.61,3752.0
33.6125,3777.0
33.615,3746.0
33.6175,3743.0
33.62,3775.0
33.6225,3796.0
33.625,3775.0
33.6275,3713.0
33.63,3735.0
33.6325,3726.0
33.635,3675.0
33.6375,3716.0
33.64,3763.0
33.6425,3769.0
33.645,3733.0
33.6475,3756.0
33.65,3761.0
33.6525,3733.0
33.655,3741.0
33.6575,3804.0
33.66,3853.0
33.6625,3792.0
33.665,3844.0
33.6675,3873.0
33.67,3836.0
33.6725,3842.0
33.675,3907.0
33.6775,3978.0
33.68,3945.0
33.6825,3981.0
33.685,4017.0
33.6875,4008.0
33.69,4025.0
33.6925,4084.0
33.695,4154.0
33.6975,4148.0
33.7,4197.0
33.7025,4238.0
33.705,4199.0
33.7075,4199.0
33.71,4241.0
33.7125,4308.0
33.715,4289.0
33.7175,4337.0
33.72,4371.0
33.7225,4332.0
33.725,4363.0
33.7275,4378.0
33.73,4381.0
33.7325,4352.0
33.735,4411.0
33.7375,4438.0
33.74,4375.0
33.7425,4409.0
33.745,4439.0
33.7475,4428.0
33.75,4390.0
33.7525,4481.0
33.755,4502.0
33.7575,4428.0
33.76,4419.0
33.7625,4493.0
33.765,4515.0
33.7675,4421.0
33.77,4446.0
33.7725,4538.0
33.775,4524.0
33.7775,4505.0
33.78,4523.0
33.7825,4566.0
33.785,4496.0
33.7875,4490.0
33.79,4490.0
33.7925,4513.0
33.795,4536.0
33.7975,4526.0
33.8,4540.0
33.8025,4520.0
33.805,4515.0
33.8075,4476.0
33.81,4401.0
33.8125,4475.0
33.815,4503.0
33.8175,4472.0
33.82,4392.0
33.8225,4423.0
33.825,4403.0
33.8275,4316.0
33.83,4301.0
33.8325,4393.0
33.835,4391.0
33.8375,4283.0
33.84,4288.0
33.8425,4331.0
33.845,4229.0
33.8475,4180.0
33.85,4225.0
33.8525,4309.0
33.855,4239.0
33.8575,4232.0
33.86,4251.0
33.8625,4231.0
33.865,4190.0
33.8675,4193.0
33.87,4251.0
33.8725,4250.0
33.875,4243.0
33.8775,4236.0
33.88,4167.0
33.8825,4232.0
33.885,4199.0
33.8875,4189.0
33.89,4177.0
33.8925,4255.0
33.895,4250.0
33.8975,4180.0
33.9,4185.0
33.9025,4220.0
33.905,4184.0
33.9075,4088.0
33.91,4168.0
33.9125,4203.0
33.915,4123.0
33.9175,4100.0
33.92,4121.0
33.9225,4162.0
33.925,4031.0
33.9275,4026.0
33.93,4077.0
33.9325,4063.0
33.935,4023.0
33.9375,4050.0
33.94,4071.0
33.9425,4005.0
33.945,3970.0
33.9475,4003.0
33.95,4000.0
33.9525,4030.0
33.955,4030.0
33.9575,4025.0
33.96,4030.0
33.9625,4044.0
33.965,4043.0
33.9675,4036.0
33.97,4082.0
33.9725,4131.0
33.975,4132.0
33.9775,4076.0
33.98,4107.0
33.9825,4149.0
33.985,4084.0
33.9875,4113.0
33.99,4173.0
33.9925,4209.0
33.995,4129.0
33.9975,4154.0
34.0,4163.0
34.0025,4164.0
34.005,4136.0
34.0075,4196.0
34.01,4230.0
34.0125,4152.0
34.015,4189.0
34.0175,4206.0
34.02,4134.0
34.0225,4196.0
34.025,4222.0
34.0275,4273.0
34.03,4194.0
34.0325,4244.0
34.035,4262.0
34.0375,4200.0
34.04,4182.0
34.0425,4261.0
34.045,4272.0
34.0475,4248.0
34.05,4271.0
34.0525,4301.0
34.055,4268.0
34.0575,4260.0
34.06,4245.0
34.0625,4285.0
34.065,4257.0
34.0675,4297.0
34.07,4283.0
34.0725,4242.0
34.075,4248.0
34.0775,4240.0
34.08,4204.0
34.0825,4175.0
34.085,4228.0
34.0875,4245.0
34.09,4178.0
34.0925,4198.0
34.095,4240.0
34.0975,4220.0
34.1,4122.0
34.1025,4196.0
34.105,4234.0
34.1075,4189.0
34.11,4153.0
34.1125,4178.0
34.115,4218.0
34.1175,4156.0
34.12,4151.0
34.1225,4234.0
34.125,4225.0
34.1275,4203.0
34.13,4200.0
34.1325,4237.0
34.135,4188.0
34.1375,4173.0
34.14,4173.0
34.1425,4197.0
34.145,4230.0
34.1475,4250.0
34.15,4238.0
34.1525,4208.0
34.155,4253.0
34.1575,4214.0
34.16,4149.0
34.1625,4223.0
34.165,4285.0
34.1675,4257.0
34.17,4175.0
34.1725,4229.0
34.175,4248.0
34.1775,4139.0
34.18,4122.0
34.1825,4213.0
34.185,4260.0
34.1875,4141.0
34.19,4153.0
34.1925,4188.0
34.195,4112.0
34.1975,4097.0
34.2,4100.0
34.2025,4204.0
34.205,4148.0
34.2075,4144.0
34.21,4133.0
34.2125,4121.0
34.215,4116.0
34.2175,4116.0
34.22,4131.0
34.2225,4156.0
34.225,4197.0
34.2275,4158.0
34.23,4114.0
34.2325,4142.0
34.235,4161.0
34.2375,4133.0
34.24,4086.0
34.2425,4190.0
34.245,4216.0
34.2475,4140.0
34.25,4143.0
34.2525,4191.0
34.255,4192.0
34.2575,4089.0
34.26,4173.0
34.2625,4227.0
34.265,4170.0
34.2675,4134.0
34.27,4157.0
34.2725,4183.0
34.275,4106.0
34.2775,4071.0
34.28,4109.0
34.2825,4095.0
34.285,4088.0
34.2875,4080.0
34.29,4087.0
34.2925,4052.0
34.295,4042.0
34.2975,4029.0
34.3,4011.0
34.3025,4065.0
34.305,4083.0
34.3075,4062.0
34.31,4005.0
34.3125,4050.0
34.315,4073.0
34.3175,3982.0
34.32,4070.0
34.3225,4115.0
34.325,4149.0
34.3275,4052.0
34.33,4123.0
34.3325,4159.0
34.335,4149.0
34.3375,4174.0
34.34,4229.0
34.3425,4239.0
34.345,4184.0
34.3475,4207.0
34.35,4237.0
34.3525,4170.0
34.355,4180.0
34.3575,4204.0
34.36,4246.0
34.3625,4187.0
34.365,4234.0
34.3675,4258.0
34.37,4214.0
34.3725,4205.0
34.375,4233.0
34.3775,4251.0
34.38,4201.0
34.3825,4210.0
34.385,4233.0
34.3875,4199.0
34.39,4162.0
34.3925,4171.0
34.395,4178.0
34.3975,4143.0
34.4,4193.0
34.4025,4198.0
34.405,4164.0
34.4075,4130.0
34.41,3970.0
34.4125,3795.0
34.415,3539.0
34.4175,3427.0
34.42,3384.0
34.4225,3553.0
34.425,3981.0
34.4275,4478.0
34.43,4884.0
34.4325,5027.0
34.435,5307.0
34.4375,5444.0
34.44,5428.0
34.4425,5418.0
34.445,5480.0
34.4475,5413.0
34.45,5159.0
34.4525,4958.0
34.455,4926.0
34.4575,4782.0
34.46,4640.0
34.4625,4572.0
34.465,4498.0
34.4675,4305.0
34.47,4150.0
34.4725,4048.0
34.475,3941.0
34.4775,3844.0
34.48,3794.0
34.4825,3759.0
34.485,3694.0
34.4875,3699.0
34.49,3696.0
34.4925,3648.0
34.495,3751.0
34.4975,3768.0
34.5,3752.0
34.5025,3673.0
34.505,3727.0
34.5075,3717.0
34.51,3620.0
34.5125,3641.0
34.515,3739.0
34.5175,3755.0
34.52,3653.0
34.5225,3679.0
34.525,3730.0
34.5275,3632.0
34.53,3607.0
34.5325,3681.0
34.535,3756.0
34.5375,3680.0
34.54,3680.0
34.5425,3713.0
34.545,3750.0
34.5475,3717.0
34.55,3701.0
34.5525,3739.0
34.555,3760.0
34.5575,3778.0
34.56,3783.0
34.5625,3765.0
34.565,3805.0
34.5675,3793.0
34.57,3801.0
34.5725,3803.0
34.575,3879.0
34.5775,3864.0
34.58,3792.0
34.5825,3818.0
34.585,3897.0
34.5875,3861.0
34.59,3773.0
34.5925,3861.0
34.595,3930.0
34.5975,3858.0
34.6,3846.0
34.6025,3867.0
34.605,3909.0
34.6075,3788.0
34.61,3811.0
34.6125,3866.0
34.615,3856.0
34.6175,3817.0
34.62,3848.0
34.6225,3858.0
34.625,3851.0
34.6275,3844.0
34.63,3893.0
34.6325,3895.0
34.635,3923.0
34.6375,3886.0
34.64,3910.0
34.6425,3891.0
34.645,3962.0
34.6475,3967.0
34.65,3999.0
34.6525,4049.0
34.655,4102.0
34.6575,4119.0
34.66,4054.0
34.6625,4102.0
34.665,4166.0
34.6675,4116.0
34.67,4187.0
34.6725,4257.0
34.675,4295.0
34.6775,4242.0
34.68,4284.0
34.6825,4306.0
34.685,4325.0
34.6875,4332.0
34.69,4418.0
34.6925,4438.0
34.695,4410.0
34.6975,4459.0
34.7,4497.0
34.7025,4444.0
34.705,4484.0
34.7075,4526.0
34.71,4578.0
34.7125,4558.0
34.715,4589.0
34.7175,4600.0
34.72,4557.0
34.7225,4531.0
34.725,4580.0
34.7275,4609.0
34.73,4562.0
34.7325,4566.0
34.735,4597.0
34.7375,4536.0
34.74,4542.0
34.7425,4498.0
34.745,4563.0
34.7475,4500.0
34.75,4527.0
34.7525,4497.0
34.755,4449.0
34.7575,4441.0
34.76,4459.0
34.7625,4427.0
34.765,4423.0
34.7675,4442.0
34.77,4444.0
34.7725,4358.0
34.775,4335.0
34.7775,4366.0
34.78,4349.0
34.7825,4220.0
34.785,4289.0
34.7875,4334.0
34.79,4276.0
34.7925,4214.0
34.795,4252.0
34.7975,4280.0
34.8,4179.0
34.8025,4176.0
34.805,4245.0
34.8075,4242.0
34.81,4232.0
34.8125,4229.0
34.815,4282.0
34.8175,4252.0
34.82,4231.0
34.8225,4224.0
34.825,4236.0
34.8275,4285.0
34.83,4268.0
34.8325,4258.0
34.835,4202.0
34.8375,4270.0
34.84,4221.0
34.8425,4155.0
34.845,4222.0
34.8475,4292.0
34.85,4275.0
34.8525,4190.0
34.855,4223.0
34.8575,4229.0
34.86,4151.0
34.8625,4131.0
34.865,4238.0
34.8675,4263.0
34.87,4202.0
34.8725,4204.0
34.875,4238.0
34.8775,4181.0
34.88,4148.0
34.8825,4146.0
34.885,4238.0
34.8875,4186.0
34.89,4166.0
34.8925,4174.0
34.895,4157.0
34.8975,4148.0
34.9,4131.0
34.9025,4164.0
34.905,4161.0
34.9075,4187.0
34.91,4172.0
34.9125,4117.0
34.915,4134.0
34.9175,4147.0
34.92,4123.0
34.9225,4099.0
34.925,4167.0
34.9275,4180.0
34.93,4096.0
34.9325,4097.0
34.935,4148.0
34.9375,4139.0
34.94,4033.0
34.9425,4106.0
34.945,4187.0
34.9475,4137.0
34.95,4099.0
34.9525,4120.0
34.955,4161.0
34.9575,4063.0
34.96,4065.0
34.9625,4125.0
34.965,4116.0
34.9675,4121.0
34.97,4119.0
34.9725,4149.0
34.975,4122.0
34.9775,4167.0
34.98,4132.0
34.9825,4130.0
34.985,4165.0
34.9875,4195.0
34.99,4182.0
34.9925,4129.0
34.995,4139.0
34.9975,4177.0
35.0,4108.0
35.0025,4132.0
35.005,4171.0
35.0075,4169.0
35.01,4096.0
35.0125,4141.0
35.015,4125.0
35.0175,4104.0
35.02,4110.0
35.0225,4142.0
35.025,4154.0
35.0275,4107.0
35.03,4122.0
35.0325,4147.0
35.035,4062.0
35.0375,4093.0
35.04,4139.0
35.0425,4173.0
35.045,4095.0
35.0475,4117.0
35.05,4127.0
35.0525,4063.0
35.055,4054.0
35.0575,4097.0
35.06,4125.0
35.0625,4076.0
35.065,4084.0
35.0675,4117.0
35.07,4071.0
35.0725,4029.0
35.075,4050.0
35.0775,4108.0
35.08,4098.0
35.0825,4121.0
35.085,4115.0
35.0875,4088.0
35.09,4083.0
35.0925,4057.0
35.095,4055.0
35.0975,4062.0
35.1,4101.0
35.1025,4118.0
35.105,4060.0
35.1075,4084.0
35.11,4110.0
35.1125,4088.0
35.115,4005.0
35.1175,4096.0
35.12,4121.0
35.1225,4046.0
35.125,4032.0
35.1275,4087.0
35.13,4139.0
35.1325,4042.0
35.135,4055.0
35.1375,4120.0
35.14,4083.0
35.1425,4023.0
35.145,4019.0
35.1475,4103.0
35.15,4053.0
35.1525,4040.0
35.155,4063.0
35.1575,4111.0
35.16,4113.0
35.1625,4086.0
35.165,4106.0
35.1675,4058.0
35.17,4073.0
35.1725,4037.0
35.175,3988.0
35.1775,4068.0
35.18,4091.0
35.1825,4065.0
35.185,4031.0
35.1875,4087.0
35.19,4053.0
35.1925,3986.0
35.195,4008.0
35.1975,4136.0
35.2,4144.0
35.2025,4021.0
35.205,4043.0
35.2075,4120.0
35.21,4027.0
35.2125,4000.0
35.215,4046.0
35.2175,4150.0
35.22,4063.0
35.2225,4047.0
35.225,4090.0
35.2275,4080.0
35.23,4043.0
35.2325,4030.0
35.235,4092.0
35.2375,4113.0
35.24,4105.0
35.2425,4081.0
35.245,4023.0
35.2475,4049.0
35.25,4023.0
35.2525,4017.0
35.255,3987.0
35.2575,4066.0
35.26,4071.0
35.2625,4038.0
35.265,4047.0
35.2675,4103.0
35.27,4034.0
35.2725,3813.0
35.275,3722.0
35.2775,3600.0
35.28,3332.0
35.2825,3210.0
35.285,3407.0
35.2875,3802.0
35.29,4147.0
35.2925,4619.0
35.295,4952.0
35.2975,5196.0
35.3,5290.0
35.3025,5371.0
35.305,5374.0
35.3075,5366.0
35.31,5298.0
35.3125,5218.0
35.315,5005.0
35.3175,4865.0
35.32,4745.0
35.3225,4678.0
35.325,4552.0
35.3275,4480.0
35.33,4352.0
35.3325,4223.0
35.335,4130.0
35.3375,4025.0
35.34,3903.0
35.3425,3746.0
35.345,3737.0
35.3475,3732.0
35.35,3665.0
35.3525,3706.0
35.355,3728.0
35.3575,3754.0
35.36,3677.0
35.3625,3715.0
35.365,3714.0
35.3675,3698.0
35.37,3701.0
35.3725,3762.0
35.375,3785.0
35.3775,3726.0
35.38,3757.0
35.3825,3781.0
35.385,3743.0
35.3875,3772.0
35.39,3822.0
35.3925,3875.0
35.395,3810.0
35.3975,3853.0
35.4,3880.0
35.4025,3858.0
35.405,3821.0
35.4075,3894.0
35.41,3927.0
35.4125,3901.0
35.415,3903.0
35.4175,3920.0
35.42,3900.0
35.4225,3905.0
35.425,3874.0
35.4275,3929.0
35.43,3895.0
35.4325,3929.0
35.435,3914.0
35.4375,3866.0
35.44,3878.0
35.4425,3880.0
35.445,3825.0
35.4475,3815.0
35.45,3859.0
35.4525,3891.0
35.455,3812.0
35.4575,3819.0
35.46,3835.0
35.4625,3810.0
35.465,3691.0
35.4675,3750.0
35.47,3822.0
35.4725,3761.0
35.475,3728.0
35.4775,3795.0
35.48,3828.0
35.4825,3724.0
35.485,3743.0
35.4875,3813.0
35.49,3852.0
35.4925,3874.0
35.495,3876.0
35.4975,3933.0
35.5,3909.0
35.5025,3903.0
35.505,3923.0
35.5075,3984.0
35.51,4067.0
35.5125,4083.0
35.515,4077.0
35.5175,4054.0
35.52,4133.0
35.5225,4128.0
35.525,4089.0
35.5275,4194.0
35.53,4300.0
35.5325,4291.0
35.535,4221.0
35.5375,4286.0
35.54,4365.0
35.5425,4277.0
35.545,4292.0
35.5475,4422.0
35.55,4488.0
35.5525,4386.0
35.555,4435.0
35.5575,4481.0
35.56,4462.0
35.5625,4431.0
35.565,4440.0
35.5675,4525.0
35.57,4493.0
35.5725,4483.0
35.575,4486.0
35.5775,4487.0
35.58,4490.0
35.5825,4477.0
35.585,4501.0
35.5875,4495.0
35.59,4536.0
35.5925,4498.0
35.595,4452.0
35.5975,4473.0
35.6,4500.0
35.6025,4477.0
35.605,4430.0
35.6075,4517.0
35.61,4528.0
35.6125,4450.0
35.615,4430.0
35.6175,4459.0
35.62,4452.0
35.6225,4313.0
35.625,4381.0
35.6275,4446.0
35.63,4389.0
35.6325,4346.0
35.635,4376.0
35.6375,4402.0
35.64,4309.0
35.6425,4298.0
35.645,4347.0
35.6475,4322.0
35.65,4299.0
35.6525,4283.0
35.655,4290.0
35.6575,4223.0
35.66,4245.0
35.6625,4225.0
35.665,4249.0
35.6675,4269.0
35.67,4280.0
35.6725,4281.0
35.675,4213.0
35.6775,4216.0
35.68,4263.0
35.6825,4188.0
35.685,4204.0
35.6875,4260.0
35.69,4285.0
35.6925,4207.0
35.695,4224.0
35.6975,4213.0
35.7,4212.0
35.7025,4224.0
35.705,4286.0
35.7075,4292.0
35.71,4239.0
35.7125,4253.0
35.715,4283.0
35.7175,4177.0
35.72,4234.0
35.7225,4265.0
35.725,4301.0
35.7275,4244.0
35.73,4265.0
35.7325,4269.0
35.735,4226.0
35.7375,4179.0
35.74,4249.0
35.7425,4277.0
35.745,4204.0
35.7475,4207.0
35.75,4239.0
35.7525,4194.0
35.755,4160.0
35.7575,4162.0
35.76,4225.0
35.7625,4197.0
35.765,4210.0
35.7675,4181.0
35.77,4172.0
35.7725,4195.0
35.775,4162.0
35.7775,4167.0
35.78,4169.0
35.7825,4202.0
35.785,4208.0
35.7875,4148.0
35.79,4167.0
35.7925,4194.0
35.795,4145.0
35.7975,4076.0
35.8,4170.0
35.8025,4237.0
35.805,4116.0
35.8075,4123.0
35.81,4186.0
35.8125,4216.0
35.815,4087.0
35.8175,4085.0
35.82,4171.0
35.8225,4165.0
35.825,4119.0
35.8275,4123.0
35.83,4190.0
35.8325,4139.0
35.835,4131.0
35.8375,4124.0
35.84,4164.0
35.8425,4192.0
35.845,4208.0
35.8475,4187.0
35.85,4160.0
35.8525,4145.0
35.855,4149.0
35.8575,4090.0
35.86,4208.0
35.8625,4243.0
35.865,4203.0
35.8675,4160.0
35.87,4238.0
35.8725,4216.0
35.875,4141.0
35.8775,4147.0
35.88,4236.0
35.8825,4231.0
35.885,4127.0
35.8875,4164.0
35.89,4216.0
35.8925,4119.0
35.895,4085.0
35.8975,4140.0
35.9,4212.0
35.9025,4112.0
35.905,4096.0
35.9075,4141.0
35.91,4125.0
35.9125,4088.0
35.915,4084.0
35.9175,4153.0
35.92,4139.0
35.9225,4148.0
35.925,4143.0
35.9275,4122.0
35.93,4158.0
35.9325,4122.0
35.935,4108.0
35.9375,4093.0
35.94,4154.0
35.9425,4147.0
35.945,4083.0
35.9475,4098.0
35.95,4157.0
35.9525,4117.0
35.955,4006.0
35.9575,4075.0
35.96,4139.0
35.9625,4058.0
35.965,4044.0
35.9675,4120.0
35.97,4161.0
35.9725,4059.0
35.975,4090.0
35.9775,4135.0
35.98,4155.0
35.9825,4113.0
35.985,4135.0
35.9875,4174.0
35.99,4113.0
35.9925,4102.0
35.995,4151.0
35.9975,4146.0
36.0,4193.0
36.0025,4200.0
36.005,4206.0
36.0075,4158.0
36.01,4201.0
36.0125,4198.0
36.015,4167.0
36.0175,4199.0
36.02,4237.0
36.0225,4227.0
36.025,4165.0
36.0275,4162.0
36.03,4190.0
36.0325,4136.0
36.035,4161.0
36.0375,4183.0
36.04,4195.0
36.0425,4114.0
36.045,4145.0
36.0475,4122.0
36.05,4089.0
36.0525,4094.0
36.055,4139.0
36.0575,4144.0
36.06,4112.0
36.0625,4103.0
36.065,4088.0
36.0675,4008.0
36.07,3958.0
36.0725,4022.0
36.075,4062.0
36.0775,3997.0
36.08,4008.0
36.0825,4015.0
36.085,3916.0
36.0875,3708.0
36.09,3590.0
36.0925,3398.0
36.095,3241.0
36.0975,3297.0
36.1,3659.0
36.1025,4075.0
36.105,4579.0
36.1075,4898.0
36.11,5159.0
36.1125,5302.0
36.115,5445.0
36.1175,5434.0
36.12,5409.0
36.1225,5409.0
36.125,5341.0
36.1275,5139.0
36.13,4927.0
36.1325,4876.0
36.135,4806.0
36.1375,4633.0
36.14,4554.0
36.1425,4479.0
36.145,4353.0
36.1475,4137.0
36.15,4050.0
36.1525,3983.0
36.155,3852.0
36.1575,3757.0
36.16,3751.0
36.1625,3771.0
36.165,3663.0
36.1675,3663.0
36.17,3723.0
36.1725,3743.0
36.175,3733.0
36.1775,3718.0
36.18,3744.0
36.1825,3727.0
36.185,3702.0
36.1875,3695.0
36.19,3692.0
36.1925,3755.0
36.195,3745.0
36.1975,3742.0
36.2,3731.0
36.2025,3801.0
36.205,3759.0
36.2075,3692.0
36.21,3762.0
36.2125,3830.0
36.215,3816.0
36.2175,3744.0
36.22,3802.0
36.2225,3844.0
36.225,3762.0
36.2275,3750.0
36.23,3826.0
36.2325,3889.0
36.235,3790.0
36.2375,3797.0
36.24,3874.0
36.2425,3845.0
36.245,3819.0
36.2475,3830.0
36.25,3920.0
36.2525,3910.0
36.255,3905.0
36.2575,3890.0
36.26,3858.0
36.2625,3832.0
36.265,3811.0
36.2675,3834.0
36.27,3827.0
36.2725,3875.0
36.275,3857.0
36.2775,3801.0
36.28,3796.0
36.2825,3834.0
36.285,3815.0
36.2875,3782.0
36.29,3860.0
36.2925,3887.0
36.295,3792.0
36.2975,3804.0
36.3,3855.0
36.3025,3871.0
36.305,3791.0
36.3075,3845.0
36.31,3910.0
36.3125,3879.0
36.315,3868.0
36.3175,3931.0
36.32,3985.0
36.3225,3942.0
36.325,3960.0
36.3275,4049.0
36.33,4070.0
36.3325,4098.0
36.335,4134.0
36.3375,4195.0
36.34,4148.0
36.3425,4229.0
36.345,4229.0
36.3475,4254.0
36.35,4309.0
36.3525,4365.0
36.355,4379.0
36.3575,4362.0
36.36,4377.0
36.3625,4431.0
36.365,4404.0
36.3675,4448.0
36.37,4491.0
36.3725,4519.0
36.375,4458.0
36.3775,4495.0
36.38,4494.0
36.3825,4476.0
36.385,4492.0
36.3875,4563.0
36.39,4560.0
36.3925,4510.0
36.395,4533.0
36.3975,4543.0
36.4,4454.0
36.4025,4485.0
36.405,4517.0
36.4075,4519.0
36.41,4441.0
36.4125,4485.0
36.415,4503.0
36.4175,4448.0
36.42,4408.0
36.4225,4463.0
36.425,4482.0
36.4275,4411.0
36.43,4392.0
36.4325,4426.0
36.435,4372.0
36.4375,4322.0
36.44,4322.0
36.4425,4382.0
36.445,4331.0
36.4475,4365.0
36.45,4343.0
36.4525,4313.0
36.455,4306.0
36.4575,4293.0
36.46,4300.0
36.4625,4285.0
36.465,4325.0
36.4675,4328.0
36.47,4275.0
36.4725,4320.0
36.475,4332.0
36.4775,4281.0
36.48,4184.0
36.4825,4285.0
36.485,4339.0
36.4875,4255.0
36.49,4205.0
36.4925,4268.0
36.495,4291.0
36.4975,4181.0
36.5,4192.0
36.5025,4279.0
36.505,4260.0
36.5075,4225.0
36.51,4236.0
36.5125,4278.0
36.515,4204.0
36.5175,4169.0
36.52,4163.0
36.5225,4226.0
36.525,4239.0
36.5275,4199.0
36.53,4203.0
36.5325,4172.0
36.535,4151.0
36.5375,4128.0
36.54,4079.0
36.5425,4180.0
36.545,4190.0
36.5475,4168.0
36.55,4101.0
36.5525,4182.0
36.555,4160.0
36.5575,4082.0
36.56,4098.0
36.5625,4189.0
36.565,4205.0
36.5675,4110.0
36.57,4153.0
36.5725,4201.0
36.575,4149.0
36.5775,4120.0
36.58,4168.0
36.5825,4254.0
36.585,4162.0
36.5875,4158.0
36.59,4197.0
36.5925,4200.0
36.595,4158.0
36.5975,4148.0
36.6,4205.0
36.6025,4207.0
36.605,4212.0
36.6075,4206.0
36.61,4157.0
36.6125,4203.0
36.615,4197.0
36.6175,4174.0
36.62,4159.0
36.6225,4219.0
36.625,4219.0
36.6275,4142.0
36.63,4172.0
36.6325,4211.0
36.635,4184.0
36.6375,4082.0
36.64,4154.0
36.6425,4221.0
36.645,4146.0
36.6475,4147.0
36.65,4173.0
36.6525,4224.0
36.655,4131.0
36.6575,4130.0
36.66,4182.0
36.6625,4174.0
36.665,4156.0
36.6675,4187.0
36.67,4210.0
36.6725,4159.0
36.675,4185.0
36.6775,4198.0
36.68,4195.0
36.6825,4206.0
36.685,4215.0
36.6875,4226.0
36.69,4192.0
36.6925,4188.0
36.695,4200.0
36.6975,4164.0
36.7,4183.0
36.7025,4202.0
36.705,4200.0
36.7075,4130.0
36.71,4139.0
36.7125,4167.0
36.715,4130.0
36.7175,4134.0
36.72,4163.0
36.7225,4173.0
36.725,4095.0
36.7275,4120.0
36.73,4100.0
36.7325,4099.0
36.735,4124.0
36.7375,4154.0
36.74,4165.0
36.7425,4090.0
36.745,4130.0
36.7475,4147.0
36.75,4064.0
36.7525,4081.0
36.755,4152.0
36.7575,4157.0
36.76,4087.0
36.7625,4108.0
36.765,4131.0
36.7675,4070.0
36.77,4034.0
36.7725,4088.0
36.775,4157.0
36.7775,4124.0
36.78,4127.0
36.7825,4122.0
36.785,4132.0
36.7875,4166.0
36.79,4120.0
36.7925,4160.0
36.795,4161.0
36.7975,4209.0
36.8,4193.0
36.8025,4128.0
36.805,4161.0
36.8075,4165.0
36.81,4141.0
36.8125,4110.0
36.815,4208.0
36.8175,4239.0
36.82,4166.0
36.8225,4182.0
36.825,4225.0
36.8275,4207.0
36.83,4112.0
36.8325,4155.0
36.835,4237.0
36.8375,4197.0
36.84,4160.0
36.8425,4181.0
36.845,4214.0
36.8475,4112.0
36.85,4106.0
36.8525,4155.0
36.855,4197.0
36.8575,4181.0
36.86,4177.0
36.8625,4209.0
36.865,4174.0
36.8675,4154.0
36.87,4135.0
36.8725,4129.0
36.875,4194.0
36.8775,4189.0
36.88,4150.0
36.8825,4093.0
36.885,4157.0
36.8875,4132.0
36.89,4061.0
36.8925,4102.0
36.895,4028.0
36.8975,3851.0
36.9,3517.0
36.9025,3423.0
36.905,3431.0
36.9075,3668.0
36.91,4081.0
36.9125,4694.0
36.915,5157.0
36.9175,5234.0
36.92,5390.0
36.9225,5507.0
36.925,5513.0
36.9275,5492.0
36.93,5472.0
36.9325,5466.0
36.935,5256.0
36.9375,5058.0
36.94,4916.0
36.9425,4795.0
36.945,4697.0
36.9475,4539.0
36.95,4448.0
36.9525,4281.0
36.955,4185.0
36.9575,4003.0
36.96,3817.0
36.9625,3757.0
36.965,3718.0
36.9675,3663.0
36.97,3633.0
36.9725,3707.0
36.975,3750.0
36.9775,3667.0
36.98,3670.0
36.9825,3718.0
36.985,3747.0
36.9875,3651.0
36.99,3707.0
36.9925,3766.0
36.995,3748.0
36.9975,3746.0
37.0,3753.0
37.0025,3749.0
37.005,3677.0
37.0075,3678.0
37.01,3737.0
37.0125,3707.0
37.015,3730.0
37.0175,3744.0
37.02,3749.0
37.0225,3662.0
37.025,3735.0
37.0275,3716.0
37.03,3720.0
37.0325,3733.0
37.035,3782.0
37.0375,3788.0
37.04,3733.0
37.0425,3728.0
37.045,3801.0
37.0475,3760.0
37.05,3791.0
37.0525,3837.0
37.055,3842.0
37.0575,3816.0
37.06,3834.0
37.0625,3809.0
37.065,3790.0
37.0675,3785.0
37.07,3840.0
37.0725,3832.0
37.075,3762.0
37.0775,3784.0
37.08,3810.0
37.0825,3696.0
37.085,3748.0
37.0875,3776.0
37.09,3815.0
37.0925,3711.0
37.095,3769.0
37.0975,3783.0
37.1,3694.0
37.1025,3681.0
37.105,3777.0
37.1075,3827.0
37.11,3803.0
37.1125,3800.0
37.115,3841.0
37.1175,3810.0
37.12,3801.0
37.1225,3823.0
37.125,3908.0
37.1275,3886.0
37.13,3933.0
37.1325,3933.0
37.135,3953.0
37.1375,3989.0
37.14,4019.0
37.1425,4052.0
37.145,4100.0
37.1475,4207.0
37.15,4240.0
37.1525,4204.0
37.155,4254.0
37.1575,4336.0
37.16,4326.0
37.1625,4295.0
37.165,4416.0
37.1675,4485.0
37.17,4425.0
37.1725,4419.0
37.175,4470.0
37.1775,4526.0
37.18,4392.0
37.1825,4389.0
37.185,4502.0
37.1875,4490.0
37.19,4469.0
37.1925,4473.0
37.195,4535.0
37.1975,4443.0
37.2,4423.0
37.2025,4421.0
37.205,4463.0
37.2075,4472.0
37.21,4446.0
37.2125,4447.0
37.215,4439.0
37.2175,4399.0
37.22,4380.0
37.2225,4299.0
37.225,4396.0
37.2275,4408.0
37.23,4375.0
37.2325,4300.0
37.235,4370.0
37.2375,4346.0
37.24,4249.0
37.2425,4275.0
37.245,4359.0
37.2475,4365.0
37.25,4270.0
37.2525,4295.0
37.255,4357.0
37.2575,4267.0
37.26,4214.0
37.2625,4269.0
37.265,4362.0
37.2675,4286.0
37.27,4274.0
37.2725,4303.0
37.275,4299.0
37.2775,4284.0
37.28,4249.0
37.2825,4296.0
37.285,4272.0
37.2875,4311.0
37.29,4301.0
37.2925,4264.0
37.295,4285.0
37.2975,4292.0
37.3,4273.0
37.3025,4241.0
37.305,4320.0
37.3075,4313.0
37.31,4249.0
37.3125,4261.0
37.315,4321.0
37.3175,4305.0
37.32,4210.0
37.3225,4278.0
37.325,4329.0
37.3275,4268.0
37.33,4251.0
37.3325,4261.0
37.335,4284.0
37.3375,4195.0
37.34,4182.0
37.3425,4226.0
37.345,4200.0
37.3475,4179.0
37.35,4196.0
37.3525,4208.0
37.355,4152.0
37.3575,4184.0
37.36,4187.0
37.3625,4164.0
37.365,4152.0
37.3675,4158.0
37.37,4182.0
37.3725,4105.0
37.375,4137.0
37.3775,4163.0
37.38,4151.0
37.3825,4168.0
37.385,4200.0
37.3875,4202.0
37.39,4139.0
37.3925,4148.0
37.395,4179.0
37.3975,4158.0
37.4,4173.0
37.4025,4207.0
37.405,4232.0
37.4075,4171.0
37.41,4212.0
37.4125,4204.0
37.415,4180.0
37.4175,4221.0
37.42,4254.0
37.4225,4267.0
37.425,4195.0
37.4275,4230.0
37.43,4237.0
37.4325,4158.0
37.435,4166.0
37.4375,4239.0
37.44,4287.0
37.4425,4238.0
37.445,4249.0
37.4475,4286.0
37.45,4217.0
37.4525,4149.0
37.455,4201.0
37.4575,4266.0
37.46,4215.0
37.4625,4208.0
37.465,4222.0
37.4675,4203.0
37.47,4187.0
37.4725,4155.0
37.475,4186.0
37.4775,4174.0
37.48,4224.0
37.4825,4216.0
37.485,4163.0
37.4875,4194.0
37.49,4192.0
37.4925,4160.0
37.495,4144.0
37.4975,4232.0
37.5,4230.0
37.5025,4138.0
37.505,4134.0
37.5075,4190.0
37.51,4175.0
37.5125,4059.0
37.515,4097.0
37.5175,4194.0
37.52,4158.0
37.5225,4110.0
37.525,4142.0
37.5275,4200.0
37.53,4091.0
37.5325,4088.0
37.535,4123.0
37.5375,4154.0
37.54,4138.0
37.5425,4118.0
37.545,4151.0
37.5475,4146.0
37.55,4092.0
37.5525,4057.0
37.555,4050.0
37.5575,4111.0
37.56,4095.0
37.5625,4085.0
37.565,4024.0
37.5675,4064.0
37.57,4003.0
37.5725,3917.0
37.575,3990.0
37.5775,4082.0
37.58,4094.0
37.5825,4017.0
37.585,4051.0
37.5875,4092.0
37.59,3994.0
37.5925,3992.0
37.595,4085.0
37.5975,4153.0
37.6,4098.0
37.6025,4103.0
37.605,4132.0
37.6075,4100.0
37.61,4076.0
37.6125,4088.0
37.615,4161.0
37.6175,4156.0
37.62,4166.0
37.6225,4170.0
37.625,4145.0
37.6275,4173.0
37.63,4134.0
37.6325,4154.0
37.635,4138.0
37.6375,4193.0
37.64,4173.0
37.6425,4106.0
37.645,4113.0
37.6475,4128.0
37.65,4107.0
37.6525,4093.0
37.655,4145.0
37.6575,4163.0
37.66,4082.0
37.6625,4071.0
37.665,4106.0
37.6675,4120.0
37.67,4000.0
37.6725,4059.0
37.675,4095.0
37.6775,4044.0
37.68,4002.0
37.6825,4018.0
37.685,4005.0
37.6875,3955.0
37.69,3942.0
37.6925,4011.0
37.695,4000.0
37.6975,3991.0
37.7,3875.0
37.7025,3742.0
37.705,3440.0
37.7075,3348.0
37.71,3289.0
37.7125,3537.0
37.715,3991.0
37.7175,4524.0
37.72,4981.0
37.7225,5117.0
37.725,5252.0
37.7275,5446.0
37.73,5452.0
37.7325,5495.0
37.735,5519.0
37.7375,5450.0
37.74,5192.0
37.7425,5040.0
37.745,4875.0
37.7475,4750.0
37.75,4631.0
37.7525,4556.0
37.755,4424.0
37.7575,4247.0
37.76,4117.0
37.7625,3973.0
37.765,3742.0
37.7675,3697.0
37.77,3673.0
37.7725,3673.0
37.775,3564.0
37.7775,3613.0
37.78,3662.0
37.7825,3613.0
37.785,3587.0
37.7875,3665.0
37.79,3724.0
37.7925,3680.0
37.795,3699.0
37.7975,3739.0
37.8,3700.0
37.8025,3678.0
37.805,3677.0
37.8075,3757.0
37.81,3756.0
37.8125,3763.0
37.815,3755.0
37.8175,3730.0
37.82,3745.0
37.8225,3730.0
37.825,3723.0
37.8275,3705.0
37.83,3776.0
37.8325,3796.0
37.835,3720.0
37.8375,3746.0
37.84,3779.0
37.8425,3726.0
37.845,3629.0
37.8475,3735.0
37.85,3792.0
37.8525,3720.0
37.855,3689.0
37.8575,3733.0
37.86,3768.0
37.8625,3664.0
37.865,3640.0
37.8675,3738.0
37.87,3717.0
37.8725,3681.0
37.875,3688.0
37.8775,3734.0
37.88,3658.0
37.8825,3629.0
37.885,3626.0
37.8875,3656.0
37.89,3677.0
37.8925,3672.0
37.895,3684.0
37.8975,3656.0
37.9,3679.0
37.9025,3659.0
37.905,3612.0
37.9075,3710.0
37.91,3755.0
37.9125,3745.0
37.915,3714.0
37.9175,3769.0
37.92,3810.0
37.9225,3723.0
37.925,3763.0
37.9275,3894.0
37.93,3948.0
37.9325,3870.0
37.935,3937.0
37.9375,4003.0
37.94,3981.0
37.9425,3964.0
37.945,4048.0
37.9475,4183.0
37.95,4147.0
37.9525,4174.0
37.955,4233.0
37.9575,4260.0
37.96,4294.0
37.9625,4272.0
37.965,4354.0
37.9675,4378.0
37.97,4408.0
37.9725,4414.0
37.975,4416.0
37.9775,4487.0
37.98,4507.0
37.9825,4463.0
37.985,4469.0
37.9875,4558.0
37.99,4561.0
37.9925,4500.0
37.995,4523.0
37.9975,4555.0
38.0,4584.0
38.0025,4457.0
38.005,4532.0
38.0075,4579.0
38.01,4514.0
38.0125,4502.0
38.015,4518.0
38.0175,4540.0
38.02,4487.0
38.0225,4473.0
38.025,4523.0
38.0275,4497.0
38.03,4478.0
38.0325,4481.0
38.035,4486.0
38.0375,4400.0
38.04,4449.0
38.0425,4445.0
38.045,4421.0
38.0475,4413.0
38.05,4433.0
38.0525,4440.0
38.055,4363.0
38.0575,4370.0
38.06,4423.0
38.0625,4363.0
38.065,4382.0
38.0675,4393.0
38.07,4420.0
38.0725,4339.0
38.075,4331.0
38.0775,4355.0
38.08,4353.0
38.0825,4372.0
38.085,4382.0
38.0875,4386.0
38.09,4321.0
38.0925,4353.0
38.095,4316.0
38.0975,4267.0
38.1,4313.0
38.1025,4345.0
38.105,4341.0
38.1075,4263.0
38.11,4313.0
38.1125,4309.0
38.115,4215.0
38.1175,4212.0
38.12,4300.0
38.1225,4327.0
38.125,4243.0
38.1275,4254.0
38.13,4300.0
38.1325,4265.0
38.135,4209.0
38.1375,4211.0
38.14,4291.0
38.1425,4236.0
38.145,4223.0
38.1475,4217.0
38.15,4208.0
38.1525,4212.0
38.155,4177.0
38.1575,4173.0
38.16,4213.0
38.1625,4246.0
38.165,4216.0
38.1675,4149.0
38.17,4203.0
38.1725,4208.0
38.175,4167.0
38.1775,4103.0
38.18,4242.0
38.1825,4263.0
38.185,4194.0
38.1875,4192.0
38.19,4249.0
38.1925,4224.0
38.195,4115.0
38.1975,4133.0
38.2,4239.0
38.2025,4188.0
38.205,4169.0
38.2075,4191.0
38.21,4243.0
38.2125,4134.0
38.215,4135.0
38.2175,4186.0
38.22,4209.0
38.2225,4192.0
38.225,4160.0
38.2275,4211.0
38.23,4180.0
38.2325,4170.0
38.235,4144.0
38.2375,4182.0
38.24,4262.0
38.2425,4246.0
38.245,4216.0
38.2475,4173.0
38.25,4235.0
38.2525,4208.0
38.255,4120.0
38.2575,4186.0
38.26,4284.0
38.2625,4259.0
38.265,4164.0
38.2675,4201.0
38.27,4269.0
38.2725,4199.0
38.275,4162.0
38.2775,4250.0
38.28,4316.0
38.2825,4213.0
38.285,4214.0
38.2875,4235.0
38.29,4239.0
38.2925,4200.0
38.295,4202.0
38.2975,4270.0
38.3,4247.0
38.3025,4224.0
38.305,4226.0
38.3075,4178.0
38.31,4214.0
38.3125,4179.0
38.315,4204.0
38.3175,4182.0
38.32,4245.0
38.3225,4237.0
38.325,4180.0
38.3275,4189.0
38.33,4219.0
38.3325,4200.0
38.335,4173.0
38.3375,4250.0
38.34,4263.0
38.3425,4187.0
38.345,4188.0
38.3475,4216.0
38.35,4246.0
38.3525,4154.0
38.355,4216.0
38.3575,4260.0
38.36,4215.0
38.3625,4194.0
38.365,4217.0
38.3675,4210.0
38.37,4161.0
38.3725,4156.0
38.375,4216.0
38.3775,4180.0
38.38,4168.0
38.3825,4158.0
38.385,4183.0
38.3875,4092.0
38.39,4164.0
38.3925,4187.0
38.395,4176.0
38.3975,4169.0
38.4,4196.0
38.4025,4214.0
38.405,4190.0
38.4075,4161.0
38.41,4229.0
38.4125,4188.0
38.415,4233.0
38.4175,4247.0
38.42,4280.0
38.4225,4206.0
38.425,4253.0
38.4275,4211.0
38.43,4220.0
38.4325,4252.0
38.435,4299.0
38.4375,4285.0
38.44,4237.0
38.4425,4251.0
38.445,4298.0
38.4475,4168.0
38.45,4218.0
38.4525,4270.0
38.455,4293.0
38.4575,4214.0
38.46,4252.0
38.4625,4264.0
38.465,4181.0
38.4675,4142.0
38.47,4212.0
38.4725,4258.0
38.475,4193.0
38.4775,4147.0
38.48,4194.0
38.4825,4165.0
38.485,4129.0
38.4875,4117.0
38.49,4177.0
38.4925,4138.0
38.495,4172.0
38.4975,4144.0
38.5,4131.0
38.5025,4155.0
38.505,4142.0
38.5075,4120.0
38.51,4098.0
38.5125,4017.0
38.515,3826.0
38.5175,3525.0
38.52,3384.0
38.5225,3422.0
38.525,3650.0
38.5275,3967.0
38.53,4554.0
38.5325,5023.0
38.535,5155.0
38.5375,5313.0
38.54,5484.0
38.5425,5521.0
38.545,5396.0
38.5475,5410.0
38.55,5409.0
38.5525,5228.0
38.555,4978.0
38.5575,4846.0
38.56,4804.0
38.5625,4671.0
38.565,4519.0
38.5675,4389.0
38.57,4315.0
38.5725,4208.0
38.575,4046.0
38.5775,3893.0
38.58,3776.0
38.5825,3770.0
38.585,3671.0
38.5875,3576.0
38.59,3647.0
38.5925,3678.0
38.595,3644.0
38.5975,3557.0
38.6,3638.0
38.6025,3649.0
38.605,3528.0
38.6075,3556.0
38.61,3629.0
38.6125,3658.0
38.615,3584.0
38.6175,3610.0
38.62,3633.0
38.6225,3578.0
38.625,3503.0
38.6275,3552.0
38.63,3623.0
38.6325,3555.0
38.635,3546.0
38.6375,3574.0
38.64,3554.0
38.6425,3555.0
38.645,3527.0
38.6475,3587.0
38.65,3572.0
38.6525,3580.0
38.655,3580.0
38.6575,3532.0
38.66,3565.0
38.6625,3592.0
38.665,3551.0
38.6675,3595.0
38.67,3655.0
38.6725,3676.0
38.675,3610.0
38.6775,3627.0
38.68,3683.0
38.6825,3731.0
38.685,3620.0
38.6875,3705.0
38.69,3758.0
38.6925,3720.0
38.695,3714.0
38.6975,3728.0
38.7,3755.0
38.7025,3737.0
38.705,3749.0
38.7075,3822.0
38.71,3793.0
38.7125,3802.0
38.715,3827.0
38.7175,3868.0
38.72,3816.0
38.7225,3886.0
38.725,3904.0
38.7275,3917.0
38.73,3913.0
38.7325,3970.0
38.735,4006.0
38.7375,3950.0
38.74,3979.0
38.7425,4070.0
38.745,4027.0
38.7475,4076.0
38.75,4152.0
38.7525,4214.0
38.755,4164.0
38.7575,4184.0
38.76,4233.0
38.7625,4282.0
38.765,4312.0
38.7675,4362.0
38.77,4390.0
38.7725,4399.0
38.775,4445.0
38.7775,4432.0
38.78,4392.0
38.7825,4476.0
38.785,4547.0
38.7875,4582.0
38.79,4498.0
38.7925,4562.0
38.795,4593.0
38.7975,4509.0
38.8,4511.0
38.8025,4619.0
38.805,4665.0
38.8075,4587.0
38.81,4599.0
38.8125,4657.0
38.815,4619.0
38.8175,4558.0
38.82,4565.0
38.8225,4664.0
38.825,4663.0
38.8275,4639.0
38.83,4616.0
38.8325,4578.0
38.835,4588.0
38.8375,4527.0
38.84,4518.0
38.8425,4523.0
38.845,4561.0
38.8475,4540.0
38.85,4459.0
38.8525,4498.0
38.855,4498.0
38.8575,4454.0
38.86,4381.0
38.8625,4489.0
38.865,4494.0
38.8675,4408.0
38.87,4377.0
38.8725,4454.0
38.875,4408.0
38.8775,4329.0
38.88,4354.0
38.8825,4462.0
38.885,4388.0
38.8875,4359.0
38.89,4373.0
38.8925,4424.0
38.895,4311.0
38.8975,4284.0
38.9,4324.0
38.9025,4348.0
38.905,4325.0
38.9075,4296.0
38.91,4321.0
38.9125,4315.0
38.915,4279.0
38.9175,4258.0
38.92,4260.0
38.9225,4325.0
38.925,4320.0
38.9275,4284.0
38.93,4232.0
38.9325,4294.0
38.935,4257.0
38.9375,4165.0
38.94,4223.0
38.9425,4298.0
38.945,4275.0
38.9475,4182.0
38.95,4227.0
38.9525,4265.0
38.955,4169.0
38.9575,4141.0
38.96,4224.0
38.9625,4298.0
38.965,4196.0
38.9675,4196.0
38.97,4222.0
38.9725,4200.0
38.975,4146.0
38.9775,4157.0
38.98,4211.0
38.9825,4210.0
38.985,4188.0
38.9875,4175.0
38.99,4116.0
38.9925,4133.0
38.995,4123.0
38.9975,4146.0
39.0,4115.0
39.0025,4183.0
39.005,4154.0
39.0075,4109.0
39.01,4102.0
39.0125,4150.0
39.015,4118.0
39.0175,4075.0
39.02,4129.0
39.0225,4158.0
39.025,4093.0
39.0275,4100.0
39.03,4112.0
39.0325,4145.0
39.035,4077.0
39.0375,4147.0
39.04,4183.0
39.0425,4155.0
39.045,4133.0
39.0475,4159.0
39.05,4136.0
39.0525,4080.0
39.055,4100.0
39.0575,4160.0
39.06,4107.0
39.0625,4109.0
39.065,4130.0
39.0675,4148.0
39.07,4027.0
39.0725,4084.0
39.075,4095.0
39.0775,4065.0
39.08,4063.0
39.0825,4086.0
39.085,4100.0
39.0875,4046.0
39.09,4014.0
39.0925,4051.0
39.095,4011.0
39.0975,4015.0
39.1,4025.0
39.1025,4049.0
39.105,3973.0
39.1075,4016.0
39.11,3968.0
39.1125,3961.0
39.115,4003.0
39.1175,4045.0
39.12,4017.0
39.1225,3974.0
39.125,4022.0
39.1275,4034.0
39.13,3916.0
39.1325,3955.0
39.135,4001.0
39.1375,4034.0
39.14,3983.0
39.1425,4023.0
39.145,4074.0
39.1475,4044.0
39.15,3960.0
39.1525,4026.0
39.155,4090.0
39.1575,3963.0
39.16,3958.0
39.1625,4026.0
39.165,4026.0
39.1675,3993.0
39.17,3981.0
39.1725,4055.0
39.175,4055.0
39.1775,4088.0
39.18,4082.0
39.1825,4061.0
39.185,4093.0
39.1875,4063.0
39.19,4059.0
39.1925,4065.0
39.195,4139.0
39.1975,4145.0
39.2,4057.0
39.2025,4080.0
39.205,4149.0
39.2075,4100.0
39.21,4005.0
39.2125,4087.0
39.215,4162.0
39.2175,4089.0
39.22,4053.0
39.2225,4120.0
39.225,4186.0
39.2275,4063.0
39.23,4068.0
39.2325,4184.0
39.235,4186.0
39.2375,4145.0
39.24,4137.0
39.2425,4180.0
39.245,4164.0
39.2475,4103.0
39.25,4089.0
39.2525,4110.0
39.255,4161.0
39.2575,4135.0
39.26,4119.0
39.2625,4025.0
39.265,3947.0
39.2675,3734.0
39.27,3500.0
39.2725,3357.0
39.275,3277.0
39.2775,3408.0
39.28,3677.0
39.2825,4152.0
39.285,4640.0
39.2875,4838.0
39.29,5131.0
39.2925,5373.0
39.295,5452.0
39.2975,5365.0
39.3,5384.0
39.3025,5369.0
39.305,5212.0
39.3075,4949.0
39.31,4855.0
39.3125,4821.0
39.315,4687.0
39.3175,4623.0
39.32,4542.0
39.3225,4401.0
39.325,4290.0
39.3275,4133.0
39.33,4040.0
39.3325,3868.0
39.335,3819.0
39.3375,3751.0
39.34,3653.0
39.3425,3653.0
39.345,3693.0
39.3475,3646.0
39.35,3675.0
39.3525,3733.0
39.355,3750.0
39.3575,3666.0
39.36,3696.0
39.3625,3726.0
39.365,3770.0
39.3675,3648.0
39.37,3740.0
39.3725,3782.0
39.375,3754.0
39.3775,3754.0
39.38,3791.0
39.3825,3793.0
39.385,3807.0
39.3875,3819.0
39.39,3874.0
39.3925,3833.0
39.395,3853.0
39.3975,3885.0
39.4,3904.0
39.4025,3800.0
39.405,3890.0
39.4075,3914.0
39.41,3912.0
39.4125,3921.0
39.415,3943.0
39.4175,3962.0
39.42,3880.0
39.4225,3874.0
39.425,3964.0
39.4275,3909.0
39.43,3917.0
39.4325,3914.0
39.435,3940.0
39.4375,3865.0
39.44,3851.0
39.4425,3818.0
39.445,3846.0
39.4475,3858.0
39.45,3865.0
39.4525,3841.0
39.455,3785.0
39.4575,3819.0
39.46,3787.0
39.4625,3735.0
39.465,3809.0
39.4675,3838.0
39.47,3841.0
39.4725,3752.0
39.475,3820.0
39.4775,3857.0
39.48,3760.0
39.4825,3760.0
39.485,3880.0
39.4875,3938.0
39.49,3868.0
39.4925,3867.0
39.495,3957.0
39.4975,3943.0
39.5,3908.0
39.5025,3944.0
39.505,4079.0
39.5075,4081.0
39.51,4101.0
39.5125,4141.0
39.515,4191.0
39.5175,4228.0
39.52,4226.0
39.5225,4243.0
39.525,4305.0
39.5275,4377.0
39.53,4360.0
39.5325,4313.0
39.535,4388.0
39.5375,4421.0
39.54,4404.0
39.5425,4363.0
39.545,4505.0
39.5475,4543.0
39.55,4468.0
39.5525,4452.0
39.555,4535.0
39.5575,4500.0
39.56,4429.0
39.5625,4469.0
39.565,4578.0
39.5675,4519.0
39.57,4470.0
39.5725,4492.0
39.575,4543.0
39.5775,4421.0
39.58,4402.0
39.5825,4449.0
39.585,4471.0
39.5875,4454.0
39.59,4435.0
39.5925,4430.0
39.595,4386.0
39.5975,4333.0
39.6,4321.0
39.6025,4317.0
39.605,4392.0
39.6075,4390.0
39.61,4349.0
39.6125,4312.0
39.615,4362.0
39.6175,4315.0
39.62,4248.0
39.6225,4293.0
39.625,4371.0
39.6275,4353.0
39.63,4270.0
39.6325,4309.0
39.635,4335.0
39.6375,4247.0
39.64,4207.0
39.6425,4279.0
39.645,4334.0
39.6475,4246.0
39.65,4243.0
39.6525,4268.0
39.655,4241.0
39.6575,4193.0
39.66,4200.0
39.6625,4248.0
39.665,4258.0
39.6675,4232.0
39.67,4219.0
39.6725,4162.0
39.675,4181.0
39.6775,4162.0
39.68,4190.0
39.6825,4163.0
39.685,4203.0
39.6875,4177.0
39.69,4135.0
39.6925,4147.0
39.695,4162.0
39.6975,4144.0
39.7,4097.0
39.7025,4165.0
39.705,4184.0
39.7075,4124.0
39.71,4143.0
39.7125,4148.0
39.715,4171.0
39.7175,4076.0
39.72,4161.0
39.7225,4190.0
39.725,4182.0
39.7275,4169.0
39.73,4188.0
39.7325,4178.0
39.735,4151.0
39.7375,4167.0
39.74,4224.0
39.7425,4174.0
39.745,4186.0
39.7475,4216.0
39.75,4238.0
39.7525,4119.0
39.755,4179.0
39.7575,4194.0
39.76,4165.0
39.7625,4171.0
39.765,4205.0
39.7675,4217.0
39.77,4152.0
39.7725,4131.0
39.775,4174.0
39.7775,4169.0
39.78,4193.0
39.7825,4187.0
39.785,4195.0
39.7875,4129.0
39.79,4153.0
39.7925,4113.0
39.795,4103.0
39.7975,4142.0
39.8,4189.0
39.8025,4167.0
39.805,4113.0
39.8075,4172.0
39.81,4192.0
39.8125,4095.0
39.815,4138.0
39.8175,4222.0
39.82,4248.0
39.8225,4150.0
39.825,4201.0
39.8275,4236.0
39.83,4195.0
39.8325,4165.0
39.835,4206.0
39.8375,4279.0
39.84,4205.0
39.8425,4180.0
39.845,4204.0
39.8475,4166.0
39.85,4117.0
39.8525,4101.0
39.855,4128.0
39.8575,4095.0
39.86,4096.0
39.8625,4053.0
39.865,4017.0
39.8675,4037.0
39.87,4008.0
39.8725,3978.0
39.875,3953.0
39.8775,4038.0
39.88,4026.0
39.8825,3947.0
39.885,3980.0
39.8875,4013.0
39.89,3971.0
39.8925,3857.0
39.895,3948.0
39.8975,4031.0
39.9,3950.0
39.9025,3937.0
39.905,3966.0
39.9075,4033.0
39.91,3928.0
39.9125,3928.0
39.915,4037.0
39.9175,4036.0
39.92,4018.0
39.9225,4024.0
39.925,4079.0
39.9275,4044.0
39.93,4011.0
39.9325,4012.0
39.935,4066.0
39.9375,4129.0
39.94,4123.0
39.9425,4133.0
39.945,4150.0
39.9475,4205.0
39.95,4172.0
39.9525,4138.0
39.955,4206.0
39.9575,4265.0
39.96,4250.0
39.9625,4199.0
39.965,4240.0
39.9675,4283.0
39.97,4171.0
39.9725,4178.0
39.975,4262.0
39.9775,4307.0
39.98,4196.0
39.9825,4220.0
39.985,4240.0
39.9875,4194.0
39.99,4058.0
39.9925,3974.0
39.995,3861.0
39.9975,3612.0
40.0,3420.0
40.0025,3455.0
40.005,3712.0
40.0075,4129.0
40.01,4524.0
40.0125,4979.0
40.015,5189.0
40.0175,5413.0
40.02,5517.0
40.0225,5477.0
40.025,5473.0
40.0275,5532.0
40.03,5418.0
40.0325,5218.0
40.035,5077.0
40.0375,4982.0
40.04,4821.0
40.0425,4737.0
40.045,4637.0
40.0475,4590.0
40.05,4410.0
40.0525,4327.0
40.055,4200.0
40.0575,4023.0
40.06,3919.0
40.0625,3890.0
40.065,3805.0
40.0675,3766.0
40.07,3794.0
40.0725,3838.0
40.075,3770.0
40.0775,3782.0
40.08,3822.0
40.0825,3844.0
40.085,3728.0
40.0875,3822.0
40.09,3854.0
40.0925,3837.0
40.095,3811.0
40.0975,3863.0
40.1,3876.0
40.1025,3818.0
40.105,3787.0
40.1075,3873.0
40.11,3852.0
40.1125,3870.0
40.115,3866.0
40.1175,3904.0
40.12,3857.0
40.1225,3856.0
40.125,3857.0
40.1275,3872.0
40.13,3905.0
40.1325,3933.0
40.135,3918.0
40.1375,3871.0
40.14,3919.0
40.1425,3872.0
40.145,3817.0
40.1475,3905.0
40.15,3947.0
40.1525,3944.0
40.155,3879.0
40.1575,3936.0
40.16,3932.0
40.1625,3806.0
40.165,3803.0
40.1675,3920.0
40.17,3957.0
40.1725,3861.0
40.175,3855.0
40.1775,3898.0
40.18,3866.0
40.1825,3801.0
40.185,3813.0
40.1875,3917.0
40.19,3889.0
40.1925,3862.0
40.195,3863.0
40.1975,3846.0
40.2,3852.0
40.2025,3814.0
40.205,3817.0
40.2075,3874.0
40.21,3920.0
40.2125,3914.0
40.215,3862.0
40.2175,3926.0
40.22,3936.0
40.2225,3936.0
40.225,3871.0
40.2275,4024.0
40.23,4063.0
40.2325,4021.0
40.235,4035.0
40.2375,4124.0
40.24,4118.0
40.2425,4047.0
40.245,4099.0
40.2475,4247.0
40.25,4236.0
40.2525,4220.0
40.255,4254.0
40.2575,4347.0
40.26,4260.0
40.2625,4263.0
40.265,4335.0
40.2675,4393.0
40.27,4407.0
40.2725,4407.0
40.275,4433.0
40.2775,4423.0
40.28,4410.0
40.2825,4396.0
40.285,4397.0
40.2875,4469.0
40.29,4487.0
40.2925,4467.0
40.295,4406.0
40.2975,4467.0
40.3,4452.0
40.3025,4361.0
40.305,4418.0
40.3075,4492.0
40.31,4488.0
40.3125,4387.0
40.315,4426.0
40.3175,4450.0
40.32,4384.0
40.3225,4361.0
40.325,4418.0
40.3275,4488.0
40.33,4368.0
40.3325,4346.0
40.335,4368.0
40.3375,4328.0
40.34,4296.0
40.3425,4314.0
40.345,4364.0
40.3475,4348.0
40.35,4329.0
40.3525,4335.0
40.355,4266.0
40.3575,4269.0
40.36,4282.0
40.3625,4301.0
40.365,4249.0
40.3675,4305.0
40.37,4311.0
40.3725,4275.0
40.375,4290.0
40.3775,4297.0
40.38,4282.0
40.3825,4232.0
40.385,4279.0
40.3875,4291.0
40.39,4238.0
40.3925,4237.0
40.395,4270.0
40.3975,4281.0
40.4,4208.0
40.4025,4248.0
40.405,4297.0
40.4075,4276.0
40.41,4281.0
40.4125,4289.0
40.415,4274.0
40.4175,4221.0
40.42,4236.0
40.4225,4283.0
40.425,4259.0
40.4275,4255.0
40.43,4282.0
40.4325,4282.0
40.435,4164.0
40.4375,4213.0
40.44,4253.0
40.4425,4211.0
40.445,4203.0
40.4475,4232.0
40.45,4255.0
40.4525,4194.0
40.455,4172.0
40.4575,4212.0
40.46,4178.0
40.4625,4209.0
40.465,4208.0
40.4675,4221.0
40.47,4168.0
40.4725,4212.0
40.475,4160.0
40.4775,4146.0
40.48,4198.0
40.4825,4234.0
40.485,4228.0
40.4875,4161.0
40.49,4217.0
40.4925,4235.0
40.495,4124.0
40.4975,4156.0
40.5,4242.0
40.5025,4272.0
40.505,4168.0
40.5075,4209.0
40.51,4260.0
40.5125,4173.0
40.515,4151.0
40.5175,4186.0
40.52,4265.0
40.5225,4198.0
40.525,4198.0
40.5275,4212.0
40.53,4208.0
40.5325,4154.0
40.535,4144.0
40.5375,4167.0
40.54,4152.0
40.5425,4178.0
40.545,4169.0
40.5475,4122.0
40.55,4146.0
40.5525,4108.0
40.555,4091.0
40.5575,4064.0
40.56,4172.0
40.5625,4175.0
40.565,4084.0
40.5675,4107.0
40.57,4170.0
40.5725,4134.0
40.575,4021.0
40.5775,4107.0
40.58,4187.0
40.5825,4138.0
40.585,4115.0
40.5875,4154.0
40.59,4205.0
40.5925,4084.0
40.595,4080.0
40.5975,4153.0
40.6,4153.0
40.6025,4117.0
40.605,4098.0
40.6075,4143.0
40.61,4111.0
40.6125,4081.0
40.615,4037.0
40.6175,4048.0
40.62,4082.0
40.6225,4092.0
40.625,4085.0
40.6275,4038.0
40.63,4097.0
40.6325,4027.0
40.635,3990.0
40.6375,4040.0
40.64,4102.0
40.6425,4088.0
40.645,4002.0
40.6475,4046.0
40.65,4102.0
40.6525,3973.0
40.655,3988.0
40.6575,4033.0
40.66,4079.0
40.6625,3984.0
40.665,4046.0
40.6675,4096.0
40.67,4057.0
40.6725,4010.0
40.675,4069.0
40.6775,4116.0
40.68,4057.0
40.6825,4059.0
40.685,4093.0
40.6875,4069.0
40.69,4111.0
40.6925,4064.0
40.695,4111.0
40.6975,4083.0
40.7,4126.0
40.7025,4135.0
40.705,4107.0
40.7075,4106.0
40.71,4168.0
40.7125,4152.0
40.715,4119.0
40.7175,4156.0
40.72,4170.0
40.7225,4120.0
40.725,4102.0
40.7275,4114.0
40.73,4181.0
40.7325,4109.0
40.735,4127.0
40.7375,4139.0
40.74,4114.0
40.7425,4118.0
40.745,4119.0
40.7475,4039.0
40.75,3873.0
40.7525,3712.0
40.755,3492.0
40.7575,3330.0
40.76,3414.0
40.7625,3788.0
40.765,4223.0
40.7675,4581.0
40.77,5048.0
40.7725,5281.0
40.775,5409.0
40.7775,5486.0
40.78,5540.0
40.7825,5546.0
40.785,5455.0
40.7875,5348.0
40.79,5225.0
40.7925,5017.0
40.795,4896.0
40.7975,4737.0
40.8,4663.0
40.8025,4479.0
40.805,4366.0
40.8075,4223.0
40.81,4097.0
40.8125,3958.0
40.815,3861.0
40.8175,3781.0
40.82,3675.0
40.8225,3669.0
40.825,3642.0
40.8275,3595.0
40.83,3663.0
40.8325,3724.0
40.835,3754.0
40.8375,3675.0
40.84,3754.0
40.8425,3807.0
40.845,3739.0
40.8475,3708.0
40.85,3817.0
40.8525,3870.0
40.855,3776.0
40.8575,3804.0
40.86,3856.0
40.8625,3828.0
40.865,3783.0
40.8675,3810.0
40.87,3897.0
40.8725,3903.0
40.875,3870.0
40.8775,3855.0
40.88,3852.0
40.8825,3786.0
40.885,3802.0
40.8875,3844.0
40.89,3852.0
40.8925,3928.0
40.895,3924.0
40.8975,3892.0
40.9,3929.0
40.9025,3914.0
40.905,3895.0
40.9075,3794.0
40.91,3879.0
40.9125,3910.0
40.915,3841.0
40.9175,3824.0
40.92,3892.0
40.9225,3879.0
40.925,3765.0
40.9275,3777.0
40.93,3867.0
40.9325,3806.0
40.935,3759.0
40.9375,3741.0
40.94,3792.0
40.9425,3693.0
40.945,3668.0
40.9475,3722.0
40.95,3714.0
40.9525,3694.0
40.955,3685.0
40.9575,3715.0
40.96,3711.0
40.9625,3727.0
40.965,3708.0
40.9675,3684.0
40.97,3750.0
40.9725,3786.0
40.975,3785.0
40.9775,3754.0
40.98,3831.0
40.9825,3878.0
40.985,3809.0
40.9875,3888.0
40.99,3984.0
40.9925,4009.0
40.995,3965.0
40.9975,4040.0
41.0,4110.0
41.0025,4099.0
41.005,4098.0
41.0075,4198.0
41.01,4292.0
41.0125,4276.0
41.015,4285.0
41.0175,4313.0
41.02,4303.0
41.0225,4325.0
41.025,4354.0
41.0275,4417.0
41.03,4394.0
41.0325,4424.0
41.035,4455.0
41.0375,4406.0
41.04,4401.0
41.0425,4445.0
41.045,4468.0
41.0475,4427.0
41.05,4468.0
41.0525,4484.0
41.055,4442.0
41.0575,4450.0
41.06,4463.0
41.0625,4481.0
41.065,4439.0
41.0675,4456.0
41.07,4457.0
41.0725,4408.0
41.075,4419.0
41.0775,4426.0
41.08,4440.0
41.0825,4393.0
41.085,4416.0
41.0875,4435.0
41.09,4384.0
41.0925,4394.0
41.095,4412.0
41.0975,4395.0
41.1,4324.0
41.1025,4348.0
41.105,4384.0
41.1075,4341.0
41.11,4320.0
41.1125,4346.0
41.115,4365.0
41.1175,4303.0
41.12,4303.0
41.1225,4330.0
41.125,4273.0
41.1275,4279.0
41.13,4305.0
41.1325,4309.0
41.135,4219.0
41.1375,4218.0
41.14,4230.0
41.1425,4211.0
41.145,4221.0
41.1475,4246.0
41.15,4275.0
41.1525,4219.0
41.155,4267.0
41.1575,4222.0
41.16,4170.0
41.1625,4216.0
41.165,4236.0
41.1675,4227.0
41.17,4189.0
41.1725,4222.0
41.175,4239.0
41.1775,4167.0
41.18,4177.0
41.1825,4219.0
41.185,4227.0
41.1875,4128.0
41.19,4151.0
41.1925,4184.0
41.195,4128.0
41.1975,4113.0
41.2,4122.0
41.2025,4194.0
41.205,4122.0
41.2075,4121.0
41.21,4143.0
41.2125,4108.0
41.215,4081.0
41.2175,4088.0
41.22,4103.0
41.2225,4119.0
41.225,4122.0
41.2275,4097.0
41.23,4066.0
41.2325,4096.0
41.235,4087.0
41.2375,4082.0
41.24,4036.0
41.2425,4113.0
41.245,4107.0
41.2475,4024.0
41.25,4040.0
41.2525,4094.0
41.255,4071.0
41.2575,3962.0
41.26,4029.0
41.2625,4104.0
41.265,4056.0
41.2675,4035.0
41.27,4074.0
41.2725,4088.0
41.275,3990.0
41.2775,3974.0
41.28,4041.0
41.2825,4051.0
41.285,4038.0
41.2875,4051.0
41.29,4082.0
41.2925,4030.0
41.295,4028.0
41.2975,4046.0
41.3,4037.0
41.3025,4075.0
41.305,4095.0
41.3075,4092.0
41.31,4052.0
41.3125,4112.0
41.315,4087.0
41.3175,4047.0
41.32,4076.0
41.3225,4127.0
41.325,4124.0
41.3275,4068.0
41.33,4109.0
41.3325,4137.0
41.335,4078.0
41.3375,4118.0
41.34,4162.0
41.3425,4195.0
41.345,4106.0
41.3475,4115.0
41.35,4152.0
41.3525,4120.0
41.355,4083.0
41.3575,4125.0
41.36,4147.0
41.3625,4084.0
41.365,4108.0
41.3675,4118.0
41.37,4067.0
41.3725,4100.0
41.375,4087.0
41.3775,4123.0
41.38,4075.0
41.3825,4111.0
41.385,4089.0
41.3875,4057.0
41.39,4066.0
41.3925,4108.0
41.395,4099.0
41.3975,4098.0
41.4,4120.0
41.4025,4148.0
41.405,4098.0
41.4075,4117.0
41.41,4120.0
41.4125,4166.0
41.415,4123.0
41.4175,4167.0
41.42,4179.0
41.4225,4151.0
41.425,4178.0
41.4275,4227.0
41.43,4214.0
41.4325,4182.0
41.435,4226.0
41.4375,4258.0
41.44,4231.0
41.4425,4231.0
41.445,4262.0
41.4475,4268.0
41.45,4185.0
41.4525,4246.0
41.455,4264.0
41.4575,4228.0
41.46,4208.0
41.4625,4228.0
41.465,4243.0
41.4675,4186.0
41.47,4187.0
41.4725,4248.0
41.475,4221.0
41.4775,4217.0
41.48,4211.0
41.4825,4250.0
41.485,4193.0
41.4875,4191.0
41.49,4184.0
41.4925,4213.0
41.495,4228.0
41.4975,4250.0
41.5,4228.0
41.5025,4169.0
41.505,4195.0
41.5075,4191.0
41.51,4130.0
41.5125,4195.0
41.515,4235.0
41.5175,4183.0
41.52,3935.0
41.5225,3809.0
41.525,3598.0
41.5275,3375.0
41.53,3397.0
41.5325,3837.0
41.535,4332.0
41.5375,4678.0
41.54,5015.0
41.5425,5217.0
41.545,5359.0
41.5475,5422.0
41.55,5462.0
41.5525,5586.0
41.555,5548.0
41.5575,5452.0
41.56,5265.0
41.5625,5004.0
41.565,4869.0
41.5675,4746.0
41.57,4635.0
41.5725,4523.0
41.575,4446.0
41.5775,4298.0
41.58,4107.0
41.5825,4030.0
41.585,3914.0
41.5875,3794.0
41.59,3687.0
41.5925,3741.0
41.595,3765.0
41.5975,3694.0
41.6,3679.0
41.6025,3713.0
41.605,3695.0
41.6075,3592.0
41.61,3647.0
41.6125,3730.0
41.615,3681.0
41.6175,3668.0
41.62,3708.0
41.6225,3752.0
41.625,3661.0
41.6275,3666.0
41.63,3714.0
41.6325,3707.0
41.635,3708.0
41.6375,3714.0
41.64,3759.0
41.6425,3723.0
41.645,3749.0
41.6475,3742.0
41.65,3762.0
41.6525,3829.0
41.655,3853.0
41.6575,3847.0
41.66,3772.0
41.6625,3820.0
41.665,3840.0
41.6675,3761.0
41.67,3791.0
41.6725,3858.0
41.675,3880.0
41.6775,3786.0
41.68,3811.0
41.6825,3851.0
41.685,3786.0
41.6875,3770.0
41.69,3809.0
41.6925,3834.0
41.695,3746.0
41.6975,3766.0
41.7,3777.0
41.7025,3740.0
41.705,3742.0
41.7075,3744.0
41.71,3789.0
41.7125,3735.0
41.715,3751.0
41.7175,3773.0
41.72,3693.0
41.7225,3699.0
41.725,3740.0
41.7275,3763.0
41.73,3731.0
41.7325,3776.0
41.735,3795.0
41.7375,3747.0
41.74,3773.0
41.7425,3801.0
41.745,3854.0
41.7475,3812.0
41.75,3872.0
41.7525,3915.0
41.755,3922.0
41.7575,3943.0
41.76,3988.0
41.7625,4018.0
41.765,3992.0
41.7675,4088.0
41.77,4150.0
41.7725,4129.0
41.775,4181.0
41.7775,4236.0
41.78,4268.0
41.7825,4221.0
41.785,4296.0
41.7875,4362.0
41.79,4336.0
41.7925,4340.0
41.795,4392.0
41.7975,4419.0
41.8,4326.0
41.8025,4373.0
41.805,4422.0
41.8075,4411.0
41.81,4416.0
41.8125,4436.0
41.815,4478.0
41.8175,4393.0
41.82,4368.0
41.8225,4385.0
41.825,4394.0
41.8275,4401.0
41.83,4408.0
41.8325,4411.0
41.835,4349.0
41.8375,4374.0
41.84,4344.0
41.8425,4287.0
41.845,4348.0
41.8475,4380.0
41.85,4365.0
41.8525,4292.0
41.855,4333.0
41.8575,4342.0
41.86,4300.0
41.8625,4274.0
41.865,4353.0
41.8675,4374.0
41.87,4294.0
41.8725,4315.0
41.875,4359.0
41.8775,4293.0
41.88,4265.0
41.8825,4286.0
41.885,4363.0
41.8875,4287.0
41.89,4276.0
41.8925,4308.0
41.895,4289.0
41.8975,4256.0
41.9,4263.0
41.9025,4286.0
41.905,4286.0
41.9075,4301.0
41.91,4296.0
41.9125,4248.0
41.915,4272.0
41.9175,4249.0
41.92,4254.0
41.9225,4206.0
41.925,4273.0
41.9275,4265.0
41.93,4185.0
41.9325,4192.0
41.935,4246.0
41.9375,4238.0
41.94,4135.0
41.9425,4168.0
41.945,4217.0
41.9475,4152.0
41.95,4154.0
41.9525,4160.0
41.955,4197.0
41.9575,4094.0
41.96,4098.0
41.9625,4151.0
41.965,4147.0
41.9675,4138.0
41.97,4154.0
41.9725,4179.0
41.975,4124.0
41.9775,4121.0
41.98,4125.0
41.9825,4110.0
41.985,4149.0
41.9875,4154.0
41.99,4181.0
41.9925,4124.0
41.995,4179.0
41.9975,4159.0
42.0,4106.0
42.0025,4138.0
42.005,4188.0
42.0075,4190.0
42.01,4125.0
42.0125,4159.0
42.015,4196.0
42.0175,4137.0
42.02,4165.0
42.0225,4211.0
42.025,4226.0
42.0275,4119.0
42.03,4136.0
42.0325,4169.0
42.035,4136.0
42.0375,4115.0
42.04,4168.0
42.0425,4208.0
42.045,4143.0
42.0475,4164.0
42.05,4192.0
42.0525,4134.0
42.055,4145.0
42.0575,4145.0
42.06,4187.0
42.0625,4118.0
42.065,4160.0
42.0675,4167.0
42.07,4117.0
42.0725,4116.0
42.075,4163.0
42.0775,4169.0
42.08,4149.0
42.0825,4171.0
42.085,4183.0
42.0875,4134.0
42.09,4147.0
42.0925,4144.0
42.095,4181.0
42.0975,4123.0
42.1,4166.0
42.1025,4173.0
42.105,4125.0
42.1075,4146.0
42.11,4177.0
42.1125,4164.0
42.115,4121.0
42.1175,4167.0
42.12,4194.0
42.1225,4146.0
42.125,4155.0
42.1275,4187.0
42.13,4215.0
42.1325,4140.0
42.135,4180.0
42.1375,4211.0
42.14,4151.0
42.1425,4140.0
42.145,4177.0
42.1475,4200.0
42.15,4129.0
42.1525,4136.0
42.155,4196.0
42.1575,4163.0
42.16,4167.0
42.1625,4169.0
42.165,4174.0
42.1675,4126.0
42.17,4135.0
42.1725,4123.0
42.175,4109.0
42.1775,4056.0
42.18,4120.0
42.1825,4128.0
42.185,4131.0
42.1875,4167.0
42.19,4153.0
42.1925,4081.0
42.195,4124.0
42.1975,4187.0
42.2,4206.0
42.2025,4118.0
42.205,4174.0
42.2075,4202.0
42.21,4111.0
42.2125,4100.0
42.215,4180.0
42.2175,4237.0
42.22,4161.0
42.2225,4174.0
42.225,4200.0
42.2275,4167.0
42.23,4127.0
42.2325,4124.0
42.235,4194.0
42.2375,4148.0
42.24,4163.0
42.2425,4170.0
42.245,4159.0
42.2475,4189.0
42.25,4167.0
42.2525,4172.0
42.255,4157.0
42.2575,4169.0
42.26,4145.0
42.2625,4098.0
42.265,4125.0
42.2675,4173.0
42.27,4164.0
42.2725,4100.0
42.275,4163.0
42.2775,4173.0
42.28,4085.0
42.2825,4122.0
42.285,4142.0
42.2875,4184.0
42.29,4094.0
42.2925,4123.0
42.295,4156.0
42.2975,4151.0
42.3,4142.0
42.3025,4173.0
42.305,4193.0
42.3075,4141.0
42.31,4143.0
42.3125,4191.0
42.315,4186.0
42.3175,4192.0
42.32,4186.0
42.3225,4201.0
42.325,4157.0
42.3275,4176.0
42.33,4155.0
42.3325,4132.0
42.335,4174.0
42.3375,4192.0
42.34,4197.0
42.3425,4134.0
42.345,4174.0
42.3475,4198.0
42.35,4147.0
42.3525,4186.0
42.355,4221.0
42.3575,4244.0
42.36,4172.0
42.3625,4203.0
42.365,4213.0
42.3675,4156.0
42.37,4131.0
42.3725,4183.0
42.375,4216.0
42.3775,4159.0
42.38,4173.0
42.3825,4205.0
42.385,4145.0
42.3875,4140.0
42.39,4074.0
42.3925,3958.0
42.395,3699.0
42.3975,3514.0
42.4,3403.0
42.4025,3508.0
42.405,3862.0
42.4075,4317.0
42.41,4734.0
42.4125,4968.0
42.415,5194.0
42.4175,5364.0
42.42,5431.0
42.4225,5445.0
42.425,5486.0
42.4275,5509.0
42.43,5337.0
42.4325,5172.0
42.435,4958.0
42.4375,4786.0
42.44,4695.0
42.4425,4606.0
42.445,4513.0
42.4475,4367.0
42.45,4300.0
42.4525,4188.0
42.455,4049.0
42.4575,3942.0
42.46,3876.0
42.4625,3813.0
42.465,3695.0
42.4675,3735.0
42.47,3781.0
42.4725,3725.0
42.475,3733.0
42.4775,3764.0
42.48,3781.0
42.4825,3691.0
42.485,3720.0
42.4875,3765.0
42.49,3725.0
42.4925,3742.0
42.495,3760.0
42.4975,3815.0
42.5,3754.0
42.5025,3747.0
42.505,3764.0
42.5075,3781.0
42.51,3812.0
42.5125,3814.0
42.515,3813.0
42.5175,3754.0
42.52,3793.0
42.5225,3787.0
42.525,3726.0
42.5275,3794.0
42.53,3839.0
42.5325,3833.0
42.535,3768.0
42.5375,3818.0
42.54,3853.0
42.5425,3766.0
42.545,3759.0
42.5475,3845.0
42.55,3858.0
42.5525,3772.0
42.555,3794.0
42.5575,3839.0
42.56,3766.0
42.5625,3751.0
42.565,3755.0
42.5675,3831.0
42.57,3797.0
42.5725,3787.0
42.575,3791.0
42.5775,3757.0
42.58,3741.0
42.5825,3730.0
42.585,3762.0
42.5875,3750.0
42.59,3785.0
42.5925,3773.0
42.595,3730.0
42.5975,3765.0
42.6,3764.0
42.6025,3773.0
42.605,3750.0
42.6075,3829.0
42.61,3844.0
42.6125,3794.0
42.615,3845.0
42.6175,3895.0
42.62,3911.0
42.6225,3817.0
42.625,3907.0
42.6275,3992.0
42.63,3947.0
42.6325,3976.0
42.635,4029.0
42.6375,4096.0
42.64,4029.0
42.6425,4055.0
42.645,4131.0
42.6475,4143.0
42.65,4168.0
42.6525,4201.0
42.655,4254.0
42.6575,4235.0
42.66,4251.0
42.6625,4265.0
42.665,4270.0
42.6675,4332.0
42.67,4346.0
42.6725,4358.0
42.675,4352.0
42.6775,4401.0
42.68,4395.0
42.6825,4341.0
42.685,4377.0
42.6875,4442.0
42.69,4442.0
42.6925,4393.0
42.695,4418.0
42.6975,4456.0
42.7,4373.0
42.7025,4396.0
42.705,4453.0
42.7075,4472.0
42.71,4389.0
42.7125,4424.0
42.715,4460.0
42.7175,4398.0
42.72,4386.0
42.7225,4410.0
42.725,4448.0
42.7275,4425.0
42.73,4426.0
42.7325,4425.0
42.735,4362.0
42.7375,4369.0
42.74,4370.0
42.7425,4392.0
42.745,4330.0
42.7475,4365.0
42.75,4357.0
42.7525,4313.0
42.755,4312.0
42.7575,4349.0
42.76,4350.0
42.7625,4285.0
42.765,4291.0
42.7675,4313.0
42.77,4260.0
42.7725,4269.0
42.775,4245.0
42.7775,4298.0
42.78,4271.0
42.7825,4291.0
42.785,4286.0
42.7875,4240.0
42.79,4225.0
42.7925,4253.0
42.795,4235.0
42.7975,4188.0
42.8,4223.0
42.8025,4253.0
42.805,4189.0
42.8075,4207.0
42.81,4227.0
42.8125,4254.0
42.815,4170.0
42.8175,4199.0
42.82,4247.0
42.8225,4200.0
42.825,4190.0
42.8275,4227.0
42.83,4269.0
42.8325,4218.0
42.835,4197.0
42.8375,4219.0
42.84,4197.0
42.8425,4187.0
42.845,4197.0
42.8475,4216.0
42.85,4174.0
42.8525,4182.0
42.855,4182.0
42.8575,4167.0
42.86,4220.0
42.8625,4237.0
42.865,4217.0
42.8675,4150.0
42.87,4206.0
42.8725,4186.0
42.875,4126.0
42.8775,4162.0
42.88,4247.0
42.8825,4267.0
42.885,4200.0
42.8875,4226.0
42.89,4236.0
42.8925,4128.0
42.895,4119.0
42.8975,4181.0
42.9,4233.0
42.9025,4163.0
42.905,4196.0
42.9075,4218.0
42.91,4166.0
42.9125,4129.0
42.915,4126.0
42.9175,4203.0
42.92,4172.0
42.9225,4179.0
42.925,4172.0
42.9275,4146.0
42.93,4147.0
42.9325,4145.0
42.935,4166.0
42.9375,4171.0
42.94,4212.0
42.9425,4211.0
42.945,4138.0
42.9475,4158.0
42.95,4185.0
42.9525,4178.0
42.955,4125.0
42.9575,4217.0
42.96,4261.0
42.9625,4184.0
42.965,4181.0
42.9675,4194.0
42.97,4241.0
42.9725,4145.0
42.975,4187.0
