138.4475,2739.0
138.45,2752.0
138.4525,2750.0
138.455,2734.0
138.4575,2774.0
138.46,2725.0
138.4625,2702.0
138.465,2705.0
138.4675,2705.0
138.47,2714.0
138.4725,2696.0
138.475,2741.0
138.4775,2701.0
138.48,2696.0
138.4825,2685.0
138.485,2705.0
138.4875,2710.0
138.49,2704.0
138.4925,2759.0
138.495,2713.0
138.4975,2707.0
138.5,2722.0
138.5025,2731.0
138.505,2732.0
138.5075,2732.0
138.51,2779.0
138.5125,2751.0
138.515,2756.0
138.5175,2776.0
138.52,2801.0
138.5225,2807.0
138.525,2810.0
138.5275,2892.0
138.53,2873.0
138.5325,2880.0
138.535,2887.0
138.5375,2912.0
138.54,2936.0
138.5425,2944.0
138.545,3003.0
138.5475,3006.0
138.55,3020.0
138.5525,3026.0
138.555,3075.0
138.5575,3098.0
138.56,3121.0
138.5625,3191.0
138.565,3170.0
138.5675,3180.0
138.57,3201.0
138.5725,3223.0
138.575,3226.0
138.5775,3244.0
138.58,3296.0
138.5825,3267.0
138.585,3266.0
138.5875,3280.0
138.59,3318.0
138.5925,3295.0
138.595,3300.0
138.5975,3392.0
138.6,3346.0
138.6025,3343.0
138.605,3331.0
138.6075,3345.0
138.61,3353.0
138.6125,3345.0
138.615,3413.0
138.6175,3368.0
138.62,3343.0
138.6225,3338.0
138.625,3370.0
138.6275,3345.0
138.63,3350.0
138.6325,3386.0
138.635,3331.0
138.6375,3319.0
138.64,3305.0
138.6425,3333.0
138.645,3338.0
138.6475,3326.0
138.65,3392.0
138.6525,3332.0
138.655,3313.0
138.6575,3314.0
138.66,3320.0
138.6625,3300.0
138.665,3287.0
138.6675,3369.0
138.67,3315.0
138.6725,3287.0
138.675,3293.0
138.6775,3309.0
138.68,3288.0
138.6825,3268.0
138.685,3338.0
138.6875,3286.0
138.69,3269.0
138.6925,3236.0
138.695,3259.0
138.6975,3234.0
138.7,3234.0
138.7025,3283.0
138.705,3234.0
138.7075,3221.0
138.71,3239.0
138.7125,3249.0
138.715,3231.0
138.7175,3240.0
138.72,3314.0
138.7225,3277.0
138.725,3254.0
138.7275,3243.0
138.73,3273.0
138.7325,3265.0
138.735,3253.0
138.7375,3284.0
138.74,3220.0
138.7425,3203.0
138.745,3214.0
138.7475,3224.0
138.75,3234.0
138.7525,3214.0
138.755,3261.0
138.7575,3211.0
138.76,3231.0
138.7625,3225.0
138.765,3230.0
138.7675,3219.0
138.77,3246.0
138.7725,3303.0
138.775,3238.0
138.7775,3231.0
138.78,3232.0
138.7825,3256.0
138.785,3245.0
138.7875,3228.0
138.79,3324.0
138.7925,3267.0
138.795,3237.0
138.7975,3239.0
138.8,3261.0
138.8025,3273.0
138.805,3276.0
138.8075,3328.0
138.81,3297.0
138.8125,3307.0
138.815,3286.0
138.8175,3300.0
138.82,3302.0
138.8225,3298.0
138.825,3356.0
138.8275,3297.0
138.83,3280.0
138.8325,3270.0
138.835,3261.0
138.8375,3249.0
138.84,3252.0
138.8425,3312.0
138.845,3267.0
138.8475,3267.0
138.85,3246.0
138.8525,3264.0
138.855,3244.0
138.8575,3227.0
138.86,3296.0
138.8625,3228.0
138.865,3224.0
138.8675,3229.0
138.87,3255.0
138.8725,3226.0
138.875,3224.0
138.8775,3282.0
138.88,3227.0
138.8825,3214.0
138.885,3222.0
138.8875,3248.0
138.89,3226.0
138.8925,3220.0
138.895,3266.0
138.8975,3235.0
138.9,3228.0
138.9025,3225.0
138.905,3231.0
138.9075,3226.0
138.91,3219.0
138.9125,3291.0
138.915,3209.0
138.9175,3214.0
138.92,3210.0
138.9225,3217.0
138.925,3213.0
138.9275,3207.0
138.93,3268.0
138.9325,3195.0
138.935,3170.0
138.9375,3154.0
138.94,3155.0
138.9425,3137.0
138.945,3099.0
138.9475,3143.0
138.95,3085.0
138.9525,3078.0
138.955,3064.0
138.9575,3106.0
138.96,3124.0
138.9625,3109.0
138.965,3171.0
138.9675,3143.0
138.97,3149.0
138.9725,3163.0
138.975,3144.0
138.9775,3144.0
138.98,3130.0
138.9825,3197.0
138.985,3176.0
138.9875,3178.0
138.99,3180.0
138.9925,3198.0
138.995,3206.0
138.9975,3216.0
139.0,3279.0
139.0025,3228.0
139.005,3242.0
139.0075,3244.0
139.01,3253.0
139.0125,3262.0
139.015,3225.0
139.0175,3275.0
139.02,3209.0
139.0225,3210.0
139.025,3201.0
139.0275,3206.0
139.03,3223.0
139.0325,3227.0
139.035,3270.0
139.0375,3213.0
139.04,3183.0
139.0425,3184.0
139.045,3198.0
139.0475,3180.0
139.05,3160.0
139.0525,3214.0
139.055,3139.0
139.0575,3129.0
139.06,3105.0
139.0625,3129.0
139.065,3169.0
139.0675,3235.0
139.07,3361.0
139.0725,3320.0
139.075,3223.0
139.0775,3039.0
139.08,2851.0
139.0825,2574.0
139.085,2254.0
139.0875,2182.0
139.09,2553.0
139.0925,3175.0
139.095,3773.0
139.0975,3965.0
139.1,4095.0
139.1025,4276.0
139.105,4475.0
139.1075,4482.0
139.11,4558.0
139.1125,4599.0
139.115,4458.0
139.1175,4290.0
139.12,4177.0
139.1225,4130.0
139.125,3876.0
139.1275,3707.0
139.13,3568.0
139.1325,3468.0
139.135,3240.0
139.1375,3031.0
139.14,2946.0
139.1425,2809.0
139.145,2719.0
139.1475,2653.0
139.15,2650.0
139.1525,2680.0
139.155,2662.0
139.1575,2722.0
139.16,2707.0
139.1625,2690.0
139.165,2679.0
139.1675,2676.0
139.17,2679.0
139.1725,2678.0
139.175,2731.0
139.1775,2700.0
139.18,2698.0
139.1825,2717.0
139.185,2737.0
139.1875,2725.0
139.19,2728.0
139.1925,2787.0
139.195,2757.0
139.1975,2740.0
139.2,2762.0
139.2025,2782.0
139.205,2787.0
139.2075,2773.0
139.21,2832.0
139.2125,2816.0
139.215,2798.0
139.2175,2809.0
139.22,2834.0
139.2225,2815.0
139.225,2808.0
139.2275,2849.0
139.23,2805.0
139.2325,2806.0
139.235,2792.0
139.2375,2795.0
139.24,2808.0
139.2425,2795.0
139.245,2855.0
139.2475,2809.0
139.25,2788.0
139.2525,2812.0
139.255,2805.0
139.2575,2789.0
139.26,2795.0
139.2625,2838.0
139.265,2791.0
139.2675,2777.0
139.27,2774.0
139.2725,2789.0
139.275,2778.0
139.2775,2785.0
139.28,2854.0
139.2825,2812.0
139.285,2823.0
139.2875,2824.0
139.29,2847.0
139.2925,2862.0
139.295,2869.0
139.2975,2961.0
139.3,2949.0
139.3025,2952.0
139.305,2951.0
139.3075,2962.0
139.31,3008.0
139.3125,3040.0
139.315,3128.0
139.3175,3104.0
139.32,3139.0
139.3225,3153.0
139.325,3171.0
139.3275,3189.0
139.33,3209.0
139.3325,3300.0
139.335,3234.0
139.3375,3253.0
139.34,3262.0
139.3425,3293.0
139.345,3301.0
139.3475,3296.0
139.35,3362.0
139.3525,3333.0
139.355,3332.0
139.3575,3329.0
139.36,3346.0
139.3625,3359.0
139.365,3372.0
139.3675,3426.0
139.37,3381.0
139.3725,3367.0
139.375,3377.0
139.3775,3370.0
139.38,3363.0
139.3825,3354.0
139.385,3419.0
139.3875,3365.0
139.39,3352.0
139.3925,3360.0
139.395,3363.0
139.3975,3335.0
139.4,3321.0
139.4025,3387.0
139.405,3344.0
139.4075,3329.0
139.41,3319.0
139.4125,3351.0
139.415,3336.0
139.4175,3330.0
139.42,3390.0
139.4225,3337.0
139.425,3323.0
139.4275,3303.0
139.43,3321.0
139.4325,3294.0
139.435,3265.0
139.4375,3323.0
139.44,3252.0
139.4425,3227.0
139.445,3220.0
139.4475,3216.0
139.45,3211.0
139.4525,3218.0
139.455,3302.0
139.4575,3229.0
139.46,3195.0
139.4625,3194.0
139.465,3197.0
139.4675,3184.0
139.47,3171.0
139.4725,3227.0
139.475,3188.0
139.4775,3177.0
139.48,3175.0
139.4825,3208.0
139.485,3187.0
139.4875,3168.0
139.49,3233.0
139.4925,3167.0
139.495,3185.0
139.4975,3170.0
139.5,3165.0
139.5025,3163.0
139.505,3173.0
139.5075,3222.0
139.51,3185.0
139.5125,3186.0
139.515,3194.0
139.5175,3182.0
139.52,3177.0
139.5225,3169.0
139.525,3223.0
139.5275,3185.0
139.53,3171.0
139.5325,3168.0
139.535,3205.0
139.5375,3176.0
139.54,3183.0
139.5425,3256.0
139.545,3199.0
139.5475,3184.0
139.55,3165.0
139.5525,3171.0
139.555,3183.0
139.5575,3163.0
139.56,3219.0
139.5625,3183.0
139.565,3165.0
139.5675,3157.0
139.57,3163.0
139.5725,3159.0
139.575,3170.0
139.5775,3226.0
139.58,3181.0
139.5825,3176.0
139.585,3163.0
139.5875,3181.0
139.59,3169.0
139.5925,3166.0
139.595,3234.0
139.5975,3162.0
139.6,3155.0
139.6025,3158.0
139.605,3174.0
139.6075,3161.0
139.61,3155.0
139.6125,3221.0
139.615,3188.0
139.6175,3144.0
139.62,3135.0
139.6225,3141.0
139.625,3133.0
139.6275,3118.0
139.63,3194.0
139.6325,3169.0
139.635,3177.0
139.6375,3177.0
139.64,3188.0
139.6425,3185.0
139.645,3156.0
139.6475,3221.0
139.65,3184.0
139.6525,3166.0
139.655,3153.0
139.6575,3169.0
139.66,3189.0
139.6625,3189.0
139.665,3261.0
139.6675,3200.0
139.67,3183.0
139.6725,3177.0
139.675,3191.0
139.6775,3170.0
139.68,3167.0
139.6825,3238.0
139.685,3185.0
139.6875,3184.0
139.69,3185.0
139.6925,3179.0
139.695,3170.0
139.6975,3176.0
139.7,3224.0
139.7025,3184.0
139.705,3189.0
139.7075,3175.0
139.71,3166.0
139.7125,3145.0
139.715,3130.0
139.7175,3174.0
139.72,3130.0
139.7225,3091.0
139.725,3085.0
139.7275,3078.0
139.73,3039.0
139.7325,3020.0
139.735,3091.0
139.7375,3066.0
139.74,3067.0
139.7425,3087.0
139.745,3101.0
139.7475,3076.0
139.75,3055.0
139.7525,3131.0
139.755,3092.0
139.7575,3084.0
139.76,3088.0
139.7625,3093.0
139.765,3098.0
139.7675,3098.0
139.77,3189.0
139.7725,3133.0
139.775,3133.0
139.7775,3155.0
139.78,3169.0
139.7825,3151.0
139.785,3170.0
139.7875,3230.0
139.79,3173.0
139.7925,3159.0
139.795,3171.0
139.7975,3172.0
139.8,3146.0
139.8025,3130.0
139.805,3181.0
139.8075,3145.0
139.81,3129.0
139.8125,3138.0
139.815,3140.0
139.8175,3136.0
139.82,3126.0
139.8225,3182.0
139.825,3129.0
139.8275,3090.0
139.83,3078.0
139.8325,3101.0
139.835,3084.0
139.8375,3084.0
139.84,3139.0
139.8425,3112.0
139.845,3119.0
139.8475,3147.0
139.85,3256.0
139.8525,3332.0
139.855,3337.0
139.8575,3278.0
139.86,3041.0
139.8625,2765.0
139.865,2515.0
139.8675,2169.0
139.87,2145.0
139.8725,2647.0
139.875,3361.0
139.8775,3820.0
139.88,3935.0
139.8825,4113.0
139.885,4335.0
139.8875,4404.0
139.89,4509.0
139.8925,4634.0
139.895,4576.0
139.8975,4374.0
139.9,4219.0
139.9025,4125.0
139.905,3994.0
139.9075,3811.0
139.91,3771.0
139.9125,3590.0
139.915,3433.0
139.9175,3189.0
139.92,2999.0
139.9225,2877.0
139.925,2780.0
139.9275,2751.0
139.93,2697.0
139.9325,2710.0
139.935,2699.0
139.9375,2721.0
139.94,2691.0
139.9425,2690.0
139.945,2776.0
139.9475,2746.0
139.95,2727.0
139.9525,2720.0
139.955,2732.0
139.9575,2754.0
139.96,2737.0
139.9625,2789.0
139.965,2756.0
139.9675,2757.0
139.97,2754.0
139.9725,2779.0
139.975,2799.0
139.9775,2807.0
139.98,2833.0
139.9825,2817.0
139.985,2802.0
139.9875,2816.0
139.99,2830.0
139.9925,2823.0
139.995,2836.0
139.9975,2890.0
140.0,2827.0
140.0025,2825.0
140.005,2832.0
140.0075,2855.0
140.01,2845.0
140.0125,2834.0
140.015,2869.0
140.0175,2826.0
140.02,2810.0
140.0225,2817.0
140.025,2830.0
140.0275,2818.0
140.03,2812.0
140.0325,2867.0
140.035,2843.0
140.0375,2852.0
140.04,2808.0
140.0425,2822.0
140.045,2821.0
140.0475,2823.0
140.05,2851.0
140.0525,2831.0
140.055,2831.0
140.0575,2870.0
140.06,2873.0
140.0625,2869.0
140.065,2881.0
140.0675,2947.0
140.07,2891.0
140.0725,2888.0
140.075,2899.0
140.0775,2940.0
140.08,2946.0
140.0825,2965.0
140.085,3044.0
140.0875,3034.0
140.09,3037.0
140.0925,3057.0
140.095,3090.0
140.0975,3134.0
140.1,3149.0
140.1025,3218.0
140.105,3196.0
140.1075,3203.0
140.11,3231.0
140.1125,3288.0
140.115,3316.0
140.1175,3301.0
140.12,3365.0
140.1225,3312.0
140.125,3305.0
140.1275,3316.0
140.13,3334.0
140.1325,3322.0
140.135,3326.0
140.1375,3429.0
140.14,3382.0
140.1425,3351.0
140.145,3359.0
140.1475,3389.0
140.15,3376.0
140.1525,3382.0
140.155,3465.0
140.1575,3426.0
140.16,3405.0
140.1625,3393.0
140.165,3406.0
140.1675,3387.0
140.17,3385.0
140.1725,3463.0
140.175,3397.0
140.1775,3401.0
140.18,3391.0
140.1825,3387.0
140.185,3376.0
140.1875,3366.0
140.19,3433.0
140.1925,3393.0
140.195,3361.0
140.1975,3384.0
140.2,3377.0
140.2025,3351.0
140.205,3350.0
140.2075,3393.0
140.21,3336.0
140.2125,3331.0
140.215,3327.0
140.2175,3326.0
140.22,3298.0
140.2225,3275.0
140.225,3337.0
140.2275,3298.0
140.23,3282.0
140.2325,3275.0
140.235,3271.0
140.2375,3288.0
140.24,3298.0
140.2425,3367.0
140.245,3314.0
140.2475,3308.0
140.25,3316.0
140.2525,3316.0
140.255,3291.0
140.2575,3277.0
140.26,3340.0
140.2625,3280.0
140.265,3275.0
140.2675,3264.0
140.27,3293.0
140.2725,3273.0
140.275,3268.0
140.2775,3335.0
140.28,3287.0
140.2825,3252.0
140.285,3248.0
140.2875,3241.0
140.29,3250.0
140.2925,3242.0
140.295,3293.0
140.2975,3260.0
140.3,3257.0
140.3025,3251.0
140.305,3265.0
140.3075,3260.0
140.31,3272.0
140.3125,3327.0
140.315,3273.0
140.3175,3249.0
140.32,3258.0
140.3225,3250.0
140.325,3251.0
140.3275,3262.0
140.33,3339.0
140.3325,3288.0
140.335,3273.0
140.3375,3265.0
140.34,3291.0
140.3425,3271.0
140.345,3262.0
140.3475,3346.0
140.35,3276.0
140.3525,3290.0
140.355,3289.0
140.3575,3295.0
140.36,3285.0
140.3625,3261.0
140.365,3318.0
140.3675,3258.0
140.37,3240.0
140.3725,3247.0
140.375,3251.0
140.3775,3250.0
140.38,3229.0
140.3825,3270.0
140.385,3220.0
140.3875,3220.0
140.39,3232.0
140.3925,3246.0
140.395,3238.0
140.3975,3229.0
140.4,3303.0
140.4025,3215.0
140.405,3212.0
140.4075,3215.0
140.41,3230.0
140.4125,3210.0
140.415,3213.0
140.4175,3301.0
140.42,3267.0
140.4225,3238.0
140.425,3219.0
140.4275,3225.0
140.43,3234.0
140.4325,3200.0
140.435,3263.0
140.4375,3197.0
140.44,3212.0
140.4425,3199.0
140.445,3221.0
140.4475,3201.0
140.45,3206.0
140.4525,3245.0
140.455,3203.0
140.4575,3189.0
140.46,3227.0
140.4625,3208.0
140.465,3188.0
140.4675,3176.0
140.47,3227.0
140.4725,3156.0
140.475,3139.0
140.4775,3117.0
140.48,3145.0
140.4825,3128.0
140.485,3118.0
140.4875,3171.0
140.49,3119.0
140.4925,3123.0
140.495,3123.0
140.4975,3147.0
140.5,3126.0
140.5025,3126.0
140.505,3163.0
140.5075,3100.0
140.51,3082.0
140.5125,3081.0
140.515,3085.0
140.5175,3091.0
140.52,3084.0
140.5225,3127.0
140.525,3088.0
140.5275,3069.0
140.53,3075.0
140.5325,3067.0
140.535,3030.0
140.5375,3012.0
140.54,3096.0
140.5425,3055.0
140.545,3039.0
140.5475,3031.0
140.55,3003.0
140.5525,2992.0
140.555,3011.0
140.5575,3117.0
140.56,3091.0
140.5625,3049.0
140.565,3037.0
140.5675,3057.0
140.57,3063.0
140.5725,3042.0
140.575,3112.0
140.5775,3085.0
140.58,3096.0
140.5825,3085.0
140.585,3103.0
140.5875,3103.0
140.59,3104.0
140.5925,3162.0
140.595,3143.0
140.5975,3141.0
140.6,3164.0
140.6025,3176.0
140.605,3173.0
140.6075,3150.0
140.61,3220.0
140.6125,3190.0
140.615,3175.0
140.6175,3166.0
140.62,3207.0
140.6225,3203.0
140.625,3185.0
140.6275,3255.0
140.63,3192.0
140.6325,3181.0
140.635,3180.0
140.6375,3182.0
140.64,3207.0
140.6425,3174.0
140.645,3240.0
140.6475,3173.0
140.65,3153.0
140.6525,3136.0
140.655,3137.0
140.6575,3133.0
140.66,3146.0
140.6625,3264.0
140.665,3292.0
140.6675,3347.0
140.67,3328.0
140.6725,3215.0
140.675,3036.0
140.6775,2792.0
140.68,2589.0
140.6825,2201.0
140.685,2121.0
140.6875,2602.0
140.69,3245.0
140.6925,3749.0
140.695,3859.0
140.6975,4164.0
140.7,4319.0
140.7025,4415.0
140.705,4451.0
140.7075,4533.0
140.71,4545.0
140.7125,4330.0
140.715,4260.0
140.7175,4057.0
140.72,3925.0
140.7225,3782.0
140.725,3650.0
140.7275,3524.0
140.73,3403.0
140.7325,3265.0
140.735,3023.0
140.7375,2896.0
140.74,2809.0
140.7425,2738.0
140.745,2697.0
140.7475,2688.0
140.75,2756.0
140.7525,2713.0
140.755,2698.0
140.7575,2724.0
140.76,2746.0
140.7625,2724.0
140.765,2686.0
140.7675,2736.0
140.77,2708.0
140.7725,2685.0
140.775,2698.0
140.7775,2706.0
140.78,2729.0
140.7825,2740.0
140.785,2774.0
140.7875,2722.0
140.79,2721.0
140.7925,2754.0
140.795,2766.0
140.7975,2773.0
140.8,2793.0
140.8025,2858.0
140.805,2790.0
140.8075,2798.0
140.81,2794.0
140.8125,2823.0
140.815,2805.0
140.8175,2807.0
140.82,2885.0
140.8225,2849.0
140.825,2781.0
140.8275,2788.0
140.83,2794.0
140.8325,2786.0
140.835,2781.0
140.8375,2841.0
140.84,2813.0
140.8425,2829.0
140.845,2788.0
140.8475,2819.0
140.85,2802.0
140.8525,2787.0
140.855,2830.0
140.8575,2781.0
140.86,2785.0
140.8625,2805.0
140.865,2805.0
140.8675,2799.0
140.87,2805.0
140.8725,2843.0
140.875,2817.0
140.8775,2827.0
140.88,2849.0
140.8825,2871.0
140.885,2848.0
140.8875,2863.0
140.89,2926.0
140.8925,2898.0
140.895,2888.0
140.8975,2926.0
140.9,2962.0
140.9025,2993.0
140.905,3000.0
140.9075,3068.0
140.91,3052.0
140.9125,3081.0
140.915,3098.0
140.9175,3144.0
140.92,3166.0
140.9225,3215.0
140.925,3276.0
140.9275,3228.0
140.93,3237.0
140.9325,3253.0
140.935,3255.0
140.9375,3266.0
140.94,3270.0
140.9425,3358.0
140.945,3274.0
140.9475,3288.0
140.95,3291.0
140.9525,3312.0
140.955,3309.0
140.9575,3325.0
140.96,3407.0
140.9625,3400.0
140.965,3367.0
140.9675,3361.0
140.97,3381.0
140.9725,3356.0
140.975,3347.0
140.9775,3405.0
140.98,3325.0
140.9825,3295.0
140.985,3262.0
140.9875,3273.0
140.99,3252.0
140.9925,3250.0
140.995,3318.0
140.9975,3252.0
141.0,3229.0
141.0025,3200.0
141.005,3207.0
141.0075,3191.0
141.01,3197.0
141.0125,3281.0
141.015,3215.0
141.0175,3203.0
141.02,3208.0
141.0225,3212.0
141.025,3194.0
141.0275,3179.0
141.03,3247.0
141.0325,3202.0
141.035,3182.0
141.0375,3173.0
141.04,3184.0
141.0425,3185.0
141.045,3165.0
141.0475,3222.0
141.05,3150.0
141.0525,3143.0
141.055,3127.0
141.0575,3163.0
141.06,3183.0
141.0625,3185.0
141.065,3238.0
141.0675,3203.0
141.07,3209.0
141.0725,3195.0
141.075,3203.0
141.0775,3185.0
141.08,3180.0
141.0825,3256.0
141.085,3206.0
141.0875,3190.0
141.09,3194.0
141.0925,3231.0
141.095,3197.0
141.0975,3181.0
141.1,3252.0
141.1025,3211.0
141.105,3198.0
141.1075,3194.0
141.11,3231.0
141.1125,3230.0
141.115,3205.0
141.1175,3288.0
141.12,3252.0
141.1225,3260.0
141.125,3253.0
141.1275,3260.0
141.13,3248.0
141.1325,3239.0
141.135,3297.0
141.1375,3240.0
141.14,3226.0
141.1425,3228.0
141.145,3246.0
141.1475,3209.0
141.15,3212.0
141.1525,3235.0
141.155,3175.0
141.1575,3158.0
141.16,3175.0
141.1625,3188.0
141.165,3171.0
141.1675,3162.0
141.17,3205.0
141.1725,3149.0
141.175,3156.0
141.1775,3133.0
141.18,3160.0
141.1825,3186.0
141.185,3211.0
141.1875,3230.0
141.19,3196.0
141.1925,3187.0
141.195,3197.0
141.1975,3196.0
141.2,3188.0
141.2025,3179.0
141.205,3265.0
141.2075,3198.0
141.21,3190.0
141.2125,3179.0
141.215,3195.0
141.2175,3185.0
141.22,3183.0
141.2225,3240.0
141.225,3216.0
141.2275,3196.0
141.23,3192.0
141.2325,3149.0
141.235,3187.0
141.2375,3182.0
141.24,3230.0
141.2425,3197.0
141.245,3187.0
141.2475,3147.0
141.25,3167.0
141.2525,3164.0
141.255,3151.0
141.2575,3203.0
141.26,3171.0
141.2625,3164.0
141.265,3162.0
141.2675,3126.0
141.27,3107.0
141.2725,3112.0
141.275,3195.0
141.2775,3147.0
141.28,3153.0
141.2825,3172.0
141.285,3204.0
141.2875,3162.0
141.29,3151.0
141.2925,3206.0
141.295,3157.0
141.2975,3131.0
141.3,3145.0
141.3025,3185.0
141.305,3209.0
141.3075,3157.0
141.31,3223.0
141.3125,3161.0
141.315,3146.0
141.3175,3113.0
141.32,3123.0
141.3225,3122.0
141.325,3099.0
141.3275,3124.0
141.33,3055.0
141.3325,3064.0
141.335,3078.0
141.3375,3109.0
141.34,3111.0
141.3425,3080.0
141.345,3153.0
141.3475,3083.0
141.35,3084.0
141.3525,3079.0
141.355,3114.0
141.3575,3115.0
141.36,3109.0
141.3625,3193.0
141.365,3162.0
141.3675,3136.0
141.37,3124.0
141.3725,3150.0
141.375,3158.0
141.3775,3151.0
141.38,3227.0
141.3825,3183.0
141.385,3209.0
141.3875,3193.0
141.39,3208.0
141.3925,3194.0
141.395,3160.0
141.3975,3213.0
141.4,3158.0
141.4025,3175.0
141.405,3215.0
141.4075,3208.0
141.41,3211.0
141.4125,3218.0
141.415,3272.0
141.4175,3203.0
141.42,3199.0
141.4225,3201.0
141.425,3231.0
141.4275,3187.0
141.43,3180.0
141.4325,3249.0
141.435,3181.0
141.4375,3174.0
141.44,3163.0
141.4425,3202.0
141.445,3277.0
141.4475,3309.0
141.45,3365.0
141.4525,3206.0
141.455,3017.0
141.4575,2815.0
141.46,2575.0
141.4625,2220.0
141.465,2008.0
141.4675,2279.0
141.47,2844.0
141.4725,3397.0
141.475,3666.0
141.4775,3933.0
141.48,4132.0
141.4825,4324.0
141.485,4477.0
141.4875,4447.0
141.49,4496.0
141.4925,4427.0
141.495,4226.0
141.4975,4071.0
141.5,3969.0
141.5025,3937.0
141.505,3770.0
141.5075,3645.0
141.51,3518.0
141.5125,3375.0
141.515,3163.0
141.5175,3007.0
141.52,2955.0
141.5225,2818.0
141.525,2762.0
141.5275,2725.0
141.53,2725.0
141.5325,2715.0
141.535,2720.0
141.5375,2791.0
141.54,2762.0
141.5425,2763.0
141.545,2777.0
141.5475,2789.0
141.55,2774.0
141.5525,2776.0
141.555,2843.0
141.5575,2832.0
141.56,2791.0
141.5625,2798.0
141.565,2796.0
141.5675,2781.0
141.57,2757.0
141.5725,2782.0
141.575,2730.0
141.5775,2704.0
141.58,2694.0
141.5825,2695.0
141.585,2688.0
141.5875,2671.0
141.59,2712.0
141.5925,2643.0
141.595,2670.0
141.5975,2665.0
141.6,2668.0
141.6025,2681.0
141.605,2666.0
141.6075,2745.0
141.61,2689.0
141.6125,2673.0
141.615,2678.0
141.6175,2700.0
141.62,2677.0
141.6225,2669.0
141.625,2726.0
141.6275,2686.0
141.63,2651.0
141.6325,2657.0
141.635,2677.0
141.6375,2685.0
141.64,2675.0
141.6425,2727.0
141.645,2690.0
141.6475,2694.0
141.65,2663.0
141.6525,2672.0
141.655,2675.0
141.6575,2675.0
141.66,2767.0
141.6625,2754.0
141.665,2798.0
141.6675,2830.0
141.67,2839.0
141.6725,2862.0
141.675,2895.0
141.6775,2982.0
141.68,2963.0
141.6825,2984.0
141.685,3026.0
141.6875,3063.0
141.69,3082.0
141.6925,3123.0
141.695,3236.0
141.6975,3223.0
141.7,3254.0
141.7025,3293.0
141.705,3365.0
141.7075,3399.0
141.71,3380.0
141.7125,3457.0
141.715,3424.0
141.7175,3431.0
141.72,3433.0
141.7225,3464.0
141.725,3469.0
141.7275,3490.0
141.73,3522.0
141.7325,3478.0
141.735,3477.0
141.7375,3467.0
141.74,3481.0
141.7425,3479.0
141.745,3469.0
141.7475,3565.0
141.75,3469.0
141.7525,3469.0
141.755,3456.0
141.7575,3452.0
141.76,3447.0
141.7625,3471.0
141.765,3556.0
141.7675,3509.0
141.77,3478.0
141.7725,3473.0
141.775,3487.0
141.7775,3461.0
141.78,3444.0
141.7825,3496.0
141.785,3432.0
141.7875,3456.0
141.79,3426.0
141.7925,3447.0
141.795,3418.0
141.7975,3407.0
141.8,3464.0
141.8025,3396.0
141.805,3395.0
141.8075,3394.0
141.81,3370.0
141.8125,3389.0
141.815,3378.0
141.8175,3428.0
141.82,3379.0
141.8225,3352.0
141.825,3350.0
141.8275,3382.0
141.83,3334.0
141.8325,3320.0
141.835,3374.0
141.8375,3315.0
141.84,3288.0
141.8425,3286.0
141.845,3309.0
141.8475,3333.0
141.85,3297.0
141.8525,3359.0
141.855,3307.0
141.8575,3290.0
141.86,3296.0
141.8625,3315.0
141.865,3293.0
141.8675,3350.0
141.87,3383.0
141.8725,3335.0
141.875,3298.0
141.8775,3310.0
141.88,3327.0
141.8825,3305.0
141.885,3293.0
141.8875,3391.0
141.89,3319.0
141.8925,3294.0
141.895,3280.0
141.8975,3286.0
141.9,3288.0
141.9025,3271.0
141.905,3342.0
141.9075,3305.0
141.91,3267.0
141.9125,3239.0
141.915,3291.0
141.9175,3281.0
141.92,3270.0
141.9225,3330.0
141.925,3296.0
141.9275,3294.0
141.93,3277.0
141.9325,3293.0
141.935,3292.0
141.9375,3289.0
141.94,3328.0
141.9425,3285.0
141.945,3278.0
141.9475,3287.0
141.95,3281.0
141.9525,3269.0
141.955,3252.0
141.9575,3320.0
141.96,3255.0
141.9625,3252.0
141.965,3261.0
141.9675,3307.0
141.97,3297.0
141.9725,3270.0
141.975,3316.0
141.9775,3257.0
141.98,3267.0
141.9825,3252.0
141.985,3273.0
141.9875,3275.0
141.99,3263.0
141.9925,3339.0
141.995,3294.0
141.9975,3274.0
142.0,3248.0
142.0025,3261.0
142.005,3260.0
142.0075,3271.0
142.01,3340.0
142.0125,3255.0
142.015,3256.0
142.0175,3246.0
142.02,3256.0
142.0225,3245.0
142.025,3245.0
142.0275,3323.0
142.03,3295.0
142.0325,3265.0
142.035,3268.0
142.0375,3300.0
142.04,3283.0
142.0425,3264.0
142.045,3366.0
142.0475,3293.0
142.05,3276.0
142.0525,3261.0
142.055,3308.0
142.0575,3270.0
142.06,3255.0
142.0625,3295.0
142.065,3261.0
142.0675,3262.0
142.07,3252.0
142.0725,3239.0
142.075,3223.0
142.0775,3226.0
142.08,3280.0
142.0825,3225.0
142.085,3220.0
142.0875,3193.0
142.09,3190.0
142.0925,3170.0
142.095,3123.0
142.0975,3165.0
142.1,3114.0
142.1025,3126.0
142.105,3118.0
142.1075,3134.0
142.11,3154.0
142.1125,3102.0
142.115,3172.0
142.1175,3128.0
142.12,3132.0
142.1225,3151.0
142.125,3176.0
142.1275,3177.0
142.13,3147.0
142.1325,3194.0
142.135,3174.0
142.1375,3175.0
142.14,3177.0
142.1425,3174.0
142.145,3186.0
142.1475,3176.0
142.15,3263.0
142.1525,3219.0
142.155,3201.0
142.1575,3186.0
142.16,3200.0
142.1625,3174.0
142.165,3158.0
142.1675,3247.0
142.17,3203.0
142.1725,3193.0
142.175,3187.0
142.1775,3182.0
142.18,3190.0
142.1825,3178.0
142.185,3225.0
142.1875,3162.0
142.19,3166.0
142.1925,3124.0
142.195,3144.0
142.1975,3135.0
142.2,3145.0
142.2025,3211.0
142.205,3151.0
142.2075,3150.0
142.21,3170.0
142.2125,3167.0
142.215,3215.0
142.2175,3277.0
142.22,3394.0
142.2225,3293.0
142.225,3101.0
142.2275,2912.0
142.23,2672.0
142.2325,2357.0
142.235,2079.0
142.2375,2333.0
142.24,2907.0
142.2425,3530.0
142.245,3859.0
142.2475,4023.0
142.25,4224.0
142.2525,4381.0
142.255,4504.0
142.2575,4495.0
142.26,4527.0
142.2625,4470.0
142.265,4284.0
142.2675,4144.0
142.27,4046.0
142.2725,3969.0
142.275,3728.0
142.2775,3593.0
142.28,3480.0
142.2825,3316.0
142.285,3082.0
142.2875,2926.0
142.29,2870.0
142.2925,2713.0
142.295,2651.0
142.2975,2649.0
142.3,2675.0
142.3025,2649.0
142.305,2653.0
142.3075,2711.0
142.31,2695.0
142.3125,2656.0
142.315,2666.0
142.3175,2695.0
142.32,2692.0
142.3225,2691.0
142.325,2745.0
142.3275,2697.0
142.33,2713.0
142.3325,2720.0
142.335,2727.0
142.3375,2723.0
142.34,2731.0
142.3425,2780.0
142.345,2747.0
142.3475,2734.0
142.35,2749.0
142.3525,2754.0
142.355,2755.0
142.3575,2752.0
142.36,2807.0
142.3625,2769.0
142.365,2746.0
142.3675,2756.0
142.37,2783.0
142.3725,2734.0
142.375,2707.0
142.3775,2780.0
142.38,2743.0
142.3825,2729.0
142.385,2736.0
142.3875,2741.0
142.39,2750.0
142.3925,2741.0
142.395,2755.0
142.3975,2725.0
142.4,2703.0
142.4025,2706.0
142.405,2708.0
142.4075,2717.0
142.41,2703.0
142.4125,2752.0
142.415,2716.0
142.4175,2714.0
142.42,2723.0
142.4225,2733.0
142.425,2718.0
142.4275,2733.0
142.43,2812.0
142.4325,2768.0
142.435,2745.0
142.4375,2750.0
142.44,2769.0
142.4425,2774.0
142.445,2783.0
142.4475,2852.0
142.45,2840.0
142.4525,2841.0
142.455,2877.0
142.4575,2927.0
142.46,2957.0
142.4625,2968.0
142.465,3045.0
142.4675,3071.0
142.47,3074.0
142.4725,3081.0
142.475,3115.0
142.4775,3128.0
142.48,3143.0
142.4825,3228.0
142.485,3176.0
142.4875,3183.0
142.49,3208.0
142.4925,3235.0
142.495,3235.0
142.4975,3231.0
142.5,3317.0
142.5025,3275.0
142.505,3269.0
142.5075,3283.0
142.51,3326.0
142.5125,3328.0
142.515,3321.0
142.5175,3380.0
142.52,3339.0
142.5225,3319.0
142.525,3313.0
142.5275,3341.0
142.53,3352.0
142.5325,3353.0
142.535,3399.0
142.5375,3357.0
142.54,3345.0
142.5425,3342.0
142.545,3346.0
142.5475,3327.0
142.55,3329.0
142.5525,3401.0
142.555,3308.0
142.5575,3305.0
142.56,3319.0
142.5625,3348.0
142.565,3326.0
142.5675,3321.0
142.57,3387.0
142.5725,3349.0
142.575,3346.0
142.5775,3329.0
142.58,3336.0
142.5825,3306.0
142.585,3302.0
142.5875,3377.0
142.59,3352.0
142.5925,3339.0
142.595,3342.0
142.5975,3662.0
142.6,3783.0
142.6025,3819.0
142.605,3939.0
142.6075,3879.0
142.61,3887.0
142.6125,3902.0
142.615,3890.0
142.6175,3861.0
142.62,3865.0
142.6225,3996.0
142.625,3956.0
142.6275,4022.0
142.63,4142.0
142.6325,4249.0
142.635,4269.0
142.6375,4293.0
142.64,4387.0
142.6425,4333.0
142.645,4335.0
142.6475,4350.0
142.65,4333.0
142.6525,4335.0
142.655,4281.0
142.6575,4346.0
142.66,4264.0
142.6625,4219.0
142.665,4177.0
142.6675,4182.0
142.67,4161.0
142.6725,4187.0
142.675,4240.0
142.6775,4164.0
142.68,4181.0
142.6825,4165.0
142.685,4160.0
142.6875,4119.0
142.69,4141.0
142.6925,4232.0
142.695,4114.0
142.6975,4086.0
142.7,4057.0
142.7025,4070.0
142.705,4100.0
142.7075,4166.0
142.71,4355.0
142.7125,4335.0
142.715,4302.0
142.7175,4313.0
142.72,4292.0
142.7225,4255.0
142.725,4219.0
142.7275,4282.0
142.73,4178.0
142.7325,4172.0
142.735,4127.0
142.7375,4107.0
142.74,4059.0
142.7425,4047.0
142.745,4098.0
142.7475,4005.0
142.75,3964.0
142.7525,3934.0
142.755,3893.0
142.7575,3851.0
142.76,3815.0
142.7625,3873.0
142.765,3782.0
142.7675,3737.0
142.77,3692.0
142.7725,3661.0
142.775,3614.0
142.7775,3592.0
142.78,3650.0
142.7825,3573.0
142.785,3537.0
142.7875,3493.0
142.79,3474.0
142.7925,3453.0
142.795,3419.0
142.7975,3452.0
142.8,3371.0
142.8025,3343.0
142.805,3325.0
142.8075,3308.0
142.81,3278.0
142.8125,3273.0
142.815,3306.0
142.8175,3219.0
142.82,3194.0
142.8225,3199.0
142.825,3191.0
142.8275,3162.0
142.83,3140.0
142.8325,3218.0
142.835,3155.0
142.8375,3092.0
142.84,3082.0
142.8425,3083.0
142.845,3056.0
142.8475,3038.0
142.85,3088.0
142.8525,3046.0
142.855,3030.0
142.8575,3018.0
142.86,3016.0
142.8625,2994.0
142.865,2970.0
142.8675,3002.0
142.87,2932.0
142.8725,2913.0
142.875,2888.0
142.8775,2869.0
142.88,2848.0
142.8825,2800.0
142.885,2844.0
142.8875,2816.0
142.89,2821.0
142.8925,2845.0
142.895,2845.0
142.8975,2793.0
142.9,2790.0
142.9025,2845.0
142.905,2819.0
142.9075,2789.0
142.91,2794.0
142.9125,2803.0
142.915,2777.0
142.9175,2760.0
142.92,2842.0
142.9225,2810.0
142.925,2797.0
142.9275,2781.0
142.93,2831.0
142.9325,2841.0
142.935,2845.0
142.9375,2894.0
142.94,2847.0
142.9425,2828.0
142.945,2841.0
142.9475,2841.0
142.95,2818.0
142.9525,2827.0
142.955,2885.0
142.9575,2811.0
142.96,2823.0
142.9625,2823.0
142.965,2836.0
142.9675,2832.0
142.97,2824.0
142.9725,2865.0
142.975,2803.0
142.9775,2770.0
142.98,2769.0
142.9825,2768.0
142.985,2759.0
142.9875,2759.0
142.99,2802.0
142.9925,2784.0
142.995,2797.0
142.9975,2816.0
143.0,2919.0
143.0025,2977.0
143.005,3002.0
143.0075,2972.0
143.01,2764.0
143.0125,2495.0
143.015,2231.0
143.0175,1930.0
143.02,1868.0
143.0225,2245.0
143.025,2955.0
143.0275,3511.0
143.03,3617.0
143.0325,3742.0
143.035,3938.0
143.0375,3997.0
143.04,4099.0
143.0425,4243.0
143.045,4162.0
143.0475,3980.0
143.05,3837.0
143.0525,3757.0
143.055,3602.0
143.0575,3405.0
143.06,3339.0
143.0625,3147.0
143.065,2989.0
143.0675,2763.0
143.07,2628.0
143.0725,2500.0
143.075,2411.0
143.0775,2352.0
143.08,2308.0
143.0825,2296.0
143.085,2299.0
143.0875,2313.0
143.09,2320.0
143.0925,2340.0
143.095,2397.0
143.0975,2336.0
143.1,2369.0
143.1025,2388.0
143.105,2396.0
143.1075,2373.0
143.11,2385.0
143.1125,2457.0
143.115,2443.0
143.1175,2421.0
143.12,2428.0
143.1225,2437.0
143.125,2414.0
143.1275,2412.0
143.13,2474.0
143.1325,2455.0
143.135,2465.0
143.1375,2453.0
143.14,2454.0
143.1425,2473.0
143.145,2464.0
143.1475,2522.0
143.15,2494.0
143.1525,2505.0
143.155,2516.0
143.1575,2505.0
143.16,2515.0
143.1625,2520.0
143.165,2571.0
143.1675,2536.0
143.17,2525.0
143.1725,2520.0
143.175,2556.0
143.1775,2525.0
143.18,2510.0
143.1825,2561.0
143.185,2539.0
143.1875,2524.0
143.19,2520.0
143.1925,2549.0
143.195,2563.0
143.1975,2518.0
143.2,2565.0
143.2025,2537.0
143.205,2543.0
143.2075,2544.0
143.21,2570.0
143.2125,2585.0
143.215,2629.0
143.2175,2660.0
143.22,2643.0
143.2225,2645.0
143.225,2651.0
143.2275,2684.0
143.23,2708.0
143.2325,2738.0
143.235,2842.0
143.2375,2774.0
143.24,2790.0
143.2425,2803.0
143.245,2847.0
143.2475,2873.0
143.25,2912.0
143.2525,2998.0
143.255,2993.0
143.2575,2989.0
143.26,2996.0
143.2625,3039.0
143.265,3054.0
143.2675,3048.0
143.27,3115.0
143.2725,3103.0
143.275,3145.0
143.2775,3131.0
143.28,3153.0
143.2825,3147.0
143.285,3155.0
143.2875,3224.0
143.29,3161.0
143.2925,3162.0
143.295,3188.0
143.2975,3189.0
143.3,3160.0
143.3025,3164.0
143.305,3262.0
143.3075,3207.0
143.31,3199.0
143.3125,3203.0
143.315,3247.0
143.3175,3204.0
143.32,3224.0
143.3225,3272.0
143.325,3219.0
143.3275,3216.0
143.33,3210.0
143.3325,3238.0
143.335,3240.0
143.3375,3211.0
143.34,3275.0
143.3425,3201.0
143.345,3199.0
143.3475,3203.0
143.35,3206.0
143.3525,3191.0
143.355,3204.0
143.3575,3277.0
143.36,3226.0
143.3625,3201.0
143.365,3192.0
143.3675,3202.0
143.37,3174.0
143.3725,3186.0
143.375,3263.0
143.3775,3216.0
143.38,3195.0
143.3825,3176.0
143.385,3174.0
143.3875,3136.0
143.39,3081.0
143.3925,3145.0
143.395,3138.0
143.3975,3142.0
143.4,3124.0
143.4025,3157.0
143.405,3126.0
143.4075,3118.0
143.41,3176.0
143.4125,3136.0
143.415,3143.0
143.4175,3123.0
143.42,3126.0
143.4225,3150.0
143.425,3154.0
143.4275,3203.0
143.43,3132.0
143.4325,3120.0
143.435,3107.0
143.4375,3099.0
143.44,3075.0
143.4425,3092.0
143.445,3147.0
143.4475,3086.0
143.45,3082.0
143.4525,3080.0
143.455,3105.0
143.4575,3099.0
143.46,3084.0
143.4625,3135.0
143.465,3099.0
143.4675,3098.0
143.47,3098.0
143.4725,3111.0
143.475,3126.0
143.4775,3132.0
143.48,3178.0
143.4825,3121.0
143.485,3099.0
143.4875,3086.0
143.49,3108.0
143.4925,3114.0
143.495,3133.0
143.4975,3220.0
143.5,3126.0
143.5025,3118.0
143.505,3111.0
143.5075,3144.0
143.51,3118.0
143.5125,3103.0
143.515,3192.0
143.5175,3172.0
143.52,3147.0
143.5225,3131.0
143.525,3152.0
143.5275,3134.0
143.53,3108.0
143.5325,3162.0
143.535,3128.0
143.5375,3141.0
143.54,3126.0
143.5425,3139.0
143.545,3138.0
143.5475,3121.0
143.55,3175.0
143.5525,3117.0
143.555,3107.0
143.5575,3134.0
143.56,3134.0
143.5625,3130.0
143.565,3157.0
143.5675,3198.0
143.57,3142.0
143.5725,3138.0
143.575,3144.0
143.5775,3196.0
143.58,3161.0
143.5825,3180.0
143.585,3256.0
143.5875,3179.0
143.59,3164.0
143.5925,3143.0
143.595,3160.0
143.5975,3180.0
143.6,3136.0
143.6025,3198.0
143.605,3138.0
143.6075,3133.0
143.61,3135.0
143.6125,3141.0
143.615,3139.0
143.6175,3141.0
143.62,3188.0
143.6225,3131.0
143.625,3130.0
143.6275,3138.0
143.63,3133.0
143.6325,3137.0
143.635,3138.0
143.6375,3234.0
143.64,3149.0
143.6425,3143.0
143.645,3140.0
143.6475,3143.0
143.65,3141.0
143.6525,3135.0
143.655,3203.0
143.6575,3152.0
143.66,3129.0
143.6625,3142.0
143.665,3159.0
143.6675,3146.0
143.67,3120.0
143.6725,3191.0
143.675,3154.0
143.6775,3161.0
143.68,3143.0
143.6825,3152.0
143.685,3139.0
143.6875,3123.0
143.69,3198.0
143.6925,3175.0
143.695,3157.0
143.6975,3136.0
143.7,3115.0
143.7025,3101.0
143.705,3094.0
143.7075,3155.0
143.71,3067.0
143.7125,3042.0
143.715,3042.0
143.7175,3096.0
143.72,3085.0
143.7225,3079.0
143.725,3150.0
143.7275,3093.0
143.73,3069.0
143.7325,3060.0
143.735,3120.0
143.7375,3113.0
143.74,3098.0
143.7425,3164.0
143.745,3105.0
143.7475,3108.0
143.75,3109.0
143.7525,3122.0
143.755,3122.0
143.7575,3167.0
143.76,3246.0
143.7625,3180.0
143.765,3172.0
143.7675,3185.0
143.77,3185.0
143.7725,3181.0
143.775,3181.0
143.7775,3259.0
143.78,3197.0
143.7825,3167.0
143.785,3164.0
143.7875,3170.0
143.79,3154.0
143.7925,3158.0
143.795,3239.0
143.7975,3225.0
143.8,3195.0
143.8025,3173.0
143.805,3171.0
143.8075,3168.0
143.81,3165.0
143.8125,3229.0
143.815,3181.0
143.8175,3189.0
143.82,3174.0
143.8225,3171.0
143.825,3161.0
143.8275,3184.0
143.83,3307.0
143.8325,3330.0
143.835,3375.0
143.8375,3352.0
143.84,3205.0
143.8425,2983.0
143.845,2732.0
143.8475,2449.0
143.85,2207.0
143.8525,2492.0
143.855,3121.0
143.8575,3767.0
143.86,3901.0
143.8625,4010.0
143.865,4247.0
143.8675,4318.0
143.87,4356.0
143.8725,4460.0
143.875,4480.0
143.8775,4393.0
143.88,4231.0
143.8825,4182.0
143.885,3960.0
143.8875,3773.0
143.89,3638.0
143.8925,3541.0
143.895,3410.0
143.8975,3198.0
143.9,3062.0
143.9025,2885.0
143.905,2766.0
143.9075,2686.0
143.91,2683.0
143.9125,2654.0
143.915,2660.0
143.9175,2721.0
143.92,2681.0
143.9225,2683.0
143.925,2672.0
143.9275,2687.0
143.93,2693.0
143.9325,2692.0
143.935,2759.0
143.9375,2732.0
143.94,2731.0
143.9425,2740.0
143.945,2748.0
143.9475,2742.0
143.95,2753.0
143.9525,2826.0
143.955,2801.0
143.9575,2804.0
143.96,2808.0
143.9625,2808.0
143.965,2820.0
143.9675,2820.0
143.97,2873.0
143.9725,2828.0
143.975,2823.0
143.9775,2831.0
143.98,2854.0
143.9825,2849.0
143.985,2858.0
143.9875,2926.0
143.99,2888.0
143.9925,2883.0
143.995,2891.0
143.9975,2894.0
144.0,2878.0
144.0025,2846.0
144.005,2905.0
144.0075,2843.0
144.01,2844.0
144.0125,2840.0
144.015,2846.0
144.0175,2845.0
144.02,2841.0
144.0225,2877.0
144.025,2808.0
144.0275,2797.0
144.03,2805.0
144.0325,2809.0
144.035,2812.0
144.0375,2818.0
144.04,2894.0
144.0425,2826.0
144.045,2830.0
144.0475,2859.0
144.05,2887.0
144.0525,2889.0
144.055,2899.0
144.0575,2975.0
144.06,2962.0
144.0625,2945.0
144.065,2961.0
144.0675,2986.0
144.07,2986.0
144.0725,3000.0
144.075,3079.0
144.0775,3049.0
144.08,3076.0
144.0825,3077.0
144.085,3113.0
144.0875,3127.0
144.09,3134.0
144.0925,3231.0
144.095,3209.0
144.0975,3202.0
144.1,3228.0
144.1025,3256.0
144.105,3257.0
144.1075,3266.0
144.11,3372.0
144.1125,3304.0
144.115,3308.0
144.1175,3322.0
144.12,3373.0
144.1225,3350.0
144.125,3341.0
144.1275,3405.0
144.13,3334.0
144.1325,3348.0
144.135,3351.0
144.1375,3357.0
144.14,3391.0
144.1425,3354.0
144.145,3429.0
144.1475,3390.0
144.15,3359.0
144.1525,3342.0
144.155,3371.0
144.1575,3350.0
144.16,3352.0
144.1625,3381.0
144.165,3332.0
144.1675,3329.0
144.17,3325.0
144.1725,3339.0
144.175,3353.0
144.1775,3329.0
144.18,3411.0
144.1825,3333.0
144.185,3326.0
144.1875,3338.0
144.19,3347.0
144.1925,3338.0
144.195,3319.0
144.1975,3400.0
144.2,3352.0
144.2025,3302.0
144.205,3301.0
144.2075,3293.0
144.21,3279.0
144.2125,3259.0
144.215,3333.0
144.2175,3274.0
144.22,3306.0
144.2225,3275.0
144.225,3276.0
144.2275,3272.0
144.23,3265.0
144.2325,3342.0
144.235,3286.0
144.2375,3262.0
144.24,3288.0
144.2425,3262.0
144.245,3258.0
144.2475,3247.0
144.25,3327.0
144.2525,3263.0
144.255,3256.0
144.2575,3265.0
144.26,3281.0
144.2625,3248.0
144.265,3238.0
144.2675,3298.0
144.27,3247.0
144.2725,3235.0
144.275,3214.0
144.2775,3217.0
144.28,3218.0
144.2825,3213.0
144.285,3298.0
144.2875,3249.0
144.29,3229.0
144.2925,3232.0
144.295,3249.0
144.2975,3229.0
144.3,3245.0
144.3025,3315.0
144.305,3237.0
144.3075,3227.0
144.31,3226.0
144.3125,3249.0
144.315,3246.0
144.3175,3260.0
144.32,3337.0
144.3225,3283.0
144.325,3276.0
144.3275,3281.0
144.33,3273.0
144.3325,3271.0
144.335,3267.0
144.3375,3340.0
144.34,3303.0
144.3425,3302.0
144.345,3295.0
144.3475,3299.0
144.35,3280.0
144.3525,3281.0
144.355,3334.0
144.3575,3273.0
144.36,3277.0
144.3625,3266.0
144.365,3264.0
144.3675,3244.0
144.37,3226.0
144.3725,3294.0
144.375,3232.0
144.3775,3226.0
144.38,3241.0
144.3825,3252.0
144.385,3250.0
144.3875,3229.0
144.39,3304.0
144.3925,3235.0
144.395,3228.0
144.3975,3215.0
144.4,3247.0
144.4025,3243.0
144.405,3218.0
144.4075,3272.0
144.41,3246.0
144.4125,3207.0
144.415,3182.0
144.4175,3200.0
144.42,3210.0
144.4225,3216.0
144.425,3258.0
144.4275,3204.0
144.43,3202.0
144.4325,3190.0
144.435,3183.0
144.4375,3166.0
144.44,3181.0
144.4425,3249.0
144.445,3176.0
144.4475,3177.0
144.45,3166.0
144.4525,3154.0
144.455,3120.0
144.4575,3111.0
144.46,3198.0
144.4625,3159.0
144.465,3128.0
144.4675,3115.0
144.47,3124.0
144.4725,3086.0
144.475,3094.0
144.4775,3158.0
144.48,3103.0
144.4825,3116.0
144.485,3095.0
144.4875,3115.0
144.49,3114.0
144.4925,3099.0
144.495,3163.0
144.4975,3128.0
144.5,3140.0
144.5025,3140.0
144.505,3113.0
144.5075,3115.0
144.51,3139.0
144.5125,3206.0
144.515,3161.0
144.5175,3159.0
144.52,3146.0
144.5225,3148.0
144.525,3122.0
144.5275,3128.0
144.53,3211.0
144.5325,3152.0
144.535,3137.0
144.5375,3146.0
144.54,3165.0
144.5425,3164.0
144.545,3121.0
144.5475,3199.0
144.55,3145.0
144.5525,3143.0
144.555,3121.0
144.5575,3143.0
144.56,3139.0
144.5625,3147.0
144.565,3183.0
144.5675,3132.0
144.57,3136.0
144.5725,3138.0
144.575,3147.0
144.5775,3164.0
144.58,3137.0
144.5825,3230.0
144.585,3165.0
144.5875,3153.0
144.59,3145.0
144.5925,3183.0
144.595,3168.0
144.5975,3161.0
144.6,3194.0
144.6025,3143.0
144.605,3081.0
144.6075,3077.0
144.61,3096.0
144.6125,3091.0
144.615,3119.0
144.6175,3186.0
144.62,3119.0
144.6225,3128.0
144.625,3109.0
144.6275,3132.0
144.63,3107.0
144.6325,3116.0
144.635,3177.0
144.6375,3115.0
144.64,3109.0
144.6425,3119.0
144.645,3140.0
144.6475,3119.0
144.65,3110.0
144.6525,3193.0
144.655,3147.0
144.6575,3151.0
144.66,3143.0
144.6625,3172.0
144.665,3131.0
144.6675,3141.0
144.67,3197.0
144.6725,3153.0
144.675,3132.0
144.6775,3148.0
144.68,3151.0
144.6825,3178.0
144.685,3171.0
144.6875,3226.0
144.69,3167.0
144.6925,3161.0
144.695,3166.0
144.6975,3189.0
144.7,3182.0
144.7025,3174.0
144.705,3207.0
144.7075,3167.0
144.71,3156.0
144.7125,3146.0
144.715,3166.0
144.7175,3179.0
144.72,3227.0
144.7225,3405.0
144.725,3423.0
144.7275,3412.0
144.73,3303.0
144.7325,3169.0
144.735,2929.0
144.7375,2682.0
144.74,2408.0
144.7425,2281.0
144.745,2716.0
144.7475,3277.0
144.75,3778.0
144.7525,3869.0
144.755,4045.0
144.7575,4316.0
144.76,4363.0
144.7625,4445.0
144.765,4526.0
144.7675,4526.0
144.77,4376.0
144.7725,4179.0
144.775,4127.0
144.7775,3923.0
144.78,3761.0
144.7825,3659.0
144.785,3570.0
144.7875,3448.0
144.79,3275.0
144.7925,3181.0
144.795,2987.0
144.7975,2892.0
144.8,2828.0
144.8025,2813.0
144.805,2789.0
144.8075,2772.0
144.81,2850.0
144.8125,2802.0
144.815,2798.0
144.8175,2794.0
144.82,2800.0
144.8225,2808.0
144.825,2792.0
144.8275,2841.0
144.83,2818.0
144.8325,2825.0
144.835,2828.0
144.8375,2843.0
144.84,2836.0
144.8425,2820.0
144.845,2886.0
144.8475,2841.0
144.85,2847.0
144.8525,2839.0
144.855,2844.0
144.8575,2852.0
144.86,2853.0
144.8625,2918.0
144.865,2874.0
144.8675,2877.0
144.87,2880.0
144.8725,2890.0
144.875,2874.0
144.8775,2863.0
144.88,2932.0
144.8825,2892.0
144.885,2873.0
144.8875,2849.0
144.89,2885.0
144.8925,2864.0
144.895,2850.0
144.8975,2900.0
144.9,2855.0
144.9025,2834.0
144.905,2837.0
144.9075,2822.0
144.91,2823.0
144.9125,2814.0
144.915,2882.0
144.9175,2828.0
144.92,2839.0
144.9225,2834.0
144.925,2854.0
144.9275,2833.0
144.93,2827.0
144.9325,2884.0
144.935,2872.0
144.9375,2864.0
144.94,2880.0
144.9425,2912.0
144.945,2926.0
144.9475,2926.0
144.95,2997.0
144.9525,2974.0
144.955,2985.0
144.9575,2998.0
144.96,3029.0
144.9625,3059.0
144.965,3094.0
144.9675,3163.0
144.97,3119.0
144.9725,3136.0
144.975,3162.0
144.9775,3187.0
144.98,3180.0
144.9825,3192.0
144.985,3312.0
144.9875,3234.0
144.99,3241.0
144.9925,3244.0
144.995,3270.0
144.9975,3251.0
145.0,3278.0
145.0025,3354.0
145.005,3312.0
145.0075,3281.0
145.01,3269.0
145.0125,3321.0
145.015,3308.0
145.0175,3315.0
145.02,3372.0
145.0225,3351.0
145.025,3336.0
145.0275,3338.0
145.03,3352.0
145.0325,3349.0
145.035,3340.0
145.0375,3432.0
145.04,3350.0
145.0425,3348.0
145.045,3367.0
145.0475,3363.0
145.05,3355.0
145.0525,3345.0
145.055,3422.0
145.0575,3364.0
145.06,3345.0
145.0625,3332.0
145.065,3374.0
145.0675,3354.0
145.07,3338.0
145.0725,3425.0
145.075,3358.0
145.0775,3345.0
145.08,3335.0
145.0825,3377.0
145.085,3376.0
145.0875,3330.0
145.09,3386.0
145.0925,3304.0
145.095,3301.0
145.0975,3302.0
145.1,3307.0
145.1025,3303.0
145.105,3309.0
145.1075,3366.0
145.11,3296.0
145.1125,3274.0
145.115,3274.0
145.1175,3289.0
145.12,3280.0
145.1225,3262.0
145.125,3327.0
145.1275,3270.0
145.13,3249.0
145.1325,3245.0
145.135,3254.0
145.1375,3243.0
145.14,3237.0
145.1425,3304.0
145.145,3286.0
145.1475,3252.0
145.15,3244.0
145.1525,3243.0
145.155,3239.0
145.1575,3235.0
145.16,3316.0
145.1625,3253.0
145.165,3243.0
145.1675,3211.0
145.17,3233.0
145.1725,3235.0
145.175,3234.0
145.1775,3284.0
145.18,3229.0
145.1825,3230.0
145.185,3257.0
145.1875,3222.0
145.19,3220.0
145.1925,3203.0
145.195,3264.0
145.1975,3188.0
145.2,3203.0
145.2025,3211.0
145.205,3218.0
145.2075,3198.0
145.21,3187.0
145.2125,3252.0
145.215,3178.0
145.2175,3182.0
145.22,3168.0
145.2225,3179.0
145.225,3197.0
145.2275,3179.0
145.23,3228.0
145.2325,3173.0
145.235,3181.0
145.2375,3192.0
145.24,3195.0
145.2425,3177.0
145.245,3186.0
145.2475,3237.0
145.25,3162.0
145.2525,3161.0
145.255,3158.0
145.2575,3164.0
145.26,3172.0
145.2625,3171.0
145.265,3258.0
145.2675,3181.0
145.27,3167.0
145.2725,3168.0
145.275,3169.0
145.2775,3142.0
145.28,3124.0
145.2825,3191.0
145.285,3148.0
145.2875,3148.0
145.29,3132.0
145.2925,3171.0
145.295,3164.0
145.2975,3161.0
145.3,3222.0
145.3025,3143.0
145.305,3150.0
145.3075,3161.0
145.31,3152.0
145.3125,3167.0
145.315,3130.0
145.3175,3202.0
145.32,3131.0
145.3225,3123.0
145.325,3110.0
145.3275,3126.0
145.33,3098.0
145.3325,3117.0
145.335,3173.0
145.3375,3090.0
145.34,3078.0
145.3425,3084.0
145.345,3103.0
145.3475,3108.0
145.35,3094.0
145.3525,3172.0
145.355,3122.0
145.3575,3092.0
145.36,3098.0
145.3625,3107.0
145.365,3105.0
145.3675,3108.0
145.37,3168.0
145.3725,3110.0
145.375,3084.0
145.3775,3077.0
145.38,3104.0
145.3825,3106.0
145.385,3125.0
145.3875,3208.0
145.39,3127.0
145.3925,3110.0
145.395,3112.0
145.3975,3132.0
145.4,3116.0
145.4025,3093.0
145.405,3160.0
145.4075,3132.0
145.41,3087.0
145.4125,3120.0
145.415,3115.0
145.4175,3119.0
145.42,3119.0
145.4225,3183.0
145.425,3149.0
145.4275,3136.0
145.43,3135.0
145.4325,3130.0
145.435,3139.0
145.4375,3121.0
145.44,3181.0
145.4425,3144.0
145.445,3116.0
145.4475,3133.0
145.45,3120.0
145.4525,3107.0
145.455,3093.0
145.4575,3152.0
145.46,3085.0
145.4625,3102.0
145.465,3104.0
145.4675,3114.0
145.47,3080.0
145.4725,3060.0
145.475,3132.0
145.4775,3076.0
145.48,3072.0
145.4825,3106.0
145.485,3117.0
145.4875,3109.0
145.49,3077.0
145.4925,3156.0
145.495,3102.0
145.4975,3062.0
145.5,3052.0
145.5025,3086.0
145.505,3097.0
145.5075,3127.0
145.51,3193.0
145.5125,3153.0
145.515,3161.0
145.5175,3169.0
145.52,3179.0
145.5225,3177.0
145.525,3156.0
145.5275,3272.0
145.53,3179.0
145.5325,3169.0
145.535,3177.0
145.5375,3182.0
145.54,3178.0
145.5425,3179.0
145.545,3249.0
145.5475,3200.0
145.55,3190.0
145.5525,3178.0
145.555,3202.0
145.5575,3187.0
145.56,3182.0
145.5625,3257.0
145.565,3191.0
145.5675,3193.0
145.57,3175.0
145.5725,3207.0
145.575,3213.0
145.5775,3188.0
145.58,3237.0
145.5825,3177.0
145.585,3176.0
145.5875,3216.0
145.59,3290.0
145.5925,3310.0
145.595,3363.0
145.5975,3381.0
145.6,3146.0
145.6025,2961.0
145.605,2727.0
145.6075,2469.0
145.61,2152.0
145.6125,2223.0
145.615,2778.0
145.6175,3293.0
145.62,3651.0
145.6225,3844.0
145.625,4089.0
145.6275,4257.0
145.63,4395.0
145.6325,4542.0
145.635,4541.0
145.6375,4502.0
145.64,4318.0
145.6425,4105.0
145.645,3989.0
145.6475,3931.0
145.65,3921.0
145.6525,3708.0
145.655,3587.0
145.6575,3466.0
145.66,3343.0
145.6625,3138.0
145.665,2979.0
145.6675,2975.0
145.67,2842.0
145.6725,2753.0
145.675,2757.0
145.6775,2742.0
145.68,2741.0
145.6825,2755.0
145.685,2804.0
145.6875,2773.0
145.69,2735.0
145.6925,2728.0
145.695,2754.0
145.6975,2750.0
145.7,2728.0
145.7025,2788.0
145.705,2752.0
145.7075,2771.0
145.71,2783.0
145.7125,2763.0
145.715,2762.0
145.7175,2770.0
145.72,2815.0
145.7225,2770.0
145.725,2778.0
145.7275,2811.0
145.73,2824.0
145.7325,2816.0
145.735,2825.0
145.7375,2877.0
145.74,2834.0
145.7425,2835.0
145.745,2830.0
145.7475,2868.0
145.75,2861.0
145.7525,2824.0
145.755,2889.0
145.7575,2847.0
145.76,2814.0
145.7625,2817.0
145.765,2816.0
145.7675,2846.0
145.77,2841.0
145.7725,2865.0
145.775,2805.0
145.7775,2798.0
145.78,2790.0
145.7825,2795.0
145.785,2773.0
145.7875,2771.0
145.79,2838.0
145.7925,2789.0
145.795,2781.0
145.7975,2782.0
145.8,2800.0
145.8025,2796.0
145.805,2815.0
145.8075,2869.0
145.81,2855.0
145.8125,2836.0
145.815,2858.0
145.8175,2877.0
145.82,2877.0
145.8225,2899.0
145.825,2984.0
145.8275,2961.0
145.83,2983.0
145.8325,2973.0
145.835,3014.0
145.8375,3026.0
145.84,3048.0
145.8425,3153.0
145.845,3140.0
145.8475,3169.0
145.85,3169.0
145.8525,3181.0
145.855,3190.0
145.8575,3201.0
145.86,3291.0
145.8625,3236.0
145.865,3249.0
145.8675,3259.0
145.87,3291.0
145.8725,3294.0
145.875,3268.0
145.8775,3345.0
145.88,3279.0
145.8825,3271.0
145.885,3269.0
145.8875,3314.0
145.89,3316.0
145.8925,3317.0
145.895,3375.0
145.8975,3299.0
145.9,3291.0
145.9025,3306.0
145.905,3340.0
145.9075,3324.0
145.91,3334.0
145.9125,3375.0
145.915,3319.0
145.9175,3300.0
145.92,3309.0
145.9225,3316.0
145.925,3311.0
145.9275,3316.0
145.93,3382.0
145.9325,3305.0
145.935,3282.0
145.9375,3271.0
145.94,3304.0
145.9425,3290.0
145.945,3307.0
145.9475,3365.0
145.95,3311.0
145.9525,3272.0
145.955,3278.0
145.9575,3284.0
145.96,3268.0
145.9625,3258.0
145.965,3326.0
145.9675,3271.0
145.97,3272.0
145.9725,3240.0
145.975,3253.0
145.9775,3227.0
145.98,3237.0
145.9825,3310.0
145.985,3255.0
145.9875,3241.0
145.99,3256.0
145.9925,3246.0
145.995,3253.0
145.9975,3252.0
146.0,3330.0
146.0025,3245.0
146.005,3218.0
146.0075,3208.0
146.01,3235.0
146.0125,3223.0
146.015,3211.0
146.0175,3276.0
146.02,3229.0
146.0225,3207.0
146.025,3220.0
146.0275,3239.0
146.03,3275.0
146.0325,3231.0
146.035,3310.0
146.0375,3236.0
146.04,3238.0
146.0425,3224.0
146.045,3237.0
146.0475,3229.0
146.05,3240.0
146.0525,3294.0
146.055,3233.0
146.0575,3218.0
146.06,3222.0
146.0625,3219.0
146.065,3222.0
146.0675,3226.0
146.07,3319.0
146.0725,3225.0
146.075,3209.0
146.0775,3225.0
146.08,3228.0
146.0825,3192.0
146.085,3178.0
146.0875,3263.0
146.09,3226.0
146.0925,3192.0
146.095,3189.0
146.0975,3206.0
146.1,3218.0
146.1025,3188.0
146.105,3254.0
146.1075,3204.0
146.11,3222.0
146.1125,3218.0
146.115,3224.0
146.1175,3205.0
146.12,3192.0
146.1225,3240.0
146.125,3189.0
146.1275,3189.0
146.13,3185.0
146.1325,3178.0
146.135,3167.0
146.1375,3167.0
146.14,3223.0
146.1425,3176.0
146.145,3171.0
146.1475,3169.0
146.15,3177.0
146.1525,3183.0
146.155,3153.0
146.1575,3211.0
146.16,3134.0
146.1625,3143.0
146.165,3149.0
146.1675,3165.0
146.17,3166.0
146.1725,3149.0
146.175,3198.0
146.1775,3153.0
146.18,3150.0
146.1825,3151.0
146.185,3165.0
146.1875,3160.0
146.19,3176.0
146.1925,3270.0
146.195,3198.0
146.1975,3177.0
146.2,3172.0
146.2025,3156.0
146.205,3206.0
146.2075,3181.0
146.21,3266.0
146.2125,3200.0
146.215,3162.0
146.2175,3172.0
146.22,3159.0
146.2225,3148.0
146.225,3138.0
146.2275,3195.0
146.23,3146.0
146.2325,3123.0
146.235,3107.0
146.2375,3142.0
146.24,3109.0
146.2425,3106.0
146.245,3174.0
146.2475,3110.0
146.25,3109.0
146.2525,3094.0
146.255,3080.0
146.2575,3050.0
146.26,3016.0
146.2625,3103.0
146.265,3033.0
146.2675,3021.0
146.27,3045.0
146.2725,3068.0
146.275,3029.0
146.2775,3023.0
146.28,3110.0
146.2825,3074.0
146.285,3047.0
146.2875,3044.0
146.29,3082.0
146.2925,3094.0
146.295,3069.0
146.2975,3145.0
146.3,3090.0
146.3025,3067.0
146.305,3064.0
146.3075,3097.0
146.31,3110.0
146.3125,3124.0
146.315,3161.0
146.3175,3096.0
146.32,3108.0
146.3225,3079.0
146.325,3082.0
146.3275,3097.0
146.33,3098.0
146.3325,3180.0
146.335,3075.0
146.3375,3078.0
146.34,3065.0
146.3425,3064.0
146.345,3052.0
146.3475,3056.0
146.35,3154.0
146.3525,3139.0
146.355,3090.0
146.3575,3068.0
146.36,3082.0
146.3625,3063.0
146.365,3062.0
146.3675,3108.0
146.37,3080.0
146.3725,3101.0
146.375,3083.0
146.3775,3100.0
146.38,3083.0
146.3825,3108.0
146.385,3165.0
146.3875,3121.0
146.39,3127.0
146.3925,3145.0
146.395,3166.0
146.3975,3174.0
146.4,3166.0
146.4025,3226.0
146.405,3154.0
146.4075,3153.0
146.41,3153.0
146.4125,3185.0
146.415,3149.0
146.4175,3176.0
146.42,3240.0
146.4225,3198.0
146.425,3189.0
146.4275,3192.0
146.43,3208.0
146.4325,3205.0
146.435,3177.0
146.4375,3249.0
146.44,3187.0
146.4425,3160.0
146.445,3140.0
146.4475,3159.0
146.45,3145.0
146.4525,3172.0
146.455,3206.0
146.4575,3164.0
146.46,3220.0
146.4625,3295.0
146.465,3345.0
146.4675,3303.0
146.47,3149.0
146.4725,3077.0
146.475,2772.0
146.4775,2479.0
146.48,2200.0
146.4825,2253.0
146.485,2736.0
146.4875,3341.0
146.49,3859.0
146.4925,3975.0
146.495,4128.0
146.4975,4300.0
146.5,4454.0
146.5025,4506.0
146.505,4598.0
146.5075,4663.0
146.51,4400.0
146.5125,4172.0
146.515,4019.0
146.5175,3945.0
146.52,3821.0
146.5225,3675.0
146.525,3643.0
146.5275,3447.0
146.53,3312.0
146.5325,3145.0
146.535,2994.0
146.5375,2891.0
146.54,2829.0
146.5425,2821.0
146.545,2748.0
146.5475,2727.0
146.55,2737.0
146.5525,2768.0
146.555,2755.0
146.5575,2735.0
146.56,2798.0
146.5625,2777.0
146.565,2765.0
146.5675,2777.0
146.57,2813.0
146.5725,2826.0
146.575,2820.0
146.5775,2854.0
146.58,2836.0
146.5825,2855.0
146.585,2846.0
146.5875,2866.0
146.59,2870.0
146.5925,2845.0
146.595,2927.0
146.5975,2874.0
146.6,2879.0
146.6025,2887.0
146.605,2880.0
146.6075,2866.0
146.61,2857.0
146.6125,2930.0
146.615,2870.0
146.6175,2841.0
146.62,2861.0
146.6225,2873.0
146.625,2858.0
146.6275,2849.0
146.63,2936.0
146.6325,2906.0
146.635,2879.0
146.6375,2876.0
146.64,2892.0
146.6425,2868.0
146.645,2845.0
146.6475,2893.0
146.65,2848.0
146.6525,2850.0
146.655,2858.0
146.6575,2854.0
146.66,2875.0
146.6625,2849.0
146.665,2899.0
146.6675,2853.0
146.67,2839.0
146.6725,2817.0
146.675,2840.0
146.6775,2842.0
146.68,2843.0
146.6825,2919.0
146.685,2883.0
146.6875,2897.0
146.69,2897.0
146.6925,2930.0
146.695,2939.0
146.6975,2949.0
146.7,3045.0
146.7025,3012.0
146.705,3027.0
146.7075,3056.0
146.71,3124.0
146.7125,3135.0
146.715,3149.0
146.7175,3247.0
146.72,3206.0
146.7225,3229.0
146.725,3237.0
146.7275,3272.0
146.73,3272.0
146.7325,3280.0
146.735,3372.0
146.7375,3309.0
146.74,3321.0
146.7425,3331.0
146.745,3361.0
146.7475,3365.0
146.75,3399.0
146.7525,3501.0
146.755,3422.0
146.7575,3405.0
146.76,3420.0
146.7625,3431.0
146.765,3441.0
146.7675,3424.0
146.77,3517.0
146.7725,3448.0
146.775,3463.0
146.7775,3427.0
146.78,3456.0
146.7825,3434.0
146.785,3436.0
146.7875,3502.0
146.79,3440.0
146.7925,3459.0
146.795,3466.0
146.7975,3472.0
146.8,3462.0
146.8025,3468.0
146.805,3528.0
146.8075,3440.0
146.81,3429.0
146.8125,3419.0
146.815,3443.0
146.8175,3419.0
146.82,3405.0
146.8225,3482.0
146.825,3430.0
146.8275,3425.0
146.83,3426.0
146.8325,3422.0
146.835,3440.0
146.8375,3416.0
146.84,3470.0
146.8425,3418.0
146.845,3415.0
146.8475,3363.0
146.85,3363.0
146.8525,3357.0
146.855,3366.0
146.8575,3444.0
146.86,3374.0
146.8625,3354.0
146.865,3345.0
146.8675,3352.0
146.87,3353.0
146.8725,3343.0
146.875,3449.0
146.8775,3352.0
146.88,3328.0
146.8825,3347.0
146.885,3369.0
146.8875,3352.0
146.89,3345.0
146.8925,3445.0
146.895,3372.0
146.8975,3338.0
146.9,3324.0
146.9025,3334.0
146.905,3329.0
146.9075,3324.0
146.91,3405.0
146.9125,3364.0
146.915,3348.0
146.9175,3313.0
146.92,3326.0
146.9225,3350.0
146.925,3331.0
146.9275,3382.0
146.93,3333.0
146.9325,3318.0
146.935,3333.0
146.9375,3334.0
146.94,3322.0
146.9425,3295.0
146.945,3354.0
146.9475,3288.0
146.95,3270.0
146.9525,3278.0
146.955,3321.0
146.9575,3294.0
146.96,3271.0
146.9625,3351.0
146.965,3295.0
146.9675,3283.0
146.97,3298.0
146.9725,3293.0
146.975,3322.0
146.9775,3297.0
146.98,3369.0
146.9825,3309.0
146.985,3298.0
146.9875,3277.0
146.99,3303.0
146.9925,3306.0
146.995,3316.0
146.9975,3358.0
147.0,3316.0
147.0025,3289.0
147.005,3273.0
147.0075,3280.0
147.01,3279.0
147.0125,3312.0
147.015,3373.0
147.0175,3283.0
147.02,3279.0
147.0225,3254.0
147.025,3273.0
147.0275,3255.0
147.03,3264.0
147.0325,3350.0
147.035,3316.0
147.0375,3286.0
147.04,3270.0
147.0425,3263.0
147.045,3243.0
147.0475,3241.0
147.05,3326.0
147.0525,3272.0
147.055,3274.0
147.0575,3256.0
147.06,3281.0
147.0625,3270.0
147.065,3277.0
147.0675,3316.0
147.07,3244.0
147.0725,3237.0
147.075,3253.0
147.0775,3259.0
147.08,3237.0
147.0825,3233.0
147.085,3314.0
147.0875,3248.0
147.09,3253.0
147.0925,3237.0
147.095,3259.0
147.0975,3266.0
147.1,3268.0
147.1025,3317.0
147.105,3260.0
147.1075,3249.0
147.11,3269.0
147.1125,3296.0
147.115,3296.0
147.1175,3277.0
147.12,3320.0
147.1225,3260.0
147.125,3253.0
147.1275,3251.0
147.13,3271.0
147.1325,3257.0
147.135,3263.0
147.1375,3342.0
147.14,3284.0
147.1425,3296.0
147.145,3293.0
147.1475,3310.0
147.15,3298.0
147.1525,3283.0
147.155,3357.0
147.1575,3304.0
147.16,3282.0
147.1625,3268.0
147.165,3263.0
147.1675,3258.0
147.17,3250.0
147.1725,3340.0
147.175,3271.0
147.1775,3268.0
147.18,3241.0
147.1825,3258.0
147.185,3250.0
147.1875,3234.0
147.19,3308.0
147.1925,3258.0
147.195,3267.0
147.1975,3272.0
147.2,3241.0
147.2025,3213.0
147.205,3218.0
147.2075,3270.0
147.21,3203.0
147.2125,3177.0
147.215,3189.0
147.2175,3202.0
147.22,3166.0
147.2225,3154.0
147.225,3210.0
147.2275,3159.0
147.23,3149.0
147.2325,3161.0
147.235,3179.0
147.2375,3178.0
147.24,3133.0
147.2425,3209.0
147.245,3170.0
147.2475,3137.0
147.25,3097.0
147.2525,3096.0
147.255,3073.0
147.2575,3086.0
147.26,3145.0
147.2625,3106.0
147.265,3109.0
147.2675,3085.0
147.27,3080.0
147.2725,3055.0
147.275,3079.0
147.2775,3165.0
147.28,3094.0
147.2825,3091.0
147.285,3105.0
147.2875,3112.0
147.29,3099.0
147.2925,3111.0
147.295,3199.0
147.2975,3159.0
147.3,3132.0
147.3025,3141.0
147.305,3156.0
147.3075,3153.0
147.31,3147.0
147.3125,3205.0
147.315,3143.0
147.3175,3140.0
147.32,3105.0
147.3225,3120.0
147.325,3123.0
147.3275,3130.0
147.33,3195.0
147.3325,3133.0
147.335,3133.0
147.3375,3136.0
147.34,3133.0
147.3425,3128.0
147.345,3135.0
147.3475,3198.0
147.35,3106.0
147.3525,3073.0
147.355,3079.0
147.3575,3101.0
147.36,3065.0
147.3625,3056.0
147.365,3124.0
147.3675,3100.0
147.37,3147.0
147.3725,3225.0
147.375,3263.0
147.3775,3201.0
147.38,3019.0
147.3825,2835.0
147.385,2524.0
147.3875,2195.0
147.39,2149.0
147.3925,2621.0
147.395,3254.0
147.3975,3848.0
147.4,4023.0
147.4025,4054.0
147.405,4151.0
147.4075,4271.0
147.41,4287.0
147.4125,4397.0
147.415,4381.0
147.4175,4405.0
147.42,4088.0
147.4225,3920.0
147.425,3786.0
147.4275,3670.0
147.43,3501.0
147.4325,3350.0
147.435,3286.0
147.4375,3121.0
147.44,2897.0
147.4425,2765.0
147.445,2689.0
147.4475,2623.0
147.45,2561.0
147.4525,2595.0
147.455,2573.0
147.4575,2585.0
147.46,2587.0
147.4625,2583.0
147.465,2590.0
147.4675,2596.0
147.47,2644.0
147.4725,2601.0
147.475,2610.0
147.4775,2627.0
147.48,2620.0
147.4825,2620.0
147.485,2623.0
147.4875,2687.0
147.49,2626.0
147.4925,2619.0
147.495,2629.0
147.4975,2663.0
147.5,2663.0
147.5025,2643.0
147.505,2709.0
147.5075,2681.0
147.51,2659.0
147.5125,2658.0
147.515,2674.0
147.5175,2707.0
147.52,2679.0
147.5225,2731.0
147.525,2693.0
147.5275,2684.0
147.53,2680.0
147.5325,2684.0
147.535,2705.0
147.5375,2716.0
147.54,2750.0
147.5425,2696.0
147.545,2686.0
147.5475,2693.0
147.55,2714.0
147.5525,2705.0
147.555,2707.0
147.5575,2782.0
147.56,2722.0
147.5625,2700.0
147.565,2688.0
147.5675,2709.0
147.57,2718.0
147.5725,2717.0
147.575,2777.0
147.5775,2745.0
147.58,2734.0
147.5825,2722.0
147.585,2739.0
147.5875,2747.0
147.59,2757.0
147.5925,2812.0
147.595,2786.0
147.5975,2815.0
147.6,2849.0
147.6025,2879.0
147.605,2886.0
147.6075,2894.0
147.61,2980.0
147.6125,2985.0
147.615,3006.0
147.6175,3046.0
147.62,3099.0
147.6225,3107.0
147.625,3129.0
147.6275,3221.0
147.63,3203.0
147.6325,3217.0
147.635,3235.0
147.6375,3273.0
147.64,3286.0
147.6425,3275.0
147.645,3391.0
147.6475,3346.0
147.65,3347.0
147.6525,3374.0
147.655,3415.0
147.6575,3439.0
147.66,3461.0
147.6625,3540.0
147.665,3504.0
147.6675,3499.0
147.67,3491.0
147.6725,3507.0
147.675,3519.0
147.6775,3535.0
147.68,3631.0
147.6825,3541.0
147.685,3521.0
147.6875,3513.0
147.69,3532.0
147.6925,3518.0
147.695,3516.0
147.6975,3599.0
147.7,3522.0
147.7025,3503.0
147.705,3499.0
147.7075,3503.0
147.71,3500.0
147.7125,3491.0
147.715,3567.0
147.7175,3526.0
147.72,3527.0
147.7225,3497.0
147.725,3492.0
147.7275,3489.0
147.73,3478.0
147.7325,3555.0
147.735,3494.0
147.7375,3486.0
147.74,3501.0
147.7425,3456.0
147.745,3459.0
147.7475,3428.0
147.75,3501.0
147.7525,3399.0
147.755,3392.0
147.7575,3385.0
147.76,3461.0
147.7625,3419.0
147.765,3410.0
147.7675,3496.0
147.77,3448.0
147.7725,3427.0
147.775,3420.0
147.7775,3455.0
147.78,3477.0
147.7825,3424.0
147.785,3500.0
147.7875,3429.0
147.79,3421.0
147.7925,3414.0
147.795,3410.0
147.7975,3428.0
147.8,3473.0
147.8025,3487.0
147.805,3398.0
147.8075,3387.0
147.81,3395.0
147.8125,3407.0
147.815,3397.0
147.8175,3397.0
147.82,3485.0
147.8225,3360.0
147.825,3356.0
147.8275,3328.0
147.83,3323.0
147.8325,3361.0
147.835,3498.0
147.8375,3719.0
147.84,3669.0
147.8425,3823.0
147.845,3967.0
147.8475,4126.0
147.85,4386.0
147.8525,4619.0
147.855,5020.0
147.8575,5095.0
147.86,5194.0
147.8625,5356.0
147.865,5416.0
147.8675,5495.0
147.87,5627.0
147.8725,5885.0
147.875,5840.0
147.8775,5907.0
147.88,5879.0
147.8825,5905.0
147.885,5850.0
147.8875,5819.0
147.89,5989.0
147.8925,5828.0
147.895,5817.0
147.8975,5643.0
147.9,5372.0
147.9025,5099.0
147.905,4884.0
147.9075,4894.0
147.91,4684.0
147.9125,5000.0
147.915,5351.0
147.9175,5624.0
147.92,5966.0
147.9225,6238.0
147.925,6425.0
147.9275,6249.0
147.93,6245.0
147.9325,6244.0
147.935,5566.0
147.9375,3517.0
147.94,2570.0
147.9425,2057.0
147.945,1681.0
147.9475,1533.0
147.95,1405.0
147.9525,1288.0
147.955,824.0
147.9575,594.0
147.96,557.0
147.9625,544.0
147.965,642.0
147.9675,563.0
147.97,4.0
147.9725,5.0
147.975,4.0
147.9775,4.0
147.98,5.0
147.9825,5.0
147.985,5.0
147.9875,4.0
147.99,5.0
147.9925,5.0
147.995,5.0
147.9975,4.0
148.0,5.0
148.0025,5.0
148.005,5.0
148.0075,4.0
148.01,5.0
148.0125,5.0
148.015,5.0
148.0175,5.0
148.02,5.0
148.0225,4.0
148.025,5.0
148.0275,5.0
148.03,4.0
148.0325,5.0
148.035,5.0
148.0375,5.0
148.04,5.0
148.0425,5.0
148.045,5.0
148.0475,5.0
148.05,5.0
148.0525,4.0
148.055,4.0
148.0575,5.0
148.06,5.0
148.0625,5.0
148.065,4.0
148.0675,5.0
148.07,5.0
148.0725,4.0
148.075,5.0
148.0775,5.0
148.08,5.0
148.0825,5.0
148.085,4.0
148.0875,5.0
148.09,5.0
148.0925,5.0
148.095,5.0
148.0975,5.0
148.1,5.0
148.1025,5.0
148.105,5.0
148.1075,4.0
148.11,4.0
148.1125,5.0
148.115,5.0
148.1175,4.0
148.12,5.0
148.1225,5.0
148.125,5.0
148.1275,5.0
148.13,4.0
148.1325,5.0
148.135,4.0
148.1375,5.0
148.14,4.0
148.1425,4.0
148.145,5.0
148.1475,5.0
148.15,4.0
148.1525,5.0
148.155,5.0
148.1575,5.0
148.16,5.0
148.1625,5.0
148.165,5.0
148.1675,5.0
148.17,5.0
148.1725,5.0
148.175,4.0
148.1775,5.0
148.18,5.0
148.1825,5.0
148.185,5.0
148.1875,5.0
148.19,5.0
148.1925,4.0
148.195,4.0
148.1975,5.0
148.2,5.0
148.2025,5.0
148.205,5.0
148.2075,4.0
148.21,4.0
148.2125,4.0
148.215,5.0
148.2175,4.0
148.22,5.0
148.2225,5.0
148.225,5.0
148.2275,4.0
148.23,5.0
148.2325,5.0
148.235,5.0
148.2375,5.0
148.24,5.0
148.2425,5.0
148.245,5.0
148.2475,5.0
148.25,5.0
148.2525,5.0
148.255,5.0
148.2575,5.0
148.26,4.0
148.2625,5.0
148.265,5.0
148.2675,5.0
148.27,6.0
148.2725,4.0
148.275,4.0
148.2775,5.0
148.28,5.0
148.2825,5.0
148.285,5.0
148.2875,5.0
148.29,5.0
148.2925,5.0
148.295,5.0
148.2975,4.0
148.3,5.0
148.3025,5.0
148.305,4.0
148.3075,5.0
148.31,4.0
148.3125,5.0
148.315,5.0
148.3175,5.0
148.32,5.0
148.3225,5.0
148.325,5.0
148.3275,5.0
148.33,5.0
148.3325,5.0
148.335,5.0
148.3375,5.0
148.34,4.0
148.3425,5.0
148.345,5.0
148.3475,5.0
148.35,4.0
148.3525,5.0
148.355,5.0
148.3575,4.0
148.36,5.0
148.3625,4.0
148.365,4.0
148.3675,4.0
148.37,5.0
148.3725,4.0
148.375,5.0
148.3775,5.0
148.38,5.0
148.3825,4.0
148.385,5.0
148.3875,4.0
148.39,5.0
148.3925,4.0
148.395,4.0
148.3975,5.0
148.4,6.0
148.4025,6.0
148.405,5.0
148.4075,5.0
148.41,5.0
148.4125,5.0
148.415,5.0
148.4175,4.0
148.42,5.0
148.4225,5.0
148.425,5.0
148.4275,4.0
148.43,5.0
148.4325,5.0
148.435,5.0
148.4375,5.0
148.44,4.0
148.4425,5.0
148.445,5.0
148.4475,5.0
