19.34,2184.0
19.341,2185.0
19.342,2172.0
19.343,2172.0
19.344,2183.0
19.345,2188.0
19.346,2184.0
19.347,2168.0
19.348,2169.0
19.349,2174.0
19.35,2179.0
19.351,2179.0
19.352,2190.0
19.353,2179.0
19.354,2186.0
19.355,2180.0
19.356,2189.0
19.357,2177.0
19.358,2175.0
19.359,2174.0
19.36,2183.0
19.361,2186.0
19.362,2173.0
19.363,2183.0
19.364,2188.0
19.365,2146.0
19.366,2167.0
19.367,2167.0
19.368,2168.0
19.369,2166.0
19.37,2211.0
19.371,2163.0
19.372,2168.0
19.373,2166.0
19.374,2168.0
19.375,2163.0
19.376,2161.0
19.377,2155.0
19.378,2150.0
19.379,2149.0
19.38,2159.0
19.381,2143.0
19.382,2134.0
19.383,2152.0
19.384,2141.0
19.385,2127.0
19.386,2120.0
19.387,2120.0
19.388,2132.0
19.389,2123.0
19.39,2096.0
19.391,2109.0
19.392,2120.0
19.393,2119.0
19.394,2119.0
19.395,2123.0
19.396,2125.0
19.397,2108.0
19.398,2114.0
19.399,2118.0
19.4,2128.0
19.401,2120.0
19.402,2118.0
19.403,2129.0
19.404,2133.0
19.405,2123.0
19.406,2127.0
19.407,2133.0
19.408,2133.0
19.409,2123.0
19.41,2115.0
19.411,2114.0
19.412,2115.0
19.413,2102.0
19.414,2104.0
19.415,2112.0
19.416,2117.0
19.417,2114.0
19.418,2117.0
19.419,2124.0
19.42,2126.0
19.421,2117.0
19.422,2120.0
19.423,2130.0
19.424,2132.0
19.425,2119.0
19.426,2120.0
19.427,2119.0
19.428,2110.0
19.429,2101.0
19.43,2110.0
19.431,2097.0
19.432,2090.0
19.433,2099.0
19.434,2126.0
19.435,2093.0
19.436,2042.0
19.437,1966.0
19.438,1906.0
19.439,1820.0
19.44,1759.0
19.441,1782.0
19.442,1941.0
19.443,2161.0
19.444,2354.0
19.445,2468.0
19.446,2568.0
19.447,2598.0
19.448,2621.0
19.449,2619.0
19.45,2628.0
19.451,2599.0
19.452,2528.0
19.453,2431.0
19.454,2373.0
19.455,2324.0
19.456,2290.0
19.457,2258.0
19.458,2209.0
19.459,2172.0
19.46,2116.0
19.461,2065.0
19.462,2008.0
19.463,1978.0
19.464,1944.0
19.465,1936.0
19.466,1927.0
19.467,1928.0
19.468,1920.0
19.469,1916.0
19.47,1912.0
19.471,1917.0
19.472,1912.0
19.473,1919.0
19.474,1931.0
19.475,1934.0
19.476,1929.0
19.477,1925.0
19.478,1935.0
19.479,1928.0
19.48,1924.0
19.481,1929.0
19.482,1933.0
19.483,1933.0
19.484,1936.0
19.485,1941.0
19.486,1946.0
19.487,1942.0
19.488,1952.0
19.489,1949.0
19.49,1965.0
19.491,1937.0
19.492,1951.0
19.493,1951.0
19.494,2000.0
19.495,1940.0
19.496,1953.0
19.497,1949.0
19.498,1944.0
19.499,1946.0
19.5,1940.0
19.501,1950.0
19.502,1954.0
19.503,1947.0
19.504,1944.0
19.505,1938.0
19.506,1944.0
19.507,1938.0
19.508,1936.0
19.509,1947.0
19.51,1942.0
19.511,1927.0
19.512,1945.0
19.513,1935.0
19.514,1936.0
19.515,1934.0
19.516,1957.0
19.517,1963.0
19.518,1981.0
19.519,1981.0
19.52,1993.0
19.521,1979.0
19.522,1980.0
19.523,1994.0
19.524,1998.0
19.525,1997.0
19.526,2001.0
19.527,2008.0
19.528,2022.0
19.529,2027.0
19.53,2035.0
19.531,2049.0
19.532,2065.0
19.533,2069.0
19.534,2075.0
19.535,2095.0
19.536,2113.0
19.537,2099.0
19.538,2098.0
19.539,2116.0
19.54,2117.0
19.541,2132.0
19.542,2131.0
19.543,2141.0
19.544,2144.0
19.545,2141.0
19.546,2145.0
19.547,2149.0
19.548,2150.0
19.549,2143.0
19.55,2153.0
19.551,2155.0
19.552,2156.0
19.553,2153.0
19.554,2165.0
19.555,2168.0
19.556,2158.0
19.557,2158.0
19.558,2168.0
19.559,2160.0
19.56,2167.0
19.561,2154.0
19.562,2155.0
19.563,2157.0
19.564,2152.0
19.565,2140.0
19.566,2137.0
19.567,2147.0
19.568,2143.0
19.569,2142.0
19.57,2154.0
19.571,2152.0
19.572,2143.0
19.573,2130.0
19.574,2143.0
19.575,2147.0
19.576,2141.0
19.577,2130.0
19.578,2136.0
19.579,2141.0
19.58,2132.0
19.581,2125.0
19.582,2135.0
19.583,2137.0
19.584,2135.0
19.585,2123.0
19.586,2134.0
19.587,2138.0
19.588,2120.0
19.589,2115.0
19.59,2128.0
19.591,2111.0
19.592,2109.0
19.593,2105.0
19.594,2107.0
19.595,2108.0
19.596,2102.0
19.597,2093.0
19.598,2114.0
19.599,2120.0
19.6,2107.0
19.601,2112.0
19.602,2114.0
19.603,2118.0
19.604,2100.0
19.605,2106.0
19.606,2109.0
19.607,2107.0
19.608,2117.0
19.609,2125.0
19.61,2123.0
19.611,2118.0
19.612,2112.0
19.613,2126.0
19.614,2129.0
19.615,2125.0
19.616,2119.0
19.617,2136.0
19.618,2130.0
19.619,2125.0
19.62,2119.0
19.621,2120.0
19.622,2115.0
19.623,2114.0
19.624,2112.0
19.625,2119.0
19.626,2113.0
19.627,2109.0
19.628,2101.0
19.629,2110.0
19.63,2110.0
19.631,2109.0
19.632,2106.0
19.633,2107.0
19.634,2109.0
19.635,2119.0
19.636,2106.0
19.637,2094.0
19.638,2090.0
19.639,2089.0
19.64,2093.0
19.641,2094.0
19.642,2089.0
19.643,2089.0
19.644,2096.0
19.645,2090.0
19.646,2076.0
19.647,2069.0
19.648,2081.0
19.649,2089.0
19.65,2090.0
19.651,2073.0
19.652,2085.0
19.653,2090.0
19.654,2084.0
19.655,2080.0
19.656,2075.0
19.657,2079.0
19.658,2070.0
19.659,2072.0
19.66,2075.0
19.661,2083.0
19.662,2083.0
19.663,2075.0
19.664,2082.0
19.665,2084.0
19.666,2079.0
19.667,2082.0
19.668,2077.0
19.669,2071.0
19.67,2061.0
19.671,2060.0
19.672,2055.0
19.673,2050.0
19.674,2051.0
19.675,2058.0
19.676,2047.0
19.677,2038.0
19.678,2040.0
19.679,2056.0
19.68,2044.0
19.681,2028.0
19.682,2013.0
19.683,2038.0
19.684,2039.0
19.685,2031.0
19.686,2030.0
19.687,2038.0
19.688,2038.0
19.689,2038.0
19.69,2046.0
19.691,2059.0
19.692,2043.0
19.693,2048.0
19.694,2043.0
19.695,2047.0
19.696,2060.0
19.697,2044.0
19.698,2053.0
19.699,2074.0
19.7,2073.0
19.701,2063.0
19.702,2066.0
19.703,2078.0
19.704,2084.0
19.705,2082.0
19.706,2062.0
19.707,2077.0
19.708,2076.0
19.709,2074.0
19.71,2066.0
19.711,2087.0
19.712,2084.0
19.713,2079.0
19.714,2082.0
19.715,2084.0
19.716,2076.0
19.717,2072.0
19.718,2073.0
19.719,2085.0
19.72,2078.0
19.721,2071.0
19.722,2088.0
19.723,2097.0
19.724,2101.0
19.725,2088.0
19.726,2092.0
19.727,2092.0
19.728,2091.0
19.729,2073.0
19.73,2081.0
19.731,2087.0
19.732,2078.0
19.733,2040.0
19.734,1984.0
19.735,1920.0
19.736,1830.0
19.737,1774.0
19.738,1781.0
19.739,1942.0
19.74,2166.0
19.741,2369.0
19.742,2501.0
19.743,2579.0
19.744,2629.0
19.745,2661.0
19.746,2652.0
19.747,2655.0
19.748,2627.0
19.749,2556.0
19.75,2456.0
19.751,2396.0
19.752,2387.0
19.753,2363.0
19.754,2316.0
19.755,2273.0
19.756,2227.0
19.757,2170.0
19.758,2088.0
19.759,2028.0
19.76,1983.0
19.761,1962.0
19.762,1947.0
19.763,1934.0
19.764,1920.0
19.765,1928.0
19.766,1940.0
19.767,1944.0
19.768,1937.0
19.769,1948.0
19.77,1940.0
19.771,1938.0
19.772,1932.0
19.773,1928.0
19.774,1932.0
19.775,1940.0
19.776,1927.0
19.777,1935.0
19.778,1939.0
19.779,1926.0
19.78,1935.0
19.781,1938.0
19.782,1946.0
19.783,1950.0
19.784,1945.0
19.785,1938.0
19.786,1929.0
19.787,1928.0
19.788,1932.0
19.789,1931.0
19.79,1932.0
19.791,1934.0
19.792,1934.0
19.793,1935.0
19.794,1939.0
19.795,1932.0
19.796,1931.0
19.797,1934.0
19.798,1932.0
19.799,1923.0
19.8,1924.0
19.801,1909.0
19.802,1917.0
19.803,1913.0
19.804,1905.0
19.805,1902.0
19.806,1900.0
19.807,1902.0
19.808,1911.0
19.809,1906.0
19.81,1896.0
19.811,1887.0
19.812,1897.0
19.813,1883.0
19.814,1892.0
19.815,1894.0
19.816,1902.0
19.817,1902.0
19.818,1912.0
19.819,1916.0
19.82,1931.0
19.821,1947.0
19.822,1956.0
19.823,1970.0
19.824,1973.0
19.825,1986.0
19.826,1989.0
19.827,2008.0
19.828,2034.0
19.829,2051.0
19.83,2049.0
19.831,2064.0
19.832,2074.0
19.833,2083.0
19.834,2075.0
19.835,2055.0
19.836,2027.0
19.837,1998.0
19.838,1991.0
19.839,2001.0
19.84,2009.0
19.841,2005.0
19.842,2008.0
19.843,2030.0
19.844,2030.0
19.845,2031.0
19.846,2040.0
19.847,2044.0
19.848,2053.0
19.849,2044.0
19.85,2054.0
19.851,2063.0
19.852,2062.0
19.853,2063.0
19.854,2059.0
19.855,2073.0
19.856,2073.0
19.857,2075.0
19.858,2072.0
19.859,2079.0
19.86,2086.0
19.861,2086.0
19.862,2087.0
19.863,2086.0
19.864,2075.0
19.865,2076.0
19.866,2082.0
19.867,2085.0
19.868,2086.0
19.869,2084.0
19.87,2081.0
19.871,2084.0
19.872,2088.0
19.873,2086.0
19.874,2094.0
19.875,2102.0
19.876,2111.0
19.877,2094.0
19.878,2095.0
19.879,2091.0
19.88,2090.0
19.881,2092.0
19.882,2104.0
19.883,2102.0
19.884,2102.0
19.885,2087.0
19.886,2085.0
19.887,2101.0
19.888,2098.0
19.889,2097.0
19.89,2108.0
19.891,2113.0
19.892,2111.0
19.893,2107.0
19.894,2106.0
19.895,2098.0
19.896,2090.0
19.897,2092.0
19.898,2097.0
19.899,2106.0
19.9,2107.0
19.901,2098.0
19.902,2107.0
19.903,2105.0
19.904,2096.0
19.905,2106.0
19.906,2100.0
19.907,2118.0
19.908,2103.0
19.909,2103.0
19.91,2107.0
19.911,2106.0
19.912,2102.0
19.913,2123.0
19.914,2124.0
19.915,2119.0
19.916,2120.0
19.917,2118.0
19.918,2135.0
19.919,2114.0
19.92,2120.0
19.921,2109.0
19.922,2116.0
19.923,2114.0
19.924,2116.0
19.925,2119.0
19.926,2125.0
19.927,2119.0
19.928,2115.0
19.929,2116.0
19.93,2122.0
19.931,2125.0
19.932,2124.0
19.933,2130.0
19.934,2119.0
19.935,2122.0
19.936,2125.0
19.937,2126.0
19.938,2129.0
19.939,2116.0
19.94,2120.0
19.941,2119.0
19.942,2118.0
19.943,2116.0
19.944,2122.0
19.945,2129.0
19.946,2124.0
19.947,2123.0
19.948,2129.0
19.949,2124.0
19.95,2124.0
19.951,2125.0
19.952,2116.0
19.953,2120.0
19.954,2127.0
19.955,2123.0
19.956,2127.0
19.957,2128.0
19.958,2122.0
19.959,2114.0
19.96,2123.0
19.961,2125.0
19.962,2127.0
19.963,2119.0
19.964,2122.0
19.965,2120.0
19.966,2119.0
19.967,2120.0
19.968,2118.0
19.969,2119.0
19.97,2114.0
19.971,2110.0
19.972,2119.0
19.973,2118.0
19.974,2111.0
19.975,2108.0
19.976,2117.0
19.977,2114.0
19.978,2103.0
19.979,2103.0
19.98,2105.0
19.981,2107.0
19.982,2092.0
19.983,2103.0
19.984,2111.0
19.985,2100.0
19.986,2089.0
19.987,2092.0
19.988,2089.0
19.989,2087.0
19.99,2074.0
19.991,2065.0
19.992,2095.0
19.993,2068.0
19.994,2074.0
19.995,2092.0
19.996,2086.0
19.997,2077.0
19.998,2067.0
19.999,2085.0
20.0,2091.0
20.001,2082.0
20.002,2089.0
20.003,2092.0
20.004,2091.0
20.005,2092.0
20.006,2093.0
20.007,2106.0
20.008,2102.0
20.009,2102.0
20.01,2131.0
20.011,2151.0
20.012,2159.0
20.013,2148.0
20.014,2140.0
20.015,2155.0
20.016,2152.0
20.017,2147.0
20.018,2136.0
20.019,2130.0
20.02,2136.0
20.021,2134.0
20.022,2132.0
20.023,2125.0
20.024,2129.0
20.025,2131.0
20.026,2136.0
20.027,2135.0
20.028,2135.0
20.029,2115.0
20.03,2110.0
20.031,2121.0
20.032,2111.0
20.033,2106.0
20.034,2112.0
20.035,2116.0
20.036,2102.0
20.037,2082.0
20.038,2079.0
20.039,2099.0
20.04,2100.0
20.041,2090.0
20.042,2065.0
20.043,1994.0
20.044,1925.0
20.045,1839.0
20.046,1787.0
20.047,1817.0
20.048,1993.0
20.049,2231.0
20.05,2445.0
20.051,2532.0
20.052,2594.0
20.053,2643.0
20.054,2670.0
20.055,2650.0
20.056,2661.0
20.057,2617.0
20.058,2545.0
20.059,2439.0
20.06,2363.0
20.061,2316.0
20.062,2260.0
20.063,2207.0
20.064,2165.0
20.065,2114.0
20.066,2046.0
20.067,1981.0
20.068,1933.0
20.069,1906.0
20.07,1873.0
20.071,1855.0
20.072,1850.0
20.073,1857.0
20.074,1854.0
20.075,1860.0
20.076,1868.0
20.077,1875.0
20.078,1875.0
20.079,1870.0
20.08,1871.0
20.081,1864.0
20.082,1865.0
20.083,1871.0
20.084,1873.0
20.085,1882.0
20.086,1891.0
20.087,1893.0
20.088,1896.0
20.089,1913.0
20.09,1903.0
20.091,1899.0
20.092,1894.0
20.093,1902.0
20.094,1902.0
20.095,1908.0
20.096,1907.0
20.097,1912.0
20.098,1909.0
20.099,1913.0
20.1,1918.0
20.101,1909.0
20.102,1904.0
20.103,1910.0
20.104,1920.0
20.105,1930.0
20.106,1919.0
20.107,1906.0
20.108,1916.0
20.109,1916.0
20.11,1903.0
20.111,1905.0
20.112,1912.0
20.113,1909.0
20.114,1904.0
20.115,1903.0
20.116,1918.0
20.117,1918.0
20.118,1912.0
20.119,1915.0
20.12,1918.0
20.121,1913.0
20.122,1923.0
20.123,1937.0
20.124,1913.0
20.125,1944.0
20.126,1933.0
20.127,1948.0
20.128,1948.0
20.129,1958.0
20.13,1966.0
20.131,1975.0
20.132,1987.0
20.133,1994.0
20.134,2005.0
20.135,2025.0
20.136,2035.0
20.137,2036.0
20.138,2047.0
20.139,2061.0
20.14,2070.0
20.141,2091.0
20.142,2095.0
20.143,2112.0
20.144,2113.0
20.145,2118.0
20.146,2121.0
20.147,2141.0
20.148,2149.0
20.149,2148.0
20.15,2140.0
20.151,2142.0
20.152,2160.0
20.153,2156.0
20.154,2156.0
20.155,2162.0
20.156,2162.0
20.157,2165.0
20.158,2160.0
20.159,2172.0
20.16,2173.0
20.161,2162.0
20.162,2160.0
20.163,2176.0
20.164,2163.0
20.165,2157.0
20.166,2149.0
20.167,2149.0
20.168,2153.0
20.169,2151.0
20.17,2150.0
20.171,2153.0
20.172,2156.0
20.173,2156.0
20.174,2145.0
20.175,2130.0
20.176,2125.0
20.177,2129.0
20.178,2138.0
20.179,2140.0
20.18,2143.0
20.181,2140.0
20.182,2135.0
20.183,2132.0
20.184,2130.0
20.185,2129.0
20.186,2129.0
20.187,2123.0
20.188,2114.0
20.189,2118.0
20.19,2111.0
20.191,2112.0
20.192,2109.0
20.193,2107.0
20.194,2102.0
20.195,2109.0
20.196,2109.0
20.197,2112.0
20.198,2112.0
20.199,2097.0
20.2,2094.0
20.201,2095.0
20.202,2092.0
20.203,2090.0
20.204,2099.0
20.205,2104.0
20.206,2102.0
20.207,2076.0
20.208,2079.0
20.209,2091.0
20.21,2092.0
20.211,2081.0
20.212,2085.0
20.213,2085.0
20.214,2080.0
20.215,2076.0
20.216,2079.0
20.217,2081.0
20.218,2085.0
20.219,2096.0
20.22,2107.0
20.221,2087.0
20.222,2072.0
20.223,2080.0
20.224,2068.0
20.225,2087.0
20.226,2079.0
20.227,2070.0
20.228,2076.0
20.229,2088.0
20.23,2084.0
20.231,2079.0
20.232,2082.0
20.233,2080.0
20.234,2078.0
20.235,2082.0
20.236,2091.0
20.237,2095.0
20.238,2091.0
20.239,2089.0
20.24,2087.0
20.241,2096.0
20.242,2095.0
20.243,2087.0
20.244,2094.0
20.245,2085.0
20.246,2081.0
20.247,2083.0
20.248,2080.0
20.249,2079.0
20.25,2072.0
20.251,2070.0
20.252,2083.0
20.253,2097.0
20.254,2084.0
20.255,2080.0
20.256,2091.0
20.257,2097.0
20.258,2087.0
20.259,2071.0
20.26,2080.0
20.261,2079.0
20.262,2075.0
20.263,2086.0
20.264,2085.0
20.265,2088.0
20.266,2083.0
20.267,2081.0
20.268,2088.0
20.269,2085.0
20.27,2059.0
20.271,2067.0
20.272,2068.0
20.273,2074.0
20.274,2071.0
20.275,2075.0
20.276,2080.0
20.277,2083.0
20.278,2074.0
20.279,2068.0
20.28,2076.0
20.281,2068.0
20.282,2064.0
20.283,2079.0
20.284,2070.0
20.285,2069.0
20.286,2064.0
20.287,2067.0
20.288,2065.0
20.289,2059.0
20.29,2059.0
20.291,2062.0
20.292,2060.0
20.293,2059.0
20.294,2058.0
20.295,2072.0
20.296,2067.0
20.297,2059.0
20.298,2064.0
20.299,2069.0
20.3,2063.0
20.301,2065.0
20.302,2057.0
20.303,2061.0
20.304,2066.0
20.305,2075.0
20.306,2063.0
20.307,2061.0
20.308,2062.0
20.309,2066.0
20.31,2057.0
20.311,2067.0
20.312,2052.0
20.313,2042.0
20.314,2054.0
20.315,2015.0
20.316,2059.0
20.317,2070.0
20.318,2063.0
20.319,2063.0
20.32,2066.0
20.321,2056.0
20.322,2063.0
20.323,2068.0
20.324,2059.0
20.325,2052.0
20.326,2042.0
20.327,2034.0
20.328,2038.0
20.329,2030.0
20.33,2043.0
20.331,2053.0
20.332,2046.0
20.333,2044.0
20.334,2040.0
20.335,2036.0
20.336,2042.0
20.337,2049.0
20.338,2063.0
20.339,2059.0
20.34,2046.0
20.341,2038.0
20.342,2047.0
20.343,2047.0
20.344,2059.0
20.345,2052.0
20.346,2055.0
20.347,2056.0
20.348,2058.0
20.349,2064.0
20.35,2052.0
20.351,2041.0
20.352,2046.0
20.353,2052.0
20.354,2059.0
20.355,2036.0
20.356,2033.0
20.357,2041.0
20.358,2032.0
20.359,2050.0
20.36,2050.0
20.361,2058.0
20.362,2044.0
20.363,2039.0
20.364,2037.0
20.365,2049.0
20.366,2044.0
20.367,2041.0
20.368,2047.0
20.369,2059.0
20.37,2057.0
20.371,2052.0
20.372,2048.0
20.373,2049.0
20.374,2049.0
20.375,2047.0
20.376,2057.0
20.377,2059.0
20.378,2040.0
20.379,2008.0
20.38,1954.0
20.381,1873.0
20.382,1806.0
20.383,1763.0
20.384,1843.0
20.385,2029.0
20.386,2258.0
20.387,2447.0
20.388,2524.0
20.389,2588.0
20.39,2621.0
20.391,2637.0
20.392,2645.0
20.393,2636.0
20.394,2586.0
20.395,2495.0
20.396,2422.0
20.397,2368.0
20.398,2312.0
20.399,2243.0
20.4,2195.0
20.401,2156.0
20.402,2096.0
20.403,2029.0
20.404,1973.0
20.405,1934.0
20.406,1897.0
20.407,1871.0
20.408,1873.0
20.409,1875.0
20.41,1868.0
20.411,1877.0
20.412,1872.0
20.413,1875.0
20.414,1873.0
20.415,1878.0
20.416,1892.0
20.417,1895.0
20.418,1892.0
20.419,1896.0
20.42,1902.0
20.421,1907.0
20.422,1901.0
20.423,1908.0
20.424,1919.0
20.425,1905.0
20.426,1905.0
20.427,1916.0
20.428,1919.0
20.429,1940.0
20.43,1919.0
20.431,1925.0
20.432,1934.0
20.433,1940.0
20.434,1965.0
20.435,1924.0
20.436,1919.0
20.437,1943.0
20.438,1936.0
20.439,1930.0
20.44,1924.0
20.441,1929.0
20.442,1933.0
20.443,1936.0
20.444,1937.0
20.445,1940.0
20.446,1932.0
20.447,1937.0
20.448,1945.0
20.449,1922.0
20.45,1907.0
20.451,1924.0
20.452,1931.0
20.453,1930.0
20.454,1924.0
20.455,1927.0
20.456,1934.0
20.457,1933.0
20.458,1934.0
20.459,1930.0
20.46,1933.0
20.461,1940.0
20.462,1950.0
20.463,1964.0
20.464,1967.0
20.465,1974.0
20.466,1971.0
20.467,1984.0
20.468,1988.0
20.469,1993.0
20.47,2002.0
20.471,2017.0
20.472,2021.0
20.473,2038.0
20.474,2045.0
20.475,2057.0
20.476,2070.0
20.477,2077.0
20.478,2082.0
20.479,2103.0
20.48,2113.0
20.481,2125.0
20.482,2129.0
20.483,2125.0
20.484,2131.0
20.485,2140.0
20.486,2146.0
20.487,2154.0
20.488,2154.0
20.489,2155.0
20.49,2159.0
20.491,2164.0
20.492,2170.0
20.493,2165.0
20.494,2162.0
20.495,2152.0
20.496,2160.0
20.497,2157.0
20.498,2164.0
20.499,2168.0
20.5,2171.0
20.501,2178.0
20.502,2168.0
20.503,2166.0
20.504,2155.0
20.505,2164.0
20.506,2165.0
20.507,2166.0
20.508,2160.0
20.509,2156.0
20.51,2156.0
20.511,2158.0
20.512,2154.0
20.513,2157.0
20.514,2162.0
20.515,2148.0
20.516,2140.0
20.517,2151.0
20.518,2150.0
20.519,2139.0
20.52,2131.0
20.521,2136.0
20.522,2135.0
20.523,2128.0
20.524,2127.0
20.525,2130.0
20.526,2131.0
20.527,2118.0
20.528,2106.0
20.529,2109.0
20.53,2090.0
20.531,2112.0
20.532,2122.0
20.533,2127.0
20.534,2104.0
20.535,2106.0
20.536,2102.0
20.537,2086.0
20.538,2092.0
20.539,2100.0
20.54,2111.0
20.541,2098.0
20.542,2091.0
20.543,2094.0
20.544,2091.0
20.545,2099.0
20.546,2089.0
20.547,2080.0
20.548,2090.0
20.549,2099.0
20.55,2087.0
20.551,2084.0
20.552,2089.0
20.553,2095.0
20.554,2097.0
20.555,2082.0
20.556,2073.0
20.557,2074.0
20.558,2077.0
20.559,2083.0
20.56,2076.0
20.561,2079.0
20.562,2082.0
20.563,2075.0
20.564,2071.0
20.565,2071.0
20.566,2071.0
20.567,2070.0
20.568,2075.0
20.569,2074.0
20.57,2076.0
20.571,2076.0
20.572,2083.0
20.573,2078.0
20.574,2074.0
20.575,2072.0
20.576,2076.0
20.577,2090.0
20.578,2086.0
20.579,2094.0
20.58,2085.0
20.581,2075.0
20.582,2079.0
20.583,2063.0
20.584,2084.0
20.585,2080.0
20.586,2071.0
20.587,2066.0
20.588,2076.0
20.589,2072.0
20.59,2073.0
20.591,2072.0
20.592,2079.0
20.593,2076.0
20.594,2072.0
20.595,2073.0
20.596,2072.0
20.597,2074.0
20.598,2086.0
20.599,2074.0
20.6,2074.0
20.601,2071.0
20.602,2069.0
20.603,2066.0
20.604,2065.0
20.605,2069.0
20.606,2065.0
20.607,2074.0
20.608,2076.0
20.609,2082.0
20.61,2074.0
20.611,2077.0
20.612,2059.0
20.613,2056.0
20.614,2064.0
20.615,2067.0
20.616,2071.0
20.617,2062.0
20.618,2057.0
20.619,2063.0
20.62,2069.0
20.621,2067.0
20.622,2072.0
20.623,2059.0
20.624,2063.0
20.625,2067.0
20.626,2077.0
20.627,2063.0
20.628,2063.0
20.629,2061.0
20.63,2017.0
20.631,2061.0
20.632,2060.0
20.633,2063.0
20.634,2073.0
20.635,2066.0
20.636,2060.0
20.637,2062.0
20.638,2065.0
20.639,2053.0
20.64,2061.0
20.641,2062.0
20.642,2059.0
20.643,2075.0
20.644,2053.0
20.645,2056.0
20.646,2069.0
20.647,2063.0
20.648,2058.0
20.649,2056.0
20.65,2062.0
20.651,2058.0
20.652,2056.0
20.653,2058.0
20.654,2069.0
20.655,2062.0
20.656,2059.0
20.657,2060.0
20.658,2059.0
20.659,2057.0
20.66,2053.0
20.661,2061.0
20.662,2055.0
20.663,2050.0
20.664,2052.0
20.665,2052.0
20.666,2051.0
20.667,2044.0
20.668,2037.0
20.669,2031.0
20.67,2047.0
20.671,2044.0
20.672,2050.0
20.673,2053.0
20.674,2053.0
20.675,2045.0
20.676,2042.0
20.677,2047.0
20.678,2051.0
20.679,2037.0
20.68,2053.0
20.681,2051.0
20.682,2051.0
20.683,2047.0
20.684,2033.0
20.685,2032.0
20.686,2041.0
20.687,2031.0
20.688,2028.0
20.689,2044.0
20.69,2038.0
20.691,2035.0
20.692,2029.0
20.693,2034.0
20.694,2031.0
20.695,2027.0
20.696,2036.0
20.697,2048.0
20.698,2041.0
20.699,2043.0
20.7,2042.0
20.701,2055.0
20.702,2060.0
20.703,2059.0
20.704,2067.0
20.705,2071.0
20.706,2063.0
20.707,2056.0
20.708,2067.0
20.709,2069.0
20.71,2069.0
20.711,2063.0
20.712,2062.0
20.713,2071.0
20.714,2062.0
20.715,2056.0
20.716,2056.0
20.717,2056.0
20.718,2071.0
20.719,2074.0
20.72,2068.0
20.721,2074.0
20.722,2071.0
20.723,2065.0
20.724,2067.0
20.725,2107.0
20.726,2071.0
20.727,2067.0
20.728,2071.0
20.729,2052.0
20.73,2049.0
20.731,2047.0
20.732,2052.0
20.733,2059.0
20.734,2067.0
20.735,2053.0
20.736,2042.0
20.737,1991.0
20.738,1957.0
20.739,1883.0
20.74,1774.0
20.741,1723.0
20.742,1772.0
20.743,1936.0
20.744,2151.0
20.745,2343.0
20.746,2439.0
20.747,2519.0
20.748,2561.0
20.749,2582.0
20.75,2584.0
20.751,2576.0
20.752,2544.0
20.753,2487.0
20.754,2381.0
20.755,2317.0
20.756,2279.0
20.757,2236.0
20.758,2201.0
20.759,2156.0
20.76,2118.0
20.761,2064.0
20.762,2019.0
20.763,1961.0
20.764,1927.0
20.765,1906.0
20.766,1892.0
20.767,1869.0
20.768,1877.0
20.769,1880.0
20.77,1866.0
20.771,1876.0
20.772,1878.0
20.773,1879.0
20.774,1891.0
20.775,1890.0
20.776,1894.0
20.777,1889.0
20.778,1901.0
20.779,1898.0
20.78,1897.0
20.781,1902.0
20.782,1917.0
20.783,1908.0
20.784,1900.0
20.785,1906.0
20.786,1913.0
20.787,1915.0
20.788,1914.0
20.789,1920.0
20.79,1922.0
20.791,1928.0
20.792,1920.0
20.793,1931.0
20.794,1933.0
20.795,1935.0
20.796,1934.0
20.797,1943.0
20.798,1941.0
20.799,1934.0
20.8,1927.0
20.801,1928.0
20.802,1923.0
20.803,1929.0
20.804,1925.0
20.805,1930.0
20.806,1931.0
20.807,1925.0
20.808,1928.0
20.809,1931.0
20.81,1932.0
20.811,1922.0
20.812,1920.0
20.813,1917.0
20.814,1931.0
20.815,1933.0
20.816,1931.0
20.817,1935.0
20.818,1940.0
20.819,1944.0
20.82,1941.0
20.821,1945.0
20.822,1964.0
20.823,1964.0
20.824,1973.0
20.825,1978.0
20.826,1994.0
20.827,2006.0
20.828,2010.0
20.829,2016.0
20.83,2028.0
20.831,2035.0
20.832,2034.0
20.833,2056.0
20.834,2075.0
20.835,2077.0
20.836,2087.0
20.837,2092.0
20.838,2103.0
20.839,2100.0
20.84,2103.0
20.841,2109.0
20.842,2128.0
20.843,2121.0
20.844,2133.0
20.845,2143.0
20.846,2144.0
20.847,2147.0
20.848,2145.0
20.849,2155.0
20.85,2137.0
20.851,2156.0
20.852,2163.0
20.853,2166.0
20.854,2172.0
20.855,2158.0
20.856,2159.0
20.857,2157.0
20.858,2155.0
20.859,2157.0
20.86,2159.0
20.861,2160.0
20.862,2164.0
20.863,2162.0
20.864,2144.0
20.865,2148.0
20.866,2150.0
20.867,2138.0
20.868,2148.0
20.869,2146.0
20.87,2145.0
20.871,2124.0
20.872,2126.0
20.873,2128.0
20.874,2135.0
20.875,2125.0
20.876,2123.0
20.877,2121.0
20.878,2121.0
20.879,2121.0
20.88,2113.0
20.881,2129.0
20.882,2122.0
20.883,2122.0
20.884,2120.0
20.885,2110.0
20.886,2111.0
20.887,2103.0
20.888,2106.0
20.889,2101.0
20.89,2104.0
20.891,2110.0
20.892,2097.0
20.893,2095.0
20.894,2100.0
20.895,2098.0
20.896,2087.0
20.897,2089.0
20.898,2083.0
20.899,2085.0
20.9,2082.0
20.901,2086.0
20.902,2083.0
20.903,2089.0
20.904,2079.0
20.905,2074.0
20.906,2083.0
20.907,2077.0
20.908,2075.0
20.909,2085.0
20.91,2062.0
20.911,2068.0
20.912,2080.0
20.913,2077.0
20.914,2074.0
20.915,2081.0
20.916,2072.0
20.917,2079.0
20.918,2085.0
20.919,2084.0
20.92,2063.0
20.921,2072.0
20.922,2072.0
20.923,2077.0
20.924,2081.0
20.925,2074.0
20.926,2072.0
20.927,2077.0
20.928,2077.0
20.929,2076.0
20.93,2082.0
20.931,2085.0
20.932,2077.0
20.933,2063.0
20.934,2073.0
20.935,2066.0
20.936,2065.0
20.937,2070.0
20.938,2075.0
20.939,2072.0
20.94,2069.0
20.941,2069.0
20.942,2077.0
20.943,2078.0
20.944,2058.0
20.945,2069.0
20.946,2079.0
20.947,2065.0
20.948,2065.0
20.949,2067.0
20.95,2060.0
20.951,2066.0
20.952,2056.0
20.953,2062.0
20.954,2066.0
20.955,2075.0
20.956,2055.0
20.957,2069.0
20.958,2051.0
20.959,2055.0
20.96,2053.0
20.961,2055.0
20.962,2054.0
20.963,2039.0
20.964,2049.0
20.965,2051.0
20.966,2049.0
20.967,2057.0
20.968,2041.0
20.969,2047.0
20.97,2048.0
20.971,2048.0
20.972,2050.0
20.973,2050.0
20.974,2037.0
20.975,2055.0
20.976,2048.0
20.977,2045.0
20.978,2047.0
20.979,2049.0
20.98,2051.0
20.981,2052.0
20.982,2058.0
20.983,2054.0
20.984,2044.0
20.985,2049.0
20.986,2044.0
20.987,2053.0
20.988,2051.0
20.989,2052.0
20.99,2044.0
20.991,2047.0
20.992,2050.0
20.993,2049.0
20.994,2052.0
20.995,2041.0
20.996,2044.0
20.997,2048.0
20.998,2048.0
20.999,2051.0
21.0,2049.0
21.001,2051.0
21.002,2051.0
21.003,2054.0
21.004,2043.0
21.005,2051.0
21.006,2050.0
21.007,2054.0
21.008,2049.0
21.009,2049.0
21.01,2059.0
21.011,2052.0
21.012,2056.0
21.013,2052.0
21.014,2059.0
21.015,2058.0
21.016,2059.0
21.017,2046.0
21.018,2049.0
21.019,2060.0
21.02,2065.0
21.021,2067.0
21.022,2053.0
21.023,2053.0
21.024,2052.0
21.025,2061.0
21.026,2054.0
21.027,2046.0
21.028,2063.0
21.029,2055.0
21.03,2055.0
21.031,2057.0
21.032,2058.0
21.033,2057.0
21.034,2052.0
21.035,2044.0
21.036,2047.0
21.037,2050.0
21.038,2043.0
21.039,2043.0
21.04,2043.0
21.041,2037.0
21.042,2033.0
21.043,2037.0
21.044,2040.0
21.045,2041.0
21.046,2050.0
21.047,2063.0
21.048,2052.0
21.049,2049.0
21.05,2050.0
21.051,2015.0
21.052,2063.0
21.053,2059.0
21.054,2058.0
21.055,2072.0
21.056,2091.0
21.057,2077.0
21.058,2078.0
21.059,2077.0
21.06,2080.0
21.061,2076.0
21.062,2058.0
21.063,2066.0
21.064,2065.0
21.065,2059.0
21.066,2066.0
21.067,2076.0
21.068,2080.0
21.069,2073.0
21.07,2073.0
21.071,2076.0
21.072,2070.0
21.073,2071.0
21.074,2062.0
21.075,2067.0
21.076,2063.0
21.077,2066.0
21.078,2059.0
21.079,2063.0
21.08,2058.0
21.081,2053.0
21.082,2056.0
21.083,2068.0
21.084,2068.0
21.085,2061.0
21.086,2047.0
21.087,2004.0
21.088,1934.0
21.089,1847.0
21.09,1791.0
21.091,1736.0
21.092,1816.0
21.093,1993.0
21.094,2215.0
21.095,2406.0
21.096,2483.0
21.097,2547.0
21.098,2574.0
21.099,2590.0
21.1,2590.0
21.101,2587.0
21.102,2551.0
21.103,2476.0
21.104,2371.0
21.105,2307.0
21.106,2268.0
21.107,2222.0
21.108,2190.0
21.109,2162.0
21.11,2119.0
21.111,2062.0
21.112,1997.0
21.113,1938.0
21.114,1897.0
21.115,1873.0
21.116,1863.0
21.117,1864.0
21.118,1873.0
21.119,1874.0
21.12,1871.0
21.121,1868.0
21.122,1878.0
21.123,1879.0
21.124,1882.0
21.125,1891.0
21.126,1892.0
21.127,1894.0
21.128,1892.0
21.129,1886.0
21.13,1895.0
21.131,1901.0
21.132,1902.0
21.133,1904.0
21.134,1901.0
21.135,1910.0
21.136,1914.0
21.137,1918.0
21.138,1926.0
21.139,1927.0
21.14,1925.0
21.141,1922.0
21.142,1915.0
21.143,1922.0
21.144,1921.0
21.145,1913.0
21.146,1920.0
21.147,1918.0
21.148,1930.0
21.149,1926.0
21.15,1930.0
21.151,1930.0
21.152,1927.0
21.153,1931.0
21.154,1930.0
21.155,1920.0
21.156,1923.0
21.157,1914.0
21.158,1918.0
21.159,1914.0
21.16,1918.0
21.161,1922.0
21.162,1920.0
21.163,1918.0
21.164,1928.0
21.165,1923.0
21.166,1920.0
21.167,1931.0
21.168,1931.0
21.169,1928.0
21.17,1945.0
21.171,1943.0
21.172,1954.0
21.173,1965.0
21.174,1974.0
21.175,1972.0
21.176,1977.0
21.177,1991.0
21.178,2000.0
21.179,2008.0
21.18,2014.0
21.181,2028.0
21.182,2045.0
21.183,2073.0
21.184,2077.0
21.185,2082.0
21.186,2093.0
21.187,2099.0
21.188,2111.0
21.189,2114.0
21.19,2119.0
21.191,2119.0
21.192,2128.0
21.193,2129.0
21.194,2142.0
21.195,2140.0
21.196,2157.0
21.197,2156.0
21.198,2161.0
21.199,2159.0
21.2,2173.0
21.201,2171.0
21.202,2174.0
21.203,2163.0
21.204,2163.0
21.205,2166.0
21.206,2168.0
21.207,2170.0
21.208,2173.0
21.209,2175.0
21.21,2174.0
21.211,2176.0
21.212,2162.0
21.213,2157.0
21.214,2160.0
21.215,2164.0
21.216,2164.0
21.217,2164.0
21.218,2149.0
21.219,2147.0
21.22,2148.0
21.221,2146.0
21.222,2140.0
21.223,2139.0
21.224,2134.0
21.225,2134.0
21.226,2137.0
21.227,2119.0
21.228,2123.0
21.229,2123.0
21.23,2124.0
21.231,2123.0
21.232,2123.0
21.233,2114.0
21.234,2116.0
21.235,2115.0
21.236,2119.0
21.237,2112.0
21.238,2111.0
21.239,2110.0
21.24,2094.0
21.241,2094.0
21.242,2096.0
21.243,2089.0
21.244,2086.0
21.245,2097.0
21.246,2103.0
21.247,2113.0
21.248,2100.0
21.249,2092.0
21.25,2103.0
21.251,2100.0
21.252,2096.0
21.253,2090.0
21.254,2085.0
21.255,2090.0
21.256,2088.0
21.257,2084.0
21.258,2086.0
21.259,2083.0
21.26,2077.0
21.261,2077.0
21.262,2087.0
21.263,2078.0
21.264,2077.0
21.265,2080.0
21.266,2080.0
21.267,2078.0
21.268,2076.0
21.269,2081.0
21.27,2070.0
21.271,2076.0
21.272,2071.0
21.273,2078.0
21.274,2071.0
21.275,2072.0
21.276,2081.0
21.277,2082.0
21.278,2079.0
21.279,2074.0
21.28,2073.0
21.281,2079.0
21.282,2084.0
21.283,2073.0
21.284,2078.0
21.285,2074.0
21.286,2073.0
21.287,2077.0
21.288,2076.0
21.289,2073.0
21.29,2078.0
21.291,2074.0
21.292,2071.0
21.293,2068.0
21.294,2072.0
21.295,2079.0
21.296,2069.0
21.297,2059.0
21.298,2053.0
21.299,2061.0
21.3,2065.0
21.301,2066.0
21.302,2070.0
21.303,2076.0
21.304,2071.0
21.305,2077.0
21.306,2069.0
21.307,2061.0
21.308,2060.0
21.309,2074.0
21.31,2066.0
21.311,2062.0
21.312,2074.0
21.313,2063.0
21.314,2069.0
21.315,2054.0
21.316,2069.0
21.317,2056.0
21.318,2060.0
21.319,2061.0
21.32,2056.0
21.321,2057.0
21.322,2049.0
21.323,2066.0
21.324,2059.0
21.325,2061.0
21.326,2063.0
21.327,2060.0
21.328,2059.0
21.329,2053.0
21.33,2046.0
21.331,2048.0
21.332,2058.0
21.333,2052.0
21.334,2059.0
21.335,2060.0
21.336,2062.0
21.337,2052.0
21.338,2042.0
21.339,2043.0
21.34,2046.0
21.341,2041.0
21.342,2043.0
21.343,2054.0
21.344,2063.0
21.345,2051.0
21.346,2048.0
21.347,2057.0
21.348,2051.0
21.349,2058.0
21.35,2055.0
21.351,2052.0
21.352,2049.0
21.353,2040.0
21.354,2041.0
21.355,2046.0
21.356,2045.0
21.357,2047.0
21.358,2055.0
21.359,2052.0
21.36,2049.0
21.361,2047.0
21.362,2042.0
21.363,2043.0
21.364,2037.0
21.365,2044.0
21.366,2051.0
21.367,2054.0
21.368,2056.0
21.369,2050.0
21.37,2047.0
21.371,2052.0
21.372,2052.0
21.373,2050.0
21.374,2048.0
21.375,2051.0
21.376,2048.0
21.377,2042.0
21.378,2050.0
21.379,2045.0
21.38,2057.0
21.381,2050.0
21.382,2050.0
21.383,2055.0
21.384,2054.0
21.385,2055.0
21.386,2046.0
21.387,2056.0
21.388,2053.0
21.389,2051.0
21.39,2065.0
21.391,2078.0
21.392,2047.0
21.393,2042.0
21.394,2040.0
21.395,2041.0
21.396,2039.0
21.397,2019.0
21.398,2043.0
21.399,2043.0
21.4,2032.0
21.401,2031.0
21.402,2025.0
21.403,2041.0
21.404,2043.0
21.405,2034.0
21.406,2030.0
21.407,2036.0
21.408,2030.0
21.409,2035.0
21.41,2037.0
21.411,2045.0
21.412,2049.0
21.413,2048.0
21.414,2055.0
21.415,2067.0
21.416,2066.0
21.417,2060.0
21.418,2059.0
21.419,2069.0
21.42,2062.0
21.421,2065.0
21.422,2069.0
21.423,2067.0
21.424,2069.0
21.425,2061.0
21.426,2066.0
21.427,2069.0
21.428,2061.0
21.429,2059.0
21.43,2070.0
21.431,2068.0
21.432,2071.0
21.433,2074.0
21.434,2075.0
21.435,2073.0
21.436,2066.0
21.437,2071.0
21.438,2070.0
21.439,2069.0
21.44,2065.0
21.441,2068.0
21.442,2060.0
21.443,2060.0
21.444,2050.0
21.445,2046.0
21.446,2047.0
21.447,2058.0
21.448,2063.0
21.449,2054.0
21.45,2016.0
21.451,1967.0
21.452,1876.0
21.453,1819.0
21.454,1783.0
21.455,1863.0
21.456,2062.0
21.457,2306.0
21.458,2473.0
21.459,2526.0
21.46,2574.0
21.461,2611.0
21.462,2623.0
21.463,2617.0
21.464,2611.0
21.465,2560.0
21.466,2460.0
21.467,2384.0
21.468,2313.0
21.469,2252.0
21.47,2191.0
21.471,2133.0
21.472,2101.0
21.473,2057.0
21.474,1991.0
21.475,1937.0
21.476,1894.0
21.477,1865.0
21.478,1832.0
21.479,1833.0
21.48,1831.0
21.481,1839.0
21.482,1836.0
21.483,1840.0
21.484,1842.0
21.485,1849.0
21.486,1846.0
21.487,1858.0
21.488,1854.0
21.489,1856.0
21.49,1864.0
21.491,1868.0
21.492,1881.0
21.493,1872.0
21.494,1876.0
21.495,1878.0
21.496,1885.0
21.497,1892.0
21.498,1891.0
21.499,1899.0
21.5,1900.0
21.501,1898.0
21.502,1894.0
21.503,1903.0
21.504,1914.0
21.505,1907.0
21.506,1918.0
21.507,1928.0
21.508,1919.0
21.509,1919.0
21.51,1908.0
21.511,1914.0
21.512,1928.0
21.513,1928.0
21.514,1930.0
21.515,1928.0
21.516,1920.0
21.517,1906.0
21.518,1919.0
21.519,1921.0
21.52,1919.0
21.521,1912.0
21.522,1912.0
21.523,1914.0
21.524,1916.0
21.525,1915.0
21.526,1915.0
21.527,1915.0
21.528,1922.0
21.529,1932.0
21.53,1935.0
21.531,1933.0
21.532,1934.0
21.533,1938.0
21.534,1942.0
21.535,1946.0
21.536,1964.0
21.537,1974.0
21.538,1978.0
21.539,1986.0
21.54,1981.0
21.541,1997.0
21.542,2013.0
21.543,2018.0
21.544,2038.0
21.545,2044.0
21.546,2056.0
21.547,2070.0
21.548,2068.0
21.549,2086.0
21.55,2095.0
21.551,2107.0
21.552,2124.0
21.553,2119.0
21.554,2122.0
21.555,2121.0
21.556,2126.0
21.557,2144.0
21.558,2174.0
21.559,2177.0
21.56,2163.0
21.561,2174.0
21.562,2176.0
21.563,2181.0
21.564,2181.0
21.565,2185.0
21.566,2193.0
21.567,2193.0
21.568,2191.0
21.569,2182.0
21.57,2175.0
21.571,2172.0
21.572,2182.0
21.573,2172.0
21.574,2160.0
21.575,2162.0
21.576,2168.0
21.577,2170.0
21.578,2171.0
21.579,2168.0
21.58,2168.0
21.581,2166.0
21.582,2161.0
21.583,2148.0
21.584,2152.0
21.585,2148.0
21.586,2157.0
21.587,2154.0
21.588,2156.0
21.589,2150.0
21.59,2140.0
21.591,2137.0
21.592,2146.0
21.593,2140.0
21.594,2142.0
21.595,2140.0
21.596,2141.0
21.597,2144.0
21.598,2117.0
21.599,2109.0
21.6,2116.0
21.601,2119.0
21.602,2117.0
21.603,2111.0
21.604,2106.0
21.605,2105.0
21.606,2101.0
21.607,2099.0
21.608,2097.0
21.609,2092.0
21.61,2091.0
21.611,2094.0
21.612,2097.0
21.613,2090.0
21.614,2083.0
21.615,2085.0
21.616,2084.0
21.617,2077.0
21.618,2081.0
21.619,2082.0
21.62,2084.0
21.621,2072.0
21.622,2073.0
21.623,2072.0
21.624,2079.0
21.625,2074.0
21.626,2071.0
21.627,2057.0
21.628,2062.0
21.629,2067.0
21.63,2057.0
21.631,2072.0
21.632,2075.0
21.633,2074.0
21.634,2071.0
21.635,2067.0
21.636,2073.0
21.637,2072.0
21.638,2076.0
21.639,2069.0
21.64,2066.0
21.641,2065.0
21.642,2062.0
21.643,2063.0
21.644,2068.0
21.645,2074.0
21.646,2073.0
21.647,2068.0
21.648,2068.0
21.649,2063.0
21.65,2069.0
21.651,2070.0
21.652,2080.0
21.653,2071.0
21.654,2082.0
21.655,2080.0
21.656,2074.0
21.657,2074.0
21.658,2065.0
21.659,2059.0
21.66,2069.0
21.661,2062.0
21.662,2065.0
21.663,2069.0
21.664,2079.0
21.665,2080.0
21.666,2069.0
21.667,2075.0
21.668,2075.0
21.669,2072.0
21.67,2080.0
21.671,2078.0
21.672,2074.0
21.673,2074.0
21.674,2073.0
21.675,2073.0
21.676,2078.0
21.677,2076.0
21.678,2077.0
21.679,2078.0
21.68,2082.0
21.681,2080.0
21.682,2081.0
21.683,2071.0
21.684,2074.0
21.685,2076.0
21.686,2070.0
21.687,2075.0
21.688,2078.0
21.689,2075.0
21.69,2077.0
21.691,2074.0
21.692,2073.0
21.693,2076.0
21.694,2075.0
21.695,2078.0
21.696,2074.0
21.697,2070.0
21.698,2069.0
21.699,2073.0
21.7,2072.0
21.701,2068.0
21.702,2068.0
21.703,2074.0
21.704,2081.0
21.705,2095.0
21.706,2081.0
21.707,2072.0
21.708,2068.0
21.709,2080.0
21.71,2052.0
21.711,2049.0
21.712,2049.0
21.713,2070.0
21.714,2074.0
21.715,2075.0
21.716,2065.0
21.717,2068.0
21.718,2070.0
21.719,2064.0
21.72,2065.0
21.721,2062.0
21.722,2060.0
21.723,2071.0
21.724,2070.0
21.725,2065.0
21.726,2063.0
21.727,2067.0
21.728,2062.0
21.729,2063.0
21.73,2067.0
21.731,2073.0
21.732,2079.0
21.733,2071.0
21.734,2068.0
21.735,2061.0
21.736,2074.0
21.737,2061.0
21.738,2062.0
21.739,2069.0
21.74,2070.0
21.741,2061.0
21.742,2063.0
21.743,2066.0
21.744,2068.0
21.745,2064.0
21.746,2051.0
21.747,2068.0
21.748,2067.0
21.749,2066.0
21.75,2065.0
21.751,2063.0
21.752,2061.0
21.753,2073.0
21.754,2064.0
21.755,2053.0
21.756,2054.0
21.757,2045.0
21.758,2047.0
21.759,2042.0
21.76,2042.0
21.761,2049.0
21.762,2055.0
21.763,2052.0
21.764,2048.0
21.765,2056.0
21.766,2053.0
21.767,2059.0
21.768,2063.0
21.769,2059.0
21.77,2053.0
21.771,2054.0
21.772,2064.0
21.773,2062.0
21.774,2063.0
21.775,2075.0
21.776,2077.0
21.777,2071.0
21.778,2068.0
21.779,2080.0
21.78,2083.0
21.781,2076.0
21.782,2079.0
21.783,2079.0
21.784,2072.0
21.785,2072.0
21.786,2073.0
21.787,2077.0
21.788,2064.0
21.789,2060.0
21.79,2068.0
21.791,2070.0
21.792,2078.0
21.793,2084.0
21.794,2084.0
21.795,2085.0
21.796,2078.0
21.797,2062.0
21.798,2058.0
21.799,2058.0
21.8,2062.0
21.801,2064.0
21.802,2060.0
21.803,2051.0
21.804,2050.0
21.805,2045.0
21.806,2056.0
21.807,2058.0
21.808,2065.0
21.809,2033.0
21.81,1973.0
21.811,1897.0
21.812,1813.0
21.813,1724.0
21.814,1769.0
21.815,1915.0
21.816,2180.0
21.817,2352.0
21.818,2458.0
21.819,2534.0
21.82,2574.0
21.821,2609.0
21.822,2606.0
21.823,2625.0
21.824,2587.0
21.825,2526.0
21.826,2426.0
21.827,2344.0
21.828,2281.0
21.829,2234.0
21.83,2201.0
21.831,2154.0
21.832,2122.0
21.833,2079.0
21.834,2030.0
21.835,1961.0
21.836,1910.0
21.837,1881.0
21.838,1882.0
21.839,1869.0
21.84,1879.0
21.841,1874.0
21.842,1868.0
21.843,1872.0
21.844,1873.0
21.845,1875.0
21.846,1880.0
21.847,1882.0
21.848,1895.0
21.849,1895.0
21.85,1880.0
21.851,1881.0
21.852,1903.0
21.853,1893.0
21.854,1909.0
21.855,1924.0
21.856,1919.0
21.857,1918.0
21.858,1919.0
21.859,1916.0
21.86,1922.0
21.861,1920.0
21.862,1938.0
21.863,1941.0
21.864,1942.0
21.865,1929.0
21.866,1938.0
21.867,1937.0
21.868,1936.0
21.869,1930.0
21.87,1933.0
21.871,1935.0
21.872,1939.0
21.873,1943.0
21.874,1945.0
21.875,1944.0
21.876,1940.0
21.877,1937.0
21.878,1930.0
21.879,1925.0
21.88,1937.0
21.881,1940.0
21.882,1925.0
21.883,1932.0
21.884,1938.0
21.885,1942.0
21.886,1946.0
21.887,1944.0
21.888,1943.0
21.889,1939.0
21.89,1945.0
21.891,1952.0
21.892,1955.0
21.893,1959.0
21.894,1970.0
21.895,1973.0
21.896,1972.0
21.897,1982.0
21.898,1984.0
21.899,2002.0
21.9,2009.0
21.901,2016.0
21.902,2028.0
21.903,2037.0
21.904,2053.0
21.905,2065.0
21.906,2074.0
21.907,2081.0
21.908,2100.0
21.909,2105.0
21.91,2114.0
21.911,2112.0
21.912,2127.0
21.913,2131.0
21.914,2140.0
21.915,2134.0
21.916,2145.0
21.917,2153.0
21.918,2169.0
21.919,2171.0
21.92,2173.0
21.921,2180.0
21.922,2170.0
21.923,2174.0
21.924,2178.0
21.925,2173.0
21.926,2185.0
21.927,2179.0
21.928,2187.0
21.929,2191.0
21.93,2185.0
21.931,2184.0
21.932,2177.0
21.933,2173.0
21.934,2178.0
21.935,2177.0
21.936,2179.0
21.937,2164.0
21.938,2166.0
21.939,2172.0
21.94,2169.0
21.941,2155.0
21.942,2150.0
21.943,2153.0
21.944,2147.0
21.945,2146.0
21.946,2145.0
21.947,2155.0
21.948,2146.0
21.949,2145.0
21.95,2147.0
21.951,2147.0
21.952,2144.0
21.953,2131.0
21.954,2128.0
21.955,2123.0
21.956,2123.0
21.957,2127.0
21.958,2124.0
21.959,2127.0
21.96,2118.0
21.961,2110.0
21.962,2113.0
21.963,2123.0
21.964,2116.0
21.965,2113.0
21.966,2106.0
21.967,2101.0
21.968,2102.0
21.969,2094.0
21.97,2095.0
21.971,2102.0
21.972,2104.0
21.973,2101.0
21.974,2102.0
21.975,2098.0
21.976,2098.0
21.977,2093.0
21.978,2090.0
21.979,2087.0
21.98,2098.0
21.981,2085.0
21.982,2082.0
21.983,2090.0
21.984,2086.0
21.985,2087.0
21.986,2084.0
21.987,2088.0
21.988,2075.0
21.989,2084.0
21.99,2086.0
21.991,2080.0
21.992,2082.0
21.993,2079.0
21.994,2076.0
21.995,2078.0
21.996,2077.0
21.997,2073.0
21.998,2077.0
21.999,2080.0
22.0,2076.0
22.001,2079.0
22.002,2079.0
22.003,2083.0
22.004,2088.0
22.005,2080.0
22.006,2074.0
22.007,2069.0
22.008,2079.0
22.009,2079.0
22.01,2074.0
22.011,2081.0
22.012,2083.0
22.013,2083.0
22.014,2081.0
22.015,2082.0
22.016,2076.0
22.017,2077.0
22.018,2080.0
22.019,2084.0
22.02,2082.0
22.021,2078.0
22.022,2072.0
22.023,2037.0
22.024,2080.0
22.025,2071.0
22.026,2076.0
22.027,2077.0
22.028,2085.0
22.029,2083.0
22.03,2087.0
22.031,2081.0
22.032,2077.0
22.033,2076.0
22.034,2079.0
22.035,2077.0
22.036,2076.0
22.037,2071.0
22.038,2065.0
22.039,2068.0
22.04,2075.0
22.041,2082.0
22.042,2072.0
22.043,2072.0
22.044,2079.0
22.045,2068.0
22.046,2077.0
22.047,2073.0
22.048,2066.0
22.049,2076.0
22.05,2072.0
22.051,2062.0
22.052,2069.0
22.053,2063.0
22.054,2068.0
22.055,2063.0
22.056,2064.0
22.057,2076.0
22.058,2077.0
22.059,2071.0
22.06,2073.0
22.061,2065.0
22.062,2060.0
22.063,2056.0
22.064,2056.0
22.065,2066.0
22.066,2064.0
22.067,2056.0
22.068,2058.0
22.069,2064.0
22.07,2060.0
22.071,2055.0
22.072,2053.0
22.073,2055.0
22.074,2048.0
22.075,2045.0
22.076,2048.0
22.077,2057.0
22.078,2060.0
22.079,2056.0
22.08,2047.0
22.081,2053.0
22.082,2051.0
22.083,2056.0
22.084,2060.0
22.085,2058.0
22.086,2066.0
22.087,2066.0
22.088,2069.0
22.089,2062.0
22.09,2060.0
22.091,2065.0
22.092,2072.0
22.093,2075.0
22.094,2078.0
22.095,2074.0
22.096,2083.0
22.097,2081.0
22.098,2084.0
22.099,2085.0
22.1,2081.0
22.101,2075.0
22.102,2072.0
22.103,2063.0
22.104,2068.0
22.105,2075.0
22.106,2072.0
22.107,2071.0
22.108,2083.0
22.109,2091.0
22.11,2070.0
22.111,2071.0
22.112,2072.0
22.113,2081.0
22.114,2080.0
22.115,2086.0
22.116,2078.0
22.117,2074.0
22.118,2077.0
22.119,2034.0
22.12,2062.0
22.121,2078.0
22.122,2058.0
22.123,2068.0
22.124,2063.0
22.125,2035.0
22.126,1997.0
22.127,1924.0
22.128,1856.0
22.129,1782.0
22.13,1721.0
22.131,1803.0
22.132,1967.0
22.133,2182.0
22.134,2371.0
22.135,2462.0
22.136,2535.0
22.137,2566.0
22.138,2590.0
22.139,2580.0
22.14,2583.0
22.141,2550.0
22.142,2476.0
22.143,2397.0
22.144,2334.0
22.145,2285.0
22.146,2255.0
22.147,2220.0
22.148,2169.0
22.149,2113.0
22.15,2079.0
22.151,2033.0
22.152,1973.0
22.153,1935.0
22.154,1911.0
22.155,1890.0
22.156,1888.0
22.157,1880.0
22.158,1872.0
22.159,1873.0
22.16,1878.0
22.161,1880.0
22.162,1885.0
22.163,1882.0
22.164,1885.0
22.165,1884.0
22.166,1892.0
22.167,1907.0
22.168,1893.0
22.169,1899.0
22.17,1911.0
22.171,1918.0
22.172,1912.0
22.173,1913.0
22.174,1926.0
22.175,1919.0
22.176,1917.0
22.177,1926.0
22.178,1931.0
22.179,1934.0
22.18,1936.0
22.181,1940.0
22.182,1930.0
22.183,1941.0
22.184,1938.0
22.185,1943.0
22.186,1945.0
22.187,1927.0
22.188,1941.0
22.189,1943.0
22.19,1935.0
22.191,1935.0
22.192,1927.0
22.193,1931.0
22.194,1934.0
22.195,1934.0
22.196,1936.0
22.197,1927.0
22.198,1926.0
22.199,1931.0
22.2,1937.0
22.201,1936.0
22.202,1933.0
22.203,1924.0
22.204,1931.0
22.205,1936.0
22.206,1943.0
22.207,1949.0
22.208,1949.0
22.209,1953.0
22.21,1955.0
22.211,1959.0
22.212,1975.0
22.213,1988.0
22.214,2031.0
22.215,1995.0
22.216,2001.0
22.217,2012.0
22.218,2028.0
22.219,2037.0
22.22,2043.0
22.221,2062.0
22.222,2086.0
22.223,2078.0
22.224,2084.0
22.225,2098.0
22.226,2111.0
22.227,2135.0
22.228,2126.0
22.229,2128.0
22.23,2126.0
22.231,2139.0
22.232,2154.0
22.233,2146.0
22.234,2153.0
22.235,2163.0
22.236,2157.0
22.237,2161.0
22.238,2170.0
22.239,2169.0
22.24,2176.0
22.241,2184.0
22.242,2181.0
22.243,2170.0
22.244,2170.0
22.245,2166.0
22.246,2162.0
22.247,2161.0
22.248,2171.0
22.249,2169.0
22.25,2169.0
22.251,2173.0
22.252,2168.0
22.253,2165.0
22.254,2159.0
22.255,2156.0
22.256,2158.0
22.257,2155.0
22.258,2154.0
22.259,2147.0
22.26,2149.0
22.261,2144.0
22.262,2140.0
22.263,2139.0
22.264,2138.0
22.265,2141.0
22.266,2132.0
22.267,2127.0
22.268,2137.0
22.269,2135.0
22.27,2127.0
22.271,2110.0
22.272,2117.0
22.273,2119.0
22.274,2113.0
22.275,2116.0
22.276,2112.0
22.277,2117.0
22.278,2112.0
22.279,2105.0
22.28,2101.0
22.281,2093.0
22.282,2095.0
22.283,2097.0
22.284,2090.0
22.285,2099.0
22.286,2098.0
22.287,2092.0
22.288,2095.0
22.289,2091.0
22.29,2085.0
22.291,2087.0
22.292,2090.0
22.293,2096.0
22.294,2096.0
22.295,2091.0
22.296,2082.0
22.297,2076.0
22.298,2088.0
22.299,2082.0
22.3,2083.0
22.301,2083.0
22.302,2085.0
22.303,2081.0
22.304,2085.0
22.305,2088.0
22.306,2075.0
22.307,2081.0
22.308,2074.0
22.309,2080.0
22.31,2077.0
22.311,2065.0
22.312,2070.0
22.313,2074.0
22.314,2084.0
22.315,2091.0
22.316,2082.0
22.317,2071.0
22.318,2073.0
22.319,2076.0
22.32,2075.0
22.321,2083.0
22.322,2074.0
22.323,2072.0
22.324,2078.0
22.325,2078.0
22.326,2077.0
22.327,2072.0
22.328,2078.0
22.329,2076.0
22.33,2074.0
22.331,2079.0
22.332,2080.0
22.333,2076.0
22.334,2062.0
22.335,2077.0
22.336,2078.0
22.337,2076.0
22.338,2084.0
22.339,2085.0
22.34,2081.0
22.341,2082.0
22.342,2067.0
22.343,2073.0
22.344,2071.0
22.345,2078.0
22.346,2080.0
22.347,2072.0
22.348,2076.0
22.349,2087.0
22.35,2082.0
22.351,2068.0
22.352,2072.0
22.353,2073.0
22.354,2073.0
22.355,2071.0
22.356,2068.0
22.357,2078.0
22.358,2077.0
22.359,2073.0
22.36,2079.0
22.361,2078.0
22.362,2078.0
22.363,2075.0
22.364,2077.0
22.365,2079.0
22.366,2078.0
22.367,2064.0
22.368,2064.0
22.369,2066.0
22.37,2077.0
22.371,2071.0
22.372,2077.0
22.373,2070.0
22.374,2074.0
22.375,2069.0
22.376,2059.0
22.377,2064.0
22.378,2062.0
22.379,2071.0
22.38,2071.0
22.381,2074.0
22.382,2071.0
22.383,2071.0
22.384,2065.0
22.385,2073.0
22.386,2078.0
22.387,2056.0
22.388,2057.0
22.389,2053.0
22.39,2053.0
22.391,2051.0
22.392,2050.0
22.393,2038.0
22.394,2039.0
22.395,2045.0
22.396,2043.0
22.397,2050.0
22.398,2045.0
22.399,2051.0
22.4,2063.0
22.401,2060.0
22.402,2082.0
22.403,2065.0
22.404,2074.0
22.405,2073.0
22.406,2076.0
22.407,2086.0
22.408,2088.0
22.409,2083.0
22.41,2090.0
22.411,2091.0
22.412,2090.0
22.413,2092.0
22.414,2092.0
22.415,2097.0
22.416,2099.0
22.417,2095.0
22.418,2100.0
22.419,2097.0
22.42,2095.0
22.421,2097.0
22.422,2096.0
22.423,2079.0
22.424,2081.0
22.425,2087.0
22.426,2087.0
22.427,2085.0
22.428,2083.0
22.429,2092.0
22.43,2091.0
22.431,2090.0
22.432,2090.0
22.433,2088.0
22.434,2087.0
22.435,2079.0
22.436,2077.0
22.437,2065.0
22.438,2062.0
22.439,2066.0
22.44,2083.0
22.441,2085.0
22.442,2094.0
22.443,2052.0
22.444,1982.0
22.445,1920.0
22.446,1835.0
22.447,1793.0
22.448,1829.0
22.449,2006.0
22.45,2252.0
22.451,2462.0
22.452,2560.0
22.453,2589.0
22.454,2623.0
22.455,2660.0
22.456,2646.0
22.457,2644.0
22.458,2606.0
22.459,2526.0
22.46,2431.0
22.461,2350.0
22.462,2302.0
22.463,2242.0
22.464,2194.0
22.465,2147.0
22.466,2097.0
22.467,2031.0
22.468,1960.0
22.469,1905.0
22.47,1867.0
22.471,1849.0
22.472,1846.0
22.473,1836.0
22.474,1840.0
22.475,1844.0
22.476,1847.0
22.477,1860.0
22.478,1861.0
22.479,1851.0
22.48,1857.0
22.481,1859.0
22.482,1858.0
22.483,1864.0
22.484,1870.0
22.485,1873.0
22.486,1879.0
22.487,1888.0
22.488,1888.0
22.489,1896.0
22.49,1894.0
22.491,1893.0
22.492,1895.0
22.493,1900.0
22.494,1910.0
22.495,1911.0
22.496,1913.0
22.497,1908.0
22.498,1914.0
22.499,1919.0
22.5,1908.0
22.501,1915.0
22.502,1919.0
22.503,1914.0
22.504,1927.0
22.505,1929.0
22.506,1928.0
22.507,1925.0
22.508,1914.0
22.509,1921.0
22.51,1931.0
22.511,1928.0
22.512,1936.0
22.513,1928.0
22.514,1909.0
22.515,1917.0
22.516,1908.0
22.517,1914.0
22.518,1921.0
22.519,1923.0
22.52,1924.0
22.521,1934.0
22.522,1931.0
22.523,1933.0
22.524,1926.0
22.525,1935.0
22.526,1945.0
22.527,1950.0
22.528,1955.0
22.529,1972.0
22.53,1971.0
22.531,1966.0
22.532,1988.0
22.533,1975.0
22.534,1992.0
22.535,2006.0
22.536,2021.0
22.537,2042.0
22.538,2032.0
22.539,2054.0
22.54,2061.0
22.541,2071.0
22.542,2084.0
22.543,2099.0
22.544,2105.0
22.545,2104.0
22.546,2118.0
22.547,2122.0
22.548,2130.0
22.549,2142.0
22.55,2142.0
22.551,2147.0
22.552,2171.0
22.553,2159.0
22.554,2164.0
22.555,2165.0
22.556,2166.0
22.557,2162.0
22.558,2164.0
22.559,2158.0
22.56,2170.0
22.561,2171.0
22.562,2172.0
22.563,2176.0
22.564,2170.0
22.565,2167.0
22.566,2169.0
22.567,2175.0
22.568,2176.0
22.569,2165.0
22.57,2164.0
22.571,2167.0
22.572,2168.0
22.573,2164.0
22.574,2156.0
22.575,2151.0
22.576,2149.0
22.577,2150.0
22.578,2146.0
22.579,2155.0
22.58,2143.0
22.581,2136.0
22.582,2144.0
22.583,2134.0
22.584,2132.0
22.585,2134.0
22.586,2132.0
22.587,2136.0
22.588,2137.0
22.589,2124.0
22.59,2120.0
22.591,2127.0
22.592,2116.0
22.593,2105.0
22.594,2113.0
22.595,2113.0
22.596,2112.0
22.597,2112.0
22.598,2108.0
22.599,2104.0
22.6,2099.0
22.601,2100.0
22.602,2095.0
22.603,2095.0
22.604,2091.0
22.605,2091.0
22.606,2088.0
22.607,2086.0
22.608,2084.0
22.609,2087.0
22.61,2081.0
22.611,2090.0
22.612,2091.0
22.613,2092.0
22.614,2091.0
22.615,2072.0
22.616,2080.0
22.617,2077.0
22.618,2067.0
22.619,2074.0
22.62,2081.0
22.621,2081.0
22.622,2085.0
22.623,2083.0
22.624,2083.0
22.625,2074.0
22.626,2070.0
22.627,2068.0
22.628,2068.0
22.629,2074.0
22.63,2076.0
22.631,2076.0
22.632,2071.0
22.633,2070.0
22.634,2074.0
22.635,2079.0
22.636,2073.0
22.637,2084.0
22.638,2078.0
22.639,2064.0
22.64,2067.0
22.641,2067.0
22.642,2075.0
22.643,2079.0
22.644,2076.0
22.645,2078.0
22.646,2070.0
22.647,2072.0
22.648,2082.0
22.649,2107.0
22.65,2074.0
22.651,2076.0
22.652,2068.0
22.653,2070.0
22.654,2079.0
22.655,2068.0
22.656,2063.0
22.657,2063.0
22.658,2066.0
22.659,2072.0
22.66,2065.0
22.661,2067.0
22.662,2062.0
22.663,2067.0
22.664,2070.0
22.665,2074.0
22.666,2076.0
22.667,2077.0
22.668,2064.0
22.669,2061.0
22.67,2063.0
22.671,2063.0
22.672,2065.0
22.673,2068.0
22.674,2072.0
22.675,2071.0
22.676,2075.0
22.677,2074.0
22.678,2075.0
22.679,2062.0
22.68,2061.0
22.681,2070.0
22.682,2070.0
22.683,2063.0
22.684,2063.0
22.685,2065.0
22.686,2065.0
22.687,2063.0
22.688,2057.0
22.689,2067.0
22.69,2063.0
22.691,2068.0
22.692,2068.0
22.693,2064.0
22.694,2072.0
22.695,2070.0
22.696,2068.0
22.697,2070.0
22.698,2075.0
22.699,2065.0
22.7,2060.0
22.701,2060.0
22.702,2059.0
22.703,2076.0
22.704,2070.0
22.705,2065.0
22.706,2051.0
22.707,2054.0
22.708,2048.0
22.709,2042.0
22.71,2043.0
22.711,2032.0
22.712,2042.0
22.713,2053.0
22.714,2062.0
22.715,2057.0
22.716,2043.0
22.717,2045.0
22.718,2057.0
22.719,2049.0
22.72,2049.0
22.721,2065.0
22.722,2071.0
22.723,2073.0
22.724,2075.0
22.725,2067.0
22.726,2070.0
22.727,2069.0
22.728,2086.0
22.729,2093.0
22.73,2084.0
22.731,2090.0
22.732,2089.0
22.733,2088.0
22.734,2088.0
22.735,2089.0
22.736,2089.0
22.737,2082.0
22.738,2078.0
22.739,2078.0
22.74,2083.0
22.741,2087.0
22.742,2090.0
22.743,2082.0
22.744,2086.0
22.745,2079.0
22.746,2089.0
22.747,2084.0
22.748,2080.0
22.749,2078.0
22.75,2079.0
22.751,2081.0
22.752,2084.0
22.753,2085.0
22.754,2074.0
22.755,2061.0
22.756,2055.0
22.757,2062.0
22.758,2105.0
22.759,2087.0
22.76,2090.0
22.761,2063.0
22.762,1986.0
22.763,1924.0
22.764,1835.0
22.765,1797.0
22.766,1833.0
22.767,1995.0
22.768,2230.0
22.769,2452.0
22.77,2547.0
22.771,2582.0
22.772,2626.0
22.773,2651.0
22.774,2638.0
22.775,2647.0
22.776,2604.0
22.777,2526.0
22.778,2434.0
22.779,2370.0
22.78,2309.0
22.781,2240.0
22.782,2167.0
22.783,2137.0
22.784,2079.0
22.785,2017.0
22.786,1955.0
22.787,1910.0
22.788,1882.0
22.789,1856.0
22.79,1843.0
22.791,1846.0
22.792,1852.0
22.793,1862.0
22.794,1854.0
22.795,1856.0
22.796,1861.0
22.797,1856.0
22.798,1866.0
22.799,1864.0
22.8,1868.0
22.801,1881.0
22.802,1881.0
22.803,1881.0
22.804,1878.0
22.805,1890.0
22.806,1887.0
22.807,1898.0
22.808,1899.0
22.809,1906.0
22.81,1908.0
22.811,1909.0
22.812,1911.0
22.813,1909.0
22.814,1920.0
22.815,1913.0
22.816,1924.0
22.817,1922.0
22.818,1921.0
22.819,1918.0
22.82,1918.0
22.821,1923.0
22.822,1928.0
22.823,1925.0
22.824,1929.0
22.825,1937.0
22.826,1932.0
22.827,1924.0
22.828,1928.0
22.829,1926.0
22.83,1928.0
22.831,1922.0
22.832,1922.0
22.833,1915.0
22.834,1919.0
22.835,1930.0
22.836,1941.0
22.837,1936.0
22.838,1935.0
22.839,1930.0
22.84,1930.0
22.841,1935.0
22.842,1944.0
22.843,1945.0
22.844,1944.0
22.845,1950.0
22.846,1960.0
22.847,1976.0
22.848,1969.0
22.849,1984.0
22.85,1983.0
22.851,2000.0
22.852,2004.0
22.853,2003.0
22.854,2025.0
22.855,2033.0
22.856,2039.0
22.857,2054.0
22.858,2031.0
22.859,2082.0
22.86,2089.0
22.861,2101.0
22.862,2108.0
22.863,2116.0
22.864,2112.0
22.865,2123.0
22.866,2138.0
22.867,2146.0
22.868,2155.0
22.869,2150.0
22.87,2154.0
22.871,2160.0
22.872,2161.0
22.873,2169.0
22.874,2164.0
22.875,2169.0
22.876,2173.0
22.877,2171.0
22.878,2174.0
22.879,2176.0
22.88,2165.0
22.881,2171.0
22.882,2178.0
22.883,2173.0
22.884,2171.0
22.885,2171.0
22.886,2166.0
22.887,2172.0
22.888,2152.0
22.889,2155.0
22.89,2161.0
22.891,2151.0
22.892,2164.0
22.893,2152.0
22.894,2153.0
22.895,2159.0
22.896,2145.0
22.897,2139.0
22.898,2148.0
22.899,2146.0
22.9,2139.0
22.901,2132.0
22.902,2139.0
22.903,2126.0
22.904,2125.0
22.905,2118.0
22.906,2121.0
22.907,2133.0
22.908,2118.0
22.909,2119.0
22.91,2113.0
22.911,2121.0
22.912,2114.0
22.913,2115.0
22.914,2110.0
22.915,2105.0
22.916,2117.0
22.917,2113.0
22.918,2107.0
22.919,2094.0
22.92,2103.0
22.921,2108.0
22.922,2105.0
22.923,2100.0
22.924,2094.0
22.925,2094.0
22.926,2101.0
22.927,2092.0
22.928,2087.0
22.929,2088.0
22.93,2088.0
22.931,2093.0
22.932,2089.0
22.933,2085.0
22.934,2086.0
22.935,2085.0
22.936,2075.0
22.937,2089.0
22.938,2083.0
22.939,2080.0
22.94,2078.0
22.941,2085.0
22.942,2090.0
22.943,2094.0
22.944,2073.0
22.945,2070.0
22.946,2088.0
22.947,2072.0
22.948,2069.0
22.949,2072.0
22.95,2074.0
22.951,2079.0
22.952,2086.0
22.953,2087.0
22.954,2084.0
22.955,2080.0
22.956,2081.0
22.957,2088.0
22.958,2076.0
22.959,2074.0
22.96,2065.0
22.961,2065.0
22.962,2081.0
22.963,2078.0
22.964,2084.0
22.965,2079.0
22.966,2081.0
22.967,2077.0
22.968,2076.0
22.969,2088.0
22.97,2084.0
22.971,2069.0
22.972,2063.0
22.973,2062.0
22.974,2063.0
22.975,2070.0
22.976,2067.0
22.977,2073.0
22.978,2071.0
22.979,2076.0
22.98,2076.0
22.981,2076.0
22.982,2068.0
22.983,2066.0
22.984,2072.0
22.985,2082.0
22.986,2078.0
22.987,2074.0
22.988,2072.0
22.989,2077.0
22.99,2065.0
22.991,2070.0
22.992,2076.0
22.993,2062.0
22.994,2063.0
22.995,2069.0
22.996,2078.0
22.997,2072.0
22.998,2067.0
22.999,2075.0
23.0,2073.0
23.001,2068.0
23.002,2072.0
23.003,2067.0
23.004,2068.0
23.005,2067.0
23.006,2072.0
23.007,2074.0
23.008,2061.0
23.009,2069.0
23.01,2070.0
23.011,2063.0
23.012,2070.0
23.013,2066.0
23.014,2064.0
23.015,2067.0
23.016,2056.0
23.017,2065.0
23.018,2065.0
23.019,2064.0
23.02,2062.0
23.021,2062.0
23.022,2058.0
23.023,2058.0
23.024,2059.0
23.025,2061.0
23.026,2067.0
23.027,2065.0
23.028,2070.0
23.029,2070.0
23.03,2067.0
23.031,2053.0
23.032,2056.0
23.033,2051.0
23.034,2058.0
23.035,2056.0
23.036,2059.0
23.037,2048.0
23.038,2051.0
23.039,2045.0
23.04,2051.0
23.041,2046.0
23.042,2038.0
23.043,2046.0
23.044,2048.0
23.045,2047.0
23.046,2037.0
23.047,2051.0
23.048,2049.0
23.049,2042.0
23.05,2037.0
23.051,2039.0
23.052,2055.0
23.053,2052.0
23.054,2055.0
23.055,2059.0
23.056,2053.0
23.057,2052.0
23.058,2048.0
23.059,2061.0
23.06,2066.0
23.061,2063.0
23.062,2069.0
23.063,2079.0
23.064,2080.0
23.065,2085.0
23.066,2089.0
23.067,2079.0
23.068,2058.0
23.069,2067.0
23.07,2068.0
23.071,2063.0
23.072,2064.0
23.073,2075.0
23.074,2069.0
23.075,2072.0
23.076,2073.0
23.077,2067.0
23.078,2078.0
23.079,2087.0
23.08,2081.0
23.081,2069.0
23.082,2068.0
23.083,2074.0
23.084,2074.0
23.085,2061.0
23.086,2070.0
23.087,2062.0
23.088,2063.0
23.089,2057.0
23.09,2060.0
23.091,2069.0
23.092,2075.0
23.093,2072.0
23.094,2040.0
23.095,1984.0
23.096,1921.0
23.097,1823.0
23.098,1764.0
23.099,1765.0
23.1,1879.0
23.101,2093.0
23.102,2309.0
23.103,2448.0
23.104,2510.0
23.105,2565.0
23.106,2602.0
23.107,2598.0
23.108,2602.0
23.109,2587.0
23.11,2530.0
23.111,2443.0
23.112,2355.0
23.113,2291.0
23.114,2248.0
23.115,2208.0
23.116,2167.0
23.117,2125.0
23.118,2077.0
23.119,2026.0
23.12,1982.0
23.121,1933.0
23.122,1912.0
23.123,1902.0
23.124,1888.0
23.125,1873.0
23.126,1856.0
23.127,1862.0
23.128,1879.0
23.129,1883.0
23.13,1866.0
23.131,1881.0
23.132,1882.0
23.133,1891.0
23.134,1891.0
23.135,1897.0
23.136,1907.0
23.137,1898.0
23.138,1899.0
23.139,1908.0
23.14,1914.0
23.141,1913.0
23.142,1923.0
23.143,1922.0
23.144,1916.0
23.145,1918.0
23.146,1928.0
23.147,1940.0
23.148,1940.0
23.149,1926.0
23.15,1924.0
23.151,1924.0
23.152,1929.0
23.153,1921.0
23.154,1930.0
23.155,1937.0
23.156,1945.0
23.157,1946.0
23.158,1944.0
23.159,1934.0
23.16,1930.0
23.161,1927.0
23.162,1930.0
23.163,1935.0
23.164,1930.0
23.165,1933.0
23.166,1929.0
23.167,1922.0
23.168,1916.0
23.169,1917.0
23.17,1925.0
23.171,1926.0
23.172,1939.0
23.173,1939.0
23.174,1947.0
23.175,1948.0
23.176,1958.0
23.177,1952.0
23.178,1943.0
23.179,1954.0
23.18,1970.0
23.181,1977.0
23.182,1973.0
23.183,1991.0
23.184,1999.0
23.185,2004.0
23.186,2011.0
23.187,2032.0
23.188,2025.0
23.189,2045.0
23.19,2058.0
23.191,2067.0
23.192,2073.0
23.193,2070.0
23.194,2096.0
23.195,2106.0
23.196,2116.0
23.197,2114.0
23.198,2118.0
23.199,2132.0
23.2,2137.0
23.201,2150.0
23.202,2144.0
23.203,2149.0
23.204,2155.0
23.205,2163.0
23.206,2163.0
23.207,2159.0
23.208,2156.0
23.209,2160.0
23.21,2164.0
23.211,2169.0
23.212,2170.0
23.213,2182.0
23.214,2177.0
23.215,2162.0
23.216,2164.0
23.217,2164.0
23.218,2163.0
23.219,2170.0
23.22,2166.0
23.221,2167.0
23.222,2158.0
23.223,2149.0
23.224,2154.0
23.225,2152.0
23.226,2142.0
23.227,2130.0
23.228,2132.0
23.229,2137.0
23.23,2126.0
23.231,2124.0
23.232,2119.0
23.233,2131.0
23.234,2123.0
23.235,2127.0
23.236,2125.0
23.237,2122.0
23.238,2116.0
23.239,2120.0
23.24,2114.0
23.241,2110.0
23.242,2108.0
23.243,2115.0
23.244,2122.0
23.245,2108.0
23.246,2102.0
23.247,2098.0
23.248,2104.0
23.249,2096.0
23.25,2093.0
23.251,2103.0
23.252,2112.0
23.253,2095.0
23.254,2098.0
23.255,2093.0
23.256,2091.0
23.257,2094.0
23.258,2084.0
23.259,2087.0
23.26,2089.0
23.261,2093.0
23.262,2091.0
23.263,2088.0
23.264,2089.0
23.265,2089.0
23.266,2092.0
23.267,2085.0
23.268,2080.0
23.269,2081.0
23.27,2044.0
23.271,2079.0
23.272,2080.0
23.273,2089.0
23.274,2091.0
23.275,2076.0
23.276,2073.0
23.277,2076.0
23.278,2077.0
23.279,2078.0
23.28,2078.0
23.281,2076.0
23.282,2074.0
23.283,2082.0
23.284,2087.0
23.285,2088.0
23.286,2088.0
23.287,2078.0
23.288,2073.0
23.289,2069.0
23.29,2080.0
23.291,2076.0
23.292,2080.0
23.293,2082.0
23.294,2080.0
23.295,2073.0
23.296,2075.0
23.297,2075.0
23.298,2076.0
23.299,2070.0
23.3,2079.0
23.301,2078.0
23.302,2069.0
23.303,2071.0
23.304,2074.0
23.305,2080.0
23.306,2084.0
23.307,2084.0
23.308,2080.0
23.309,2078.0
23.31,2078.0
23.311,2075.0
23.312,2089.0
23.313,2089.0
23.314,2096.0
23.315,2090.0
23.316,2079.0
23.317,2079.0
23.318,2084.0
23.319,2083.0
23.32,2089.0
23.321,2077.0
23.322,2070.0
23.323,2077.0
23.324,2083.0
23.325,2079.0
23.326,2079.0
23.327,2077.0
23.328,2088.0
23.329,2074.0
23.33,2072.0
23.331,2073.0
23.332,2064.0
23.333,2073.0
23.334,2070.0
23.335,2078.0
23.336,2082.0
23.337,2076.0
23.338,2075.0
23.339,2063.0
23.34,2065.0
23.341,2066.0
23.342,2059.0
23.343,2062.0
23.344,2061.0
23.345,2063.0
23.346,2061.0
23.347,2052.0
23.348,2046.0
23.349,2043.0
23.35,2047.0
23.351,2055.0
23.352,2062.0
23.353,2058.0
23.354,2048.0
23.355,2034.0
23.356,2046.0
23.357,2039.0
23.358,2048.0
23.359,2060.0
23.36,2061.0
23.361,2059.0
23.362,2057.0
23.363,2062.0
23.364,2056.0
23.365,2062.0
23.366,2072.0
23.367,2070.0
23.368,2074.0
23.369,2080.0
23.37,2070.0
23.371,2064.0
23.372,2078.0
23.373,2093.0
23.374,2100.0
23.375,2078.0
23.376,2067.0
23.377,2058.0
23.378,2067.0
23.379,2067.0
23.38,2067.0
23.381,2070.0
23.382,2073.0
23.383,2069.0
23.384,2069.0
23.385,2073.0
23.386,2084.0
23.387,2068.0
23.388,2058.0
23.389,2058.0
23.39,2065.0
23.391,2058.0
23.392,2057.0
23.393,2056.0
23.394,2059.0
23.395,2043.0
23.396,2051.0
23.397,2046.0
23.398,2052.0
23.399,2033.0
23.4,1988.0
23.401,1921.0
23.402,1839.0
23.403,1759.0
23.404,1712.0
23.405,1788.0
23.406,1973.0
23.407,2188.0
23.408,2372.0
23.409,2458.0
23.41,2525.0
23.411,2569.0
23.412,2588.0
23.413,2582.0
23.414,2581.0
23.415,2540.0
23.416,2481.0
23.417,2376.0
23.418,2311.0
23.419,2276.0
23.42,2230.0
23.421,2200.0
23.422,2160.0
23.423,2115.0
23.424,2078.0
23.425,2027.0
23.426,1960.0
23.427,1915.0
23.428,1899.0
23.429,1890.0
23.43,1875.0
23.431,1879.0
23.432,1885.0
23.433,1882.0
23.434,1886.0
23.435,1891.0
23.436,1896.0
23.437,1907.0
23.438,1895.0
23.439,1898.0
23.44,1907.0
23.441,1904.0
23.442,1906.0
23.443,1904.0
23.444,1920.0
23.445,1928.0
23.446,1926.0
23.447,1926.0
23.448,1921.0
23.449,1923.0
23.45,1930.0
23.451,1929.0
23.452,1932.0
23.453,1938.0
23.454,1944.0
23.455,1934.0
23.456,1933.0
23.457,1929.0
23.458,1933.0
23.459,1933.0
23.46,1936.0
23.461,1937.0
23.462,1942.0
23.463,1923.0
23.464,1931.0
23.465,1927.0
23.466,1927.0
23.467,1926.0
23.468,1926.0
23.469,1920.0
23.47,1923.0
23.471,1926.0
23.472,1931.0
23.473,1910.0
23.474,1921.0
23.475,1937.0
23.476,1924.0
23.477,1915.0
23.478,1922.0
23.479,1939.0
23.48,1946.0
23.481,1945.0
23.482,1943.0
23.483,1943.0
23.484,1951.0
23.485,1950.0
23.486,1965.0
23.487,1970.0
23.488,1983.0
23.489,1986.0
23.49,1998.0
23.491,2001.0
23.492,2015.0
23.493,2023.0
23.494,2041.0
23.495,2050.0
23.496,2059.0
23.497,2060.0
23.498,2076.0
23.499,2089.0
23.5,2094.0
23.501,2104.0
23.502,2155.0
23.503,2115.0
23.504,2112.0
23.505,2123.0
23.506,2144.0
23.507,2145.0
23.508,2133.0
23.509,2137.0
23.51,2148.0
23.511,2155.0
23.512,2156.0
23.513,2158.0
23.514,2153.0
23.515,2157.0
23.516,2158.0
23.517,2166.0
23.518,2160.0
23.519,2158.0
23.52,2167.0
23.521,2162.0
23.522,2155.0
23.523,2157.0
23.524,2160.0
23.525,2157.0
23.526,2153.0
23.527,2149.0
23.528,2146.0
23.529,2154.0
23.53,2147.0
23.531,2149.0
23.532,2143.0
23.533,2142.0
23.534,2139.0
23.535,2127.0
23.536,2127.0
23.537,2132.0
23.538,2140.0
23.539,2140.0
23.54,2123.0
23.541,2127.0
23.542,2119.0
23.543,2107.0
23.544,2113.0
23.545,2104.0
23.546,2106.0
23.547,2101.0
23.548,2098.0
23.549,2104.0
23.55,2104.0
23.551,2103.0
23.552,2098.0
23.553,2092.0
23.554,2094.0
23.555,2095.0
23.556,2088.0
23.557,2091.0
23.558,2091.0
23.559,2087.0
23.56,2079.0
23.561,2084.0
23.562,2093.0
23.563,2084.0
23.564,2077.0
23.565,2080.0
23.566,2076.0
23.567,2065.0
23.568,2074.0
23.569,2074.0
23.57,2079.0
23.571,2075.0
23.572,2067.0
23.573,2072.0
23.574,2059.0
23.575,2055.0
23.576,2073.0
23.577,2077.0
23.578,2069.0
23.579,2073.0
23.58,2077.0
23.581,2079.0
23.582,2064.0
23.583,2060.0
23.584,2062.0
23.585,2060.0
23.586,2065.0
23.587,2062.0
23.588,2064.0
23.589,2068.0
23.59,2065.0
23.591,2059.0
23.592,2074.0
23.593,2077.0
23.594,2071.0
23.595,2067.0
23.596,2068.0
23.597,2063.0
23.598,2069.0
23.599,2060.0
23.6,2067.0
23.601,2072.0
23.602,2070.0
23.603,2058.0
23.604,2059.0
23.605,2060.0
23.606,2060.0
23.607,2063.0
23.608,2067.0
23.609,2069.0
23.61,2066.0
23.611,2077.0
23.612,2073.0
23.613,2068.0
23.614,2067.0
23.615,2061.0
23.616,2061.0
23.617,2076.0
23.618,2068.0
23.619,2064.0
23.62,2060.0
23.621,2062.0
23.622,2057.0
23.623,2065.0
23.624,2072.0
23.625,2071.0
23.626,2071.0
23.627,2076.0
23.628,2064.0
23.629,2051.0
23.63,2053.0
23.631,2065.0
23.632,2057.0
23.633,2056.0
23.634,2064.0
23.635,2056.0
23.636,2061.0
23.637,2064.0
23.638,2054.0
23.639,2056.0
23.64,2062.0
23.641,2064.0
23.642,2064.0
23.643,2062.0
23.644,2054.0
23.645,2061.0
23.646,2076.0
23.647,2063.0
23.648,2056.0
23.649,2059.0
23.65,2060.0
23.651,2055.0
23.652,2055.0
23.653,2050.0
23.654,2059.0
23.655,2061.0
23.656,2062.0
23.657,2063.0
23.658,2062.0
23.659,2063.0
23.66,2059.0
23.661,2056.0
23.662,2050.0
23.663,2042.0
23.664,2041.0
23.665,2044.0
23.666,2051.0
23.667,2044.0
23.668,2049.0
23.669,2051.0
23.67,2044.0
23.671,2030.0
23.672,2026.0
23.673,2026.0
23.674,2032.0
23.675,2040.0
23.676,2049.0
23.677,2038.0
23.678,2041.0
23.679,2046.0
23.68,2053.0
23.681,2047.0
23.682,2045.0
23.683,2044.0
23.684,2050.0
23.685,2047.0
23.686,2055.0
23.687,2056.0
23.688,2057.0
23.689,2063.0
23.69,2061.0
23.691,2073.0
23.692,2062.0
23.693,2076.0
23.694,2074.0
23.695,2064.0
23.696,2064.0
23.697,2068.0
23.698,2064.0
23.699,2066.0
23.7,2067.0
23.701,2071.0
23.702,2064.0
23.703,2058.0
23.704,2060.0
23.705,2067.0
23.706,2060.0
23.707,2068.0
23.708,2064.0
23.709,2068.0
23.71,2070.0
23.711,2065.0
23.712,2053.0
23.713,2064.0
23.714,2060.0
23.715,2065.0
23.716,2065.0
23.717,2054.0
23.718,2048.0
23.719,2042.0
23.72,2045.0
23.721,2060.0
23.722,2049.0
23.723,2030.0
23.724,1988.0
23.725,1921.0
23.726,1828.0
23.727,1783.0
23.728,1792.0
23.729,1962.0
23.73,2195.0
23.731,2404.0
23.732,2535.0
23.733,2577.0
23.734,2621.0
23.735,2651.0
23.736,2631.0
23.737,2628.0
23.738,2601.0
23.739,2531.0
23.74,2431.0
23.741,2355.0
23.742,2305.0
23.743,2249.0
23.744,2192.0
23.745,2143.0
23.746,2093.0
23.747,2034.0
23.748,1962.0
23.749,1907.0
23.75,1875.0
23.751,1852.0
23.752,1827.0
23.753,1828.0
23.754,1830.0
23.755,1826.0
23.756,1839.0
23.757,1840.0
23.758,1840.0
23.759,1849.0
23.76,1854.0
23.761,1848.0
23.762,1846.0
23.763,1860.0
23.764,1862.0
23.765,1870.0
23.766,1874.0
23.767,1876.0
23.768,1883.0
23.769,1885.0
23.77,1897.0
23.771,1890.0
23.772,1888.0
23.773,1895.0
23.774,1899.0
23.775,1898.0
23.776,1903.0
23.777,1907.0
23.778,1899.0
23.779,1909.0
23.78,1916.0
23.781,1914.0
23.782,1921.0
23.783,1919.0
23.784,1936.0
23.785,1913.0
23.786,1905.0
23.787,1936.0
23.788,1910.0
23.789,1912.0
23.79,1924.0
23.791,1915.0
23.792,1916.0
23.793,1913.0
23.794,1911.0
23.795,1916.0
23.796,1911.0
23.797,1914.0
23.798,1912.0
23.799,1920.0
23.8,1920.0
23.801,1930.0
23.802,1927.0
23.803,1927.0
23.804,1914.0
23.805,1924.0
23.806,1935.0
23.807,1947.0
23.808,1950.0
23.809,1955.0
23.81,1962.0
23.811,1977.0
23.812,1986.0
23.813,1977.0
23.814,1992.0
23.815,2007.0
23.816,2008.0
23.817,2026.0
23.818,2043.0
23.819,2048.0
23.82,2057.0
23.821,2066.0
23.822,2089.0
23.823,2098.0
23.824,2100.0
23.825,2119.0
23.826,2126.0
23.827,2134.0
23.828,2123.0
23.829,2145.0
23.83,2138.0
23.831,2147.0
23.832,2151.0
23.833,2157.0
23.834,2157.0
23.835,2164.0
23.836,2172.0
23.837,2163.0
23.838,2174.0
23.839,2167.0
23.84,2168.0
23.841,2180.0
23.842,2179.0
23.843,2170.0
23.844,2165.0
23.845,2170.0
23.846,2168.0
23.847,2164.0
23.848,2163.0
23.849,2163.0
23.85,2160.0
23.851,2155.0
23.852,2155.0
23.853,2156.0
23.854,2162.0
23.855,2158.0
23.856,2165.0
23.857,2161.0
23.858,2155.0
23.859,2141.0
23.86,2141.0
23.861,2150.0
23.862,2148.0
23.863,2137.0
23.864,2143.0
23.865,2137.0
23.866,2128.0
23.867,2123.0
23.868,2117.0
23.869,2123.0
23.87,2124.0
23.871,2122.0
23.872,2121.0
23.873,2126.0
23.874,2117.0
23.875,2115.0
23.876,2104.0
23.877,2110.0
23.878,2108.0
23.879,2099.0
23.88,2105.0
23.881,2112.0
23.882,2110.0
23.883,2110.0
23.884,2106.0
23.885,2109.0
23.886,2098.0
23.887,2091.0
23.888,2089.0
23.889,2094.0
23.89,2096.0
23.891,2082.0
23.892,2081.0
23.893,2089.0
23.894,2106.0
23.895,2083.0
23.896,2085.0
23.897,2089.0
23.898,2083.0
23.899,2089.0
23.9,2082.0
23.901,2085.0
23.902,2081.0
23.903,2070.0
23.904,2070.0
23.905,2076.0
23.906,2067.0
23.907,2068.0
23.908,2076.0
23.909,2074.0
23.91,2077.0
23.911,2069.0
23.912,2068.0
23.913,2064.0
23.914,2057.0
23.915,2063.0
23.916,2067.0
23.917,2063.0
23.918,2061.0
23.919,2072.0
23.92,2076.0
23.921,2078.0
23.922,2078.0
23.923,2072.0
23.924,2059.0
23.925,2067.0
23.926,2063.0
23.927,2068.0
23.928,2070.0
23.929,2071.0
23.93,2080.0
23.931,2070.0
23.932,2069.0
23.933,2064.0
23.934,2057.0
23.935,2070.0
23.936,2077.0
23.937,2067.0
23.938,2063.0
23.939,2071.0
23.94,2064.0
23.941,2063.0
23.942,2061.0
23.943,2064.0
23.944,2062.0
23.945,2063.0
23.946,2058.0
23.947,2067.0
23.948,2072.0
23.949,2065.0
23.95,2061.0
23.951,2060.0
23.952,2055.0
23.953,2056.0
23.954,2053.0
23.955,2058.0
23.956,2066.0
23.957,2069.0
23.958,2072.0
23.959,2069.0
23.96,2064.0
23.961,2067.0
23.962,2066.0
23.963,2061.0
23.964,2054.0
23.965,2056.0
23.966,2060.0
23.967,2066.0
23.968,2055.0
23.969,2050.0
23.97,2057.0
23.971,2054.0
23.972,2055.0
23.973,2060.0
23.974,2060.0
23.975,2064.0
23.976,2059.0
23.977,2051.0
23.978,2053.0
23.979,2056.0
23.98,2056.0
23.981,2059.0
23.982,2065.0
23.983,2070.0
23.984,2062.0
23.985,2047.0
23.986,2049.0
23.987,2047.0
23.988,2051.0
23.989,2064.0
23.99,2072.0
23.991,2068.0
23.992,2066.0
23.993,2073.0
23.994,2056.0
23.995,2053.0
23.996,2061.0
23.997,2094.0
23.998,2061.0
23.999,2065.0
24.0,2053.0
24.001,2062.0
24.002,2051.0
24.003,2051.0
24.004,2045.0
24.005,2092.0
24.006,2050.0
24.007,2043.0
24.008,2037.0
24.009,2041.0
24.01,2028.0
24.011,2030.0
24.012,2039.0
24.013,2040.0
24.014,2038.0
24.015,2040.0
24.016,2031.0
24.017,2035.0
24.018,2047.0
24.019,2038.0
24.02,2046.0
24.021,2046.0
24.022,2047.0
24.023,2051.0
24.024,2057.0
24.025,2058.0
24.026,2066.0
24.027,2065.0
24.028,2069.0
24.029,2080.0
24.03,2076.0
24.031,2079.0
24.032,2074.0
24.033,2070.0
24.034,2073.0
24.035,2064.0
24.036,2063.0
24.037,2075.0
24.038,2073.0
24.039,2073.0
24.04,2079.0
24.041,2074.0
24.042,2072.0
24.043,2067.0
24.044,2077.0
24.045,2061.0
24.046,2064.0
24.047,2068.0
24.048,2065.0
24.049,2065.0
24.05,2061.0
24.051,2064.0
24.052,2063.0
24.053,2059.0
24.054,2056.0
24.055,2050.0
24.056,2047.0
24.057,2056.0
24.058,2067.0
24.059,2054.0
24.06,2008.0
24.061,1950.0
24.062,1860.0
24.063,1815.0
24.064,1793.0
24.065,1905.0
24.066,2136.0
24.067,2363.0
24.068,2516.0
24.069,2560.0
24.07,2602.0
24.071,2634.0
24.072,2639.0
24.073,2633.0
24.074,2611.0
24.075,2558.0
24.076,2463.0
24.077,2389.0
24.078,2329.0
24.079,2257.0
24.08,2191.0
24.081,2141.0
24.082,2097.0
24.083,2038.0
24.084,1970.0
24.085,1913.0
24.086,1880.0
24.087,1853.0
24.088,1836.0
24.089,1862.0
24.09,1828.0
24.091,1831.0
24.092,1835.0
24.093,1848.0
24.094,1858.0
24.095,1859.0
24.096,1861.0
24.097,1853.0
24.098,1845.0
24.099,1849.0
24.1,1872.0
24.101,1867.0
24.102,1873.0
24.103,1881.0
24.104,1881.0
24.105,1887.0
24.106,1902.0
24.107,1891.0
24.108,1893.0
24.109,1900.0
24.11,1909.0
24.111,1904.0
24.112,1889.0
24.113,1900.0
24.114,1913.0
24.115,1913.0
24.116,1919.0
24.117,1919.0
24.118,1919.0
24.119,1927.0
24.12,1919.0
24.121,1925.0
24.122,1922.0
24.123,1909.0
24.124,1917.0
24.125,1921.0
24.126,1923.0
24.127,1915.0
24.128,1922.0
24.129,1923.0
24.13,1910.0
24.131,1910.0
24.132,1918.0
24.133,1919.0
24.134,1922.0
24.135,1917.0
24.136,1918.0
24.137,1918.0
24.138,1933.0
24.139,1929.0
24.14,1928.0
24.141,1946.0
24.142,1944.0
24.143,1943.0
24.144,1949.0
24.145,1959.0
24.146,1962.0
24.147,1976.0
24.148,1994.0
24.149,2002.0
24.15,1989.0
24.151,2005.0
24.152,2005.0
24.153,2020.0
24.154,2033.0
24.155,2051.0
24.156,2067.0
24.157,2083.0
24.158,2090.0
24.159,2097.0
24.16,2097.0
24.161,2102.0
24.162,2117.0
24.163,2114.0
24.164,2134.0
24.165,2138.0
24.166,2128.0
24.167,2134.0
24.168,2148.0
24.169,2153.0
24.17,2149.0
24.171,2157.0
24.172,2163.0
24.173,2165.0
24.174,2169.0
24.175,2180.0
24.176,2179.0
24.177,2175.0
24.178,2176.0
24.179,2173.0
24.18,2178.0
24.181,2173.0
24.182,2163.0
24.183,2166.0
24.184,2178.0
24.185,2179.0
24.186,2180.0
24.187,2165.0
24.188,2149.0
24.189,2153.0
24.19,2161.0
24.191,2154.0
24.192,2153.0
24.193,2152.0
24.194,2155.0
24.195,2145.0
24.196,2145.0
24.197,2147.0
24.198,2141.0
24.199,2137.0
24.2,2132.0
24.201,2133.0
24.202,2140.0
24.203,2127.0
24.204,2124.0
24.205,2120.0
24.206,2121.0
24.207,2123.0
24.208,2121.0
24.209,2108.0
24.21,2119.0
24.211,2131.0
24.212,2100.0
24.213,2102.0
24.214,2103.0
24.215,2106.0
24.216,2105.0
24.217,2109.0
24.218,2106.0
24.219,2099.0
24.22,2099.0
24.221,2093.0
24.222,2083.0
24.223,2085.0
24.224,2085.0
24.225,2080.0
24.226,2092.0
24.227,2096.0
24.228,2087.0
24.229,2079.0
24.23,2078.0
24.231,2085.0
24.232,2084.0
24.233,2075.0
24.234,2081.0
24.235,2073.0
24.236,2076.0
24.237,2072.0
24.238,2081.0
24.239,2071.0
24.24,2071.0
24.241,2073.0
24.242,2079.0
24.243,2078.0
24.244,2073.0
24.245,2063.0
24.246,2069.0
24.247,2064.0
24.248,2073.0
24.249,2065.0
24.25,2065.0
24.251,2062.0
24.252,2062.0
24.253,2065.0
24.254,2071.0
24.255,2069.0
24.256,2075.0
24.257,2078.0
24.258,2076.0
24.259,2072.0
24.26,2072.0
24.261,2068.0
24.262,2067.0
24.263,2063.0
24.264,2059.0
24.265,2060.0
24.266,2068.0
24.267,2076.0
24.268,2064.0
24.269,2058.0
24.27,2069.0
24.271,2062.0
24.272,2057.0
24.273,2062.0
24.274,2064.0
24.275,2062.0
24.276,2059.0
24.277,2048.0
24.278,2066.0
24.279,2068.0
24.28,2061.0
24.281,2062.0
24.282,2065.0
24.283,2061.0
24.284,2070.0
24.285,2064.0
24.286,2049.0
24.287,2054.0
24.288,2063.0
24.289,2062.0
24.29,2051.0
24.291,2054.0
24.292,2059.0
24.293,2063.0
24.294,2062.0
24.295,2072.0
24.296,2060.0
24.297,2065.0
24.298,2062.0
24.299,2064.0
24.3,2055.0
24.301,2052.0
24.302,2055.0
24.303,2054.0
24.304,2058.0
24.305,2053.0
24.306,2056.0
24.307,2053.0
24.308,2049.0
24.309,2056.0
24.31,2058.0
24.311,2056.0
24.312,2055.0
24.313,2046.0
24.314,2047.0
24.315,2046.0
24.316,2045.0
24.317,2051.0
24.318,2057.0
24.319,2067.0
24.32,2057.0
24.321,2048.0
24.322,2047.0
24.323,2049.0
24.324,2050.0
24.325,2059.0
24.326,2057.0
24.327,2050.0
24.328,2048.0
24.329,2050.0
24.33,2055.0
24.331,2051.0
24.332,2053.0
24.333,2054.0
24.334,2055.0
24.335,2059.0
24.336,2056.0
24.337,2061.0
24.338,2059.0
24.339,2048.0
