24.198,2141.0
24.199,2137.0
24.2,2132.0
24.201,2133.0
24.202,2140.0
24.203,2127.0
24.204,2124.0
24.205,2120.0
24.206,2121.0
24.207,2123.0
24.208,2121.0
24.209,2108.0
24.21,2119.0
24.211,2131.0
24.212,2100.0
24.213,2102.0
24.214,2103.0
24.215,2106.0
24.216,2105.0
24.217,2109.0
24.218,2106.0
24.219,2099.0
24.22,2099.0
24.221,2093.0
24.222,2083.0
24.223,2085.0
24.224,2085.0
24.225,2080.0
24.226,2092.0
24.227,2096.0
24.228,2087.0
24.229,2079.0
24.23,2078.0
24.231,2085.0
24.232,2084.0
24.233,2075.0
24.234,2081.0
24.235,2073.0
24.236,2076.0
24.237,2072.0
24.238,2081.0
24.239,2071.0
24.24,2071.0
24.241,2073.0
24.242,2079.0
24.243,2078.0
24.244,2073.0
24.245,2063.0
24.246,2069.0
24.247,2064.0
24.248,2073.0
24.249,2065.0
24.25,2065.0
24.251,2062.0
24.252,2062.0
24.253,2065.0
24.254,2071.0
24.255,2069.0
24.256,2075.0
24.257,2078.0
24.258,2076.0
24.259,2072.0
24.26,2072.0
24.261,2068.0
24.262,2067.0
24.263,2063.0
24.264,2059.0
24.265,2060.0
24.266,2068.0
24.267,2076.0
24.268,2064.0
24.269,2058.0
24.27,2069.0
24.271,2062.0
24.272,2057.0
24.273,2062.0
24.274,2064.0
24.275,2062.0
24.276,2059.0
24.277,2048.0
24.278,2066.0
24.279,2068.0
24.28,2061.0
24.281,2062.0
24.282,2065.0
24.283,2061.0
24.284,2070.0
24.285,2064.0
24.286,2049.0
24.287,2054.0
24.288,2063.0
24.289,2062.0
24.29,2051.0
24.291,2054.0
24.292,2059.0
24.293,2063.0
24.294,2062.0
24.295,2072.0
24.296,2060.0
24.297,2065.0
24.298,2062.0
24.299,2064.0
24.3,2055.0
24.301,2052.0
24.302,2055.0
24.303,2054.0
24.304,2058.0
24.305,2053.0
24.306,2056.0
24.307,2053.0
24.308,2049.0
24.309,2056.0
24.31,2058.0
24.311,2056.0
24.312,2055.0
24.313,2046.0
24.314,2047.0
24.315,2046.0
24.316,2045.0
24.317,2051.0
24.318,2057.0
24.319,2067.0
24.32,2057.0
24.321,2048.0
24.322,2047.0
24.323,2049.0
24.324,2050.0
24.325,2059.0
24.326,2057.0
24.327,2050.0
24.328,2048.0
24.329,2050.0
24.33,2055.0
24.331,2051.0
24.332,2053.0
24.333,2054.0
24.334,2055.0
24.335,2059.0
24.336,2056.0
24.337,2061.0
24.338,2059.0
24.339,2048.0
24.34,2047.0
24.341,2031.0
24.342,2045.0
24.343,2047.0
24.344,2048.0
24.345,2042.0
24.346,2034.0
24.347,2023.0
24.348,2029.0
24.349,2036.0
24.35,2038.0
24.351,2032.0
24.352,2039.0
24.353,2035.0
24.354,2036.0
24.355,2040.0
24.356,2036.0
24.357,2052.0
24.358,2052.0
24.359,2047.0
24.36,2053.0
24.361,2051.0
24.362,2055.0
24.363,2059.0
24.364,2053.0
24.365,2063.0
24.366,2068.0
24.367,2066.0
24.368,2066.0
24.369,2060.0
24.37,2064.0
24.371,2071.0
24.372,2069.0
24.373,2059.0
24.374,2052.0
24.375,2057.0
24.376,2062.0
24.377,2060.0
24.378,2069.0
24.379,2071.0
24.38,2063.0
24.381,2067.0
24.382,2073.0
24.383,2066.0
24.384,2070.0
24.385,2072.0
24.386,2077.0
24.387,2066.0
24.388,2047.0
24.389,2054.0
24.39,2054.0
24.391,2054.0
24.392,2047.0
24.393,2051.0
24.394,2062.0
24.395,2046.0
24.396,2016.0
24.397,1974.0
24.398,1912.0
24.399,1835.0
24.4,1767.0
24.401,1736.0
24.402,1826.0
24.403,2014.0
24.404,2239.0
24.405,2375.0
24.406,2488.0
24.407,2552.0
24.408,2589.0
24.409,2593.0
24.41,2583.0
24.411,2593.0
24.412,2545.0
24.413,2456.0
24.414,2354.0
24.415,2305.0
24.416,2256.0
24.417,2223.0
24.418,2186.0
24.419,2141.0
24.42,2086.0
24.421,2055.0
24.422,2007.0
24.423,1947.0
24.424,1904.0
24.425,1885.0
24.426,1869.0
24.427,1860.0
24.428,1868.0
24.429,1864.0
24.43,1873.0
24.431,1863.0
24.432,1868.0
24.433,1874.0
24.434,1887.0
24.435,1886.0
24.436,1879.0
24.437,1884.0
24.438,1891.0
24.439,1893.0
24.44,1898.0
24.441,1904.0
24.442,1909.0
24.443,1904.0
24.444,1906.0
24.445,1908.0
24.446,1924.0
24.447,1922.0
24.448,1905.0
24.449,1914.0
24.45,1927.0
24.451,1935.0
24.452,1931.0
24.453,1927.0
24.454,1927.0
24.455,1927.0
24.456,1927.0
24.457,1941.0
24.458,1941.0
24.459,1942.0
24.46,1937.0
24.461,1936.0
24.462,1932.0
24.463,1923.0
24.464,1932.0
24.465,1936.0
24.466,1940.0
24.467,1933.0
24.468,1924.0
24.469,1933.0
24.47,1932.0
24.471,1931.0
24.472,1927.0
24.473,1943.0
24.474,1927.0
24.475,1928.0
24.476,1933.0
24.477,1937.0
24.478,1942.0
24.479,1952.0
24.48,1955.0
24.481,1954.0
24.482,1972.0
24.483,1968.0
24.484,1979.0
24.485,1985.0
24.486,1992.0
24.487,2001.0
24.488,2013.0
24.489,2017.0
24.49,2032.0
24.491,2048.0
24.492,2059.0
24.493,2051.0
24.494,2071.0
24.495,2087.0
24.496,2097.0
24.497,2107.0
24.498,2123.0
24.499,2131.0
24.5,2142.0
24.501,2137.0
24.502,2127.0
24.503,2123.0
24.504,2145.0
24.505,2168.0
24.506,2167.0
24.507,2169.0
24.508,2183.0
24.509,2186.0
24.51,2187.0
24.511,2194.0
24.512,2207.0
24.513,2194.0
24.514,2200.0
24.515,2206.0
24.516,2200.0
24.517,2201.0
24.518,2222.0
24.519,2200.0
24.52,2214.0
24.521,2214.0
24.522,2215.0
24.523,2216.0
24.524,2195.0
24.525,2194.0
24.526,2156.0
24.527,2194.0
24.528,2210.0
24.529,2199.0
24.53,2207.0
24.531,2203.0
24.532,2193.0
24.533,2192.0
24.534,2196.0
24.535,2193.0
24.536,2200.0
24.537,2192.0
24.538,2185.0
24.539,2175.0
24.54,2164.0
24.541,2166.0
24.542,2158.0
24.543,2161.0
24.544,2155.0
24.545,2144.0
24.546,2142.0
24.547,2140.0
24.548,2136.0
24.549,2129.0
24.55,2126.0
24.551,2130.0
24.552,2130.0
24.553,2126.0
24.554,2130.0
24.555,2135.0
24.556,2121.0
24.557,2119.0
24.558,2113.0
24.559,2111.0
24.56,2106.0
24.561,2103.0
24.562,2112.0
24.563,2114.0
24.564,2100.0
24.565,2101.0
24.566,2102.0
24.567,2094.0
24.568,2104.0
24.569,2098.0
24.57,2092.0
24.571,2093.0
24.572,2098.0
24.573,2090.0
24.574,2091.0
24.575,2095.0
24.576,2098.0
24.577,2089.0
24.578,2096.0
24.579,2091.0
24.58,2087.0
24.581,2079.0
24.582,2080.0
24.583,2079.0
24.584,2084.0
24.585,2088.0
24.586,2086.0
24.587,2083.0
24.588,2076.0
24.589,2084.0
24.59,2087.0
24.591,2080.0
24.592,2081.0
24.593,2087.0
24.594,2080.0
24.595,2085.0
24.596,2069.0
24.597,2071.0
24.598,2080.0
24.599,2085.0
24.6,2077.0
24.601,2069.0
24.602,2065.0
24.603,2063.0
24.604,2062.0
24.605,2062.0
24.606,2064.0
24.607,2069.0
24.608,2066.0
24.609,2068.0
24.61,2062.0
24.611,2055.0
24.612,2060.0
24.613,2058.0
24.614,2058.0
24.615,2053.0
24.616,2052.0
24.617,2053.0
24.618,2046.0
24.619,2046.0
24.62,2051.0
24.621,2051.0
24.622,2053.0
24.623,2058.0
24.624,2053.0
24.625,2056.0
24.626,2048.0
24.627,2046.0
24.628,2049.0
24.629,2045.0
24.63,2042.0
24.631,2036.0
24.632,2044.0
24.633,2047.0
24.634,2033.0
24.635,2041.0
24.636,2038.0
24.637,2038.0
24.638,2040.0
24.639,2035.0
24.64,2047.0
24.641,2046.0
24.642,2034.0
24.643,2038.0
24.644,2040.0
24.645,2047.0
24.646,2033.0
24.647,2025.0
24.648,2023.0
24.649,2027.0
24.65,2027.0
24.651,2020.0
24.652,2026.0
24.653,2015.0
24.654,2010.0
24.655,2020.0
24.656,2017.0
24.657,2022.0
24.658,2023.0
24.659,2012.0
24.66,1997.0
24.661,2013.0
24.662,2010.0
24.663,2021.0
24.664,2022.0
24.665,2024.0
24.666,2026.0
24.667,2035.0
24.668,2036.0
24.669,2039.0
24.67,2039.0
24.671,2045.0
24.672,2045.0
24.673,2047.0
24.674,2045.0
24.675,2048.0
24.676,2056.0
24.677,2059.0
24.678,2070.0
24.679,2054.0
24.68,2040.0
24.681,2035.0
24.682,2037.0
24.683,2045.0
24.684,2049.0
24.685,2055.0
24.686,2056.0
24.687,2052.0
24.688,2047.0
24.689,2043.0
24.69,2041.0
24.691,2046.0
24.692,2044.0
24.693,2047.0
24.694,2043.0
24.695,2037.0
24.696,2042.0
24.697,2041.0
24.698,2040.0
24.699,2041.0
24.7,2023.0
24.701,2021.0
24.702,2030.0
24.703,2029.0
24.704,2028.0
24.705,2010.0
24.706,1952.0
24.707,1894.0
24.708,1812.0
24.709,1753.0
24.71,1710.0
24.711,1802.0
24.712,1994.0
24.713,2217.0
24.714,2400.0
24.715,2476.0
24.716,2543.0
24.717,2576.0
24.718,2586.0
24.719,2580.0
24.72,2564.0
24.721,2525.0
24.722,2435.0
24.723,2354.0
24.724,2291.0
24.725,2239.0
24.726,2195.0
24.727,2159.0
24.728,2113.0
24.729,2060.0
24.73,2011.0
24.731,1953.0
24.732,1898.0
24.733,1866.0
24.734,1809.0
24.735,1823.0
24.736,1824.0
24.737,1827.0
24.738,1831.0
24.739,1831.0
24.74,1832.0
24.741,1845.0
24.742,1848.0
24.743,1843.0
24.744,1848.0
24.745,1852.0
24.746,1847.0
24.747,1852.0
24.748,1859.0
24.749,1866.0
24.75,1877.0
24.751,1872.0
24.752,1872.0
24.753,1880.0
24.754,1876.0
24.755,1886.0
24.756,1896.0
24.757,1893.0
24.758,1893.0
24.759,1894.0
24.76,1898.0
24.761,1900.0
24.762,1903.0
24.763,1898.0
24.764,1906.0
24.765,1895.0
24.766,1902.0
24.767,1903.0
24.768,1908.0
24.769,1910.0
24.77,1915.0
24.771,1909.0
24.772,1903.0
24.773,1902.0
24.774,1898.0
24.775,1889.0
24.776,1901.0
24.777,1902.0
24.778,1905.0
24.779,1911.0
24.78,1903.0
24.781,1904.0
24.782,1900.0
24.783,1905.0
24.784,1910.0
24.785,1916.0
24.786,1926.0
24.787,1919.0
24.788,1932.0
24.789,1934.0
24.79,1939.0
24.791,1933.0
24.792,1953.0
24.793,1951.0
24.794,1961.0
24.795,1975.0
24.796,1988.0
24.797,1989.0
24.798,1997.0
24.799,2003.0
24.8,2021.0
24.801,2034.0
24.802,2046.0
24.803,2059.0
24.804,2066.0
24.805,2075.0
24.806,2093.0
24.807,2103.0
24.808,2104.0
24.809,2109.0
24.81,2117.0
24.811,2133.0
24.812,2125.0
24.813,2127.0
24.814,2129.0
24.815,2132.0
24.816,2147.0
24.817,2160.0
24.818,2156.0
24.819,2153.0
24.82,2162.0
24.821,2150.0
24.822,2140.0
24.823,2146.0
24.824,2133.0
24.825,2153.0
24.826,2148.0
24.827,2154.0
24.828,2155.0
24.829,2151.0
24.83,2141.0
24.831,2146.0
24.832,2146.0
24.833,2147.0
24.834,2134.0
24.835,2134.0
24.836,2131.0
24.837,2126.0
24.838,2123.0
24.839,2130.0
24.84,2126.0
24.841,2125.0
24.842,2125.0
24.843,2124.0
24.844,2120.0
24.845,2118.0
24.846,2118.0
24.847,2119.0
24.848,2113.0
24.849,2101.0
24.85,2100.0
24.851,2097.0
24.852,2101.0
24.853,2086.0
24.854,2083.0
24.855,2079.0
24.856,2087.0
24.857,2098.0
24.858,2091.0
24.859,2092.0
24.86,2087.0
24.861,2079.0
24.862,2076.0
24.863,2085.0
24.864,2083.0
24.865,2075.0
24.866,2075.0
24.867,2072.0
24.868,2069.0
24.869,2059.0
24.87,2074.0
24.871,2071.0
24.872,2065.0
24.873,2051.0
24.874,2055.0
24.875,2056.0
24.876,2061.0
24.877,2056.0
24.878,2057.0
24.879,2059.0
24.88,2058.0
24.881,2054.0
24.882,2048.0
24.883,2044.0
24.884,2048.0
24.885,2042.0
24.886,2048.0
24.887,2053.0
24.888,2043.0
24.889,2048.0
24.89,2042.0
24.891,2037.0
24.892,2047.0
24.893,2046.0
24.894,2045.0
24.895,2047.0
24.896,2042.0
24.897,2050.0
24.898,2047.0
24.899,2046.0
24.9,2043.0
24.901,2038.0
24.902,2047.0
24.903,2042.0
24.904,2045.0
24.905,2056.0
24.906,2047.0
24.907,2049.0
24.908,2052.0
24.909,2043.0
24.91,2054.0
24.911,2061.0
24.912,2058.0
24.913,2042.0
24.914,2037.0
24.915,2046.0
24.916,2043.0
24.917,2050.0
24.918,2056.0
24.919,2053.0
24.92,2056.0
24.921,2054.0
24.922,2062.0
24.923,2062.0
24.924,2055.0
24.925,2061.0
24.926,2074.0
24.927,2066.0
24.928,2067.0
24.929,2071.0
24.93,2060.0
24.931,2067.0
24.932,2071.0
24.933,2063.0
24.934,2078.0
24.935,2065.0
24.936,2071.0
24.937,2065.0
24.938,2065.0
24.939,2059.0
24.94,2056.0
24.941,2064.0
24.942,2063.0
24.943,2060.0
24.944,2059.0
24.945,2057.0
24.946,2058.0
24.947,2056.0
24.948,2055.0
24.949,2056.0
24.95,2059.0
24.951,2055.0
24.952,2059.0
24.953,2055.0
24.954,2053.0
24.955,2046.0
24.956,2052.0
24.957,2046.0
24.958,2055.0
24.959,2049.0
24.96,2046.0
24.961,2051.0
24.962,2051.0
24.963,2049.0
24.964,2050.0
24.965,2055.0
24.966,2049.0
24.967,2047.0
24.968,2036.0
24.969,2035.0
24.97,2043.0
24.971,2051.0
24.972,2042.0
24.973,2041.0
24.974,2033.0
24.975,2025.0
24.976,2021.0
24.977,2022.0
24.978,2032.0
24.979,2028.0
24.98,2034.0
24.981,2024.0
24.982,2021.0
24.983,2031.0
24.984,2027.0
24.985,2032.0
24.986,2038.0
24.987,2042.0
24.988,2045.0
24.989,2042.0
24.99,2039.0
24.991,2040.0
24.992,2044.0
24.993,2052.0
24.994,2060.0
24.995,2064.0
24.996,2064.0
24.997,2057.0
24.998,2064.0
24.999,2065.0
25.0,2058.0
25.001,2051.0
25.002,2047.0
25.003,2056.0
25.004,2061.0
25.005,2064.0
25.006,2071.0
25.007,2070.0
25.008,2069.0
25.009,2061.0
25.01,2067.0
25.011,2068.0
25.012,2056.0
25.013,2052.0
25.014,2053.0
25.015,2065.0
25.016,2061.0
25.017,2047.0
25.018,2042.0
25.019,2052.0
25.02,2041.0
25.021,2050.0
25.022,2044.0
25.023,2042.0
25.024,2053.0
25.025,2043.0
25.026,2012.0
25.027,1956.0
25.028,1876.0
25.029,1794.0
25.03,1758.0
25.031,1815.0
25.032,2006.0
25.033,2241.0
25.034,2447.0
25.035,2516.0
25.036,2559.0
25.037,2599.0
25.038,2628.0
25.039,2609.0
25.04,2607.0
25.041,2554.0
25.042,2465.0
25.043,2390.0
25.044,2317.0
25.045,2240.0
25.046,2208.0
25.047,2158.0
25.048,2110.0
25.049,2093.0
25.05,1988.0
25.051,1922.0
25.052,1878.0
25.053,1854.0
25.054,1829.0
25.055,1828.0
25.056,1812.0
25.057,1812.0
25.058,1827.0
25.059,1821.0
25.06,1823.0
25.061,1832.0
25.062,1833.0
25.063,1841.0
25.064,1844.0
25.065,1849.0
25.066,1855.0
25.067,1855.0
25.068,1855.0
25.069,1861.0
25.07,1863.0
25.071,1866.0
25.072,1866.0
25.073,1867.0
25.074,1885.0
25.075,1891.0
25.076,1896.0
25.077,1913.0
25.078,1897.0
25.079,1897.0
25.08,1896.0
25.081,1892.0
25.082,1902.0
25.083,1902.0
25.084,1909.0
25.085,1914.0
25.086,1913.0
25.087,1908.0
25.088,1913.0
25.089,1917.0
25.09,1911.0
25.091,1907.0
25.092,1917.0
25.093,1911.0
25.094,1923.0
25.095,1921.0
25.096,1925.0
25.097,1956.0
25.098,1929.0
25.099,1922.0
25.1,1926.0
25.101,1925.0
25.102,1921.0
25.103,1934.0
25.104,1925.0
25.105,1937.0
25.106,1937.0
25.107,1943.0
25.108,1943.0
25.109,1937.0
25.11,1936.0
25.111,1954.0
25.112,1969.0
25.113,1971.0
25.114,1980.0
25.115,1988.0
25.116,1988.0
25.117,1996.0
25.118,2004.0
25.119,2014.0
25.12,2028.0
25.121,2042.0
25.122,2048.0
25.123,2057.0
25.124,2076.0
25.125,2080.0
25.126,2084.0
25.127,2099.0
25.128,2112.0
25.129,2120.0
25.13,2118.0
25.131,2125.0
25.132,2133.0
25.133,2133.0
25.134,2140.0
25.135,2154.0
25.136,2166.0
25.137,2166.0
25.138,2162.0
25.139,2158.0
25.14,2153.0
25.141,2158.0
25.142,2149.0
25.143,2155.0
25.144,2153.0
25.145,2176.0
25.146,2158.0
25.147,2165.0
25.148,2163.0
25.149,2160.0
25.15,2151.0
25.151,2151.0
25.152,2147.0
25.153,2151.0
25.154,2145.0
25.155,2155.0
25.156,2145.0
25.157,2139.0
25.158,2138.0
25.159,2143.0
25.16,2135.0
25.161,2141.0
25.162,2130.0
25.163,2131.0
25.164,2115.0
25.165,2112.0
25.166,2113.0
25.167,2115.0
25.168,2118.0
25.169,2114.0
25.17,2116.0
25.171,2115.0
25.172,2092.0
25.173,2098.0
25.174,2090.0
25.175,2095.0
25.176,2098.0
25.177,2099.0
25.178,2096.0
25.179,2101.0
25.18,2097.0
25.181,2099.0
25.182,2084.0
25.183,2092.0
25.184,2090.0
25.185,2090.0
25.186,2088.0
25.187,2077.0
25.188,2086.0
25.189,2090.0
25.19,2074.0
25.191,2061.0
25.192,2068.0
25.193,2068.0
25.194,2069.0
25.195,2069.0
25.196,2067.0
25.197,2075.0
25.198,2068.0
25.199,2071.0
25.2,2064.0
25.201,2066.0
25.202,2070.0
25.203,2064.0
25.204,2056.0
25.205,2054.0
25.206,2052.0
25.207,2057.0
25.208,2062.0
25.209,2063.0
25.21,2067.0
25.211,2069.0
25.212,2062.0
25.213,2061.0
25.214,2060.0
25.215,2053.0
25.216,2054.0
25.217,2055.0
25.218,2060.0
25.219,2051.0
25.22,2055.0
25.221,2056.0
25.222,2058.0
25.223,2045.0
25.224,2052.0
25.225,2060.0
25.226,2059.0
25.227,2059.0
25.228,2062.0
25.229,2057.0
25.23,2054.0
25.231,2056.0
25.232,2059.0
25.233,2067.0
25.234,2058.0
25.235,2055.0
25.236,2056.0
25.237,2054.0
25.238,2045.0
25.239,2056.0
25.24,2050.0
25.241,2057.0
25.242,2053.0
25.243,2051.0
25.244,2056.0
25.245,2056.0
25.246,2055.0
25.247,2068.0
25.248,2073.0
25.249,2058.0
25.25,2055.0
25.251,2049.0
25.252,2047.0
25.253,2059.0
25.254,2054.0
25.255,2067.0
25.256,2050.0
25.257,2056.0
25.258,2034.0
25.259,2046.0
25.26,2053.0
25.261,2054.0
25.262,2050.0
25.263,2058.0
25.264,2053.0
25.265,2046.0
25.266,2044.0
25.267,2045.0
25.268,2052.0
25.269,2056.0
25.27,2021.0
25.271,2054.0
25.272,2050.0
25.273,2052.0
25.274,2053.0
25.275,2051.0
25.276,2053.0
25.277,2052.0
25.278,2047.0
25.279,2050.0
25.28,2058.0
25.281,2056.0
25.282,2044.0
25.283,2048.0
25.284,2048.0
25.285,2057.0
25.286,2051.0
25.287,2038.0
25.288,2040.0
25.289,2047.0
25.29,2051.0
25.291,2051.0
25.292,2057.0
25.293,2055.0
25.294,2047.0
25.295,2050.0
25.296,2044.0
25.297,2048.0
25.298,2043.0
25.299,2039.0
25.3,2036.0
25.301,2034.0
25.302,2023.0
25.303,2022.0
25.304,2017.0
25.305,2020.0
25.306,2026.0
25.307,2044.0
25.308,2040.0
25.309,2030.0
25.31,2018.0
25.311,2025.0
25.312,2031.0
25.313,2028.0
25.314,2048.0
25.315,2048.0
25.316,2044.0
25.317,2038.0
25.318,2042.0
25.319,2049.0
25.32,2053.0
25.321,2056.0
25.322,2057.0
25.323,2059.0
25.324,2058.0
25.325,2062.0
25.326,2066.0
25.327,2067.0
25.328,2060.0
25.329,2065.0
25.33,2063.0
25.331,2059.0
25.332,2052.0
25.333,2055.0
25.334,2063.0
25.335,2058.0
25.336,2061.0
25.337,2065.0
25.338,2068.0
25.339,2065.0
25.34,2066.0
25.341,2060.0
25.342,2055.0
25.343,2058.0
25.344,2052.0
25.345,2057.0
25.346,2059.0
25.347,2056.0
25.348,2053.0
25.349,2045.0
25.35,2037.0
25.351,2054.0
25.352,2063.0
25.353,2059.0
25.354,2018.0
25.355,1966.0
25.356,1889.0
25.357,1803.0
25.358,1780.0
25.359,1830.0
25.36,2013.0
25.361,2248.0
25.362,2450.0
25.363,2521.0
25.364,2567.0
25.365,2611.0
25.366,2635.0
25.367,2614.0
25.368,2613.0
25.369,2576.0
25.37,2493.0
25.371,2397.0
25.372,2338.0
25.373,2272.0
25.374,2208.0
25.375,2151.0
25.376,2113.0
25.377,2061.0
25.378,1997.0
25.379,1938.0
25.38,1887.0
25.381,1855.0
25.382,1834.0
25.383,1824.0
25.384,1833.0
25.385,1831.0
25.386,1841.0
25.387,1839.0
25.388,1841.0
25.389,1846.0
25.39,1844.0
25.391,1846.0
25.392,1843.0
25.393,1852.0
25.394,1860.0
25.395,1859.0
25.396,1863.0
25.397,1865.0
25.398,1868.0
25.399,1886.0
25.4,1880.0
25.401,1897.0
25.402,1901.0
25.403,1906.0
25.404,1902.0
25.405,1896.0
25.406,1892.0
25.407,1904.0
25.408,1908.0
25.409,1909.0
25.41,1909.0
25.411,1916.0
25.412,1920.0
25.413,1923.0
25.414,1920.0
25.415,1909.0
25.416,1914.0
25.417,1924.0
25.418,1917.0
25.419,1913.0
25.42,1911.0
25.421,1908.0
25.422,1913.0
25.423,1914.0
25.424,1919.0
25.425,1923.0
25.426,1923.0
25.427,1916.0
25.428,1914.0
25.429,1912.0
25.43,1921.0
25.431,1927.0
25.432,1923.0
25.433,1912.0
25.434,1928.0
25.435,1928.0
25.436,1940.0
25.437,1939.0
25.438,1945.0
25.439,1951.0
25.44,1967.0
25.441,1965.0
25.442,1980.0
25.443,1980.0
25.444,1985.0
25.445,1992.0
25.446,2003.0
25.447,2016.0
25.448,2026.0
25.449,2038.0
25.45,2055.0
25.451,2058.0
25.452,2073.0
25.453,2071.0
25.454,2088.0
25.455,2092.0
25.456,2111.0
25.457,2113.0
25.458,2124.0
25.459,2130.0
25.46,2141.0
25.461,2134.0
25.462,2139.0
25.463,2143.0
25.464,2150.0
25.465,2155.0
25.466,2171.0
25.467,2161.0
25.468,2160.0
25.469,2161.0
25.47,2161.0
25.471,2160.0
25.472,2161.0
25.473,2161.0
25.474,2165.0
25.475,2172.0
25.476,2175.0
25.477,2161.0
25.478,2144.0
25.479,2151.0
25.48,2160.0
25.481,2174.0
25.482,2156.0
25.483,2153.0
25.484,2146.0
25.485,2144.0
25.486,2138.0
25.487,2139.0
25.488,2146.0
25.489,2144.0
25.49,2142.0
25.491,2145.0
25.492,2127.0
25.493,2121.0
25.494,2117.0
25.495,2121.0
25.496,2113.0
25.497,2114.0
25.498,2116.0
25.499,2117.0
25.5,2109.0
25.501,2110.0
25.502,2112.0
25.503,2102.0
25.504,2106.0
25.505,2100.0
25.506,2099.0
25.507,2097.0
25.508,2090.0
25.509,2100.0
25.51,2091.0
25.511,2090.0
25.512,2094.0
25.513,2091.0
25.514,2085.0
25.515,2090.0
25.516,2087.0
25.517,2091.0
25.518,2085.0
25.519,2090.0
25.52,2083.0
25.521,2080.0
25.522,2083.0
25.523,2088.0
25.524,2086.0
25.525,2082.0
25.526,2075.0
25.527,2080.0
25.528,2077.0
25.529,2086.0
25.53,2092.0
25.531,2086.0
25.532,2088.0
25.533,2086.0
25.534,2082.0
25.535,2082.0
25.536,2077.0
25.537,2089.0
25.538,2091.0
25.539,2097.0
25.54,2092.0
25.541,2102.0
25.542,2096.0
25.543,2099.0
25.544,2099.0
25.545,2098.0
25.546,2107.0
25.547,2103.0
25.548,2111.0
25.549,2107.0
25.55,2110.0
25.551,2115.0
25.552,2110.0
25.553,2114.0
25.554,2108.0
25.555,2117.0
25.556,2113.0
25.557,2108.0
25.558,2113.0
25.559,2106.0
25.56,2116.0
25.561,2116.0
25.562,2119.0
25.563,2116.0
25.564,2117.0
25.565,2118.0
25.566,2117.0
25.567,2121.0
25.568,2109.0
25.569,2093.0
25.57,2075.0
25.571,2031.0
25.572,2008.0
25.573,1976.0
25.574,1942.0
25.575,1915.0
25.576,1897.0
25.577,1869.0
25.578,1818.0
25.579,1786.0
25.58,1776.0
25.581,1745.0
25.582,1738.0
25.583,1725.0
25.584,1717.0
25.585,1691.0
25.586,1672.0
25.587,1666.0
25.588,1655.0
25.589,1639.0
25.59,1612.0
25.591,1589.0
25.592,1585.0
25.593,1606.0
25.594,1622.0
25.595,1579.0
25.596,1536.0
25.597,1503.0
25.598,1474.0
25.599,1452.0
25.6,1442.0
25.601,1453.0
25.602,1459.0
25.603,1476.0
25.604,1499.0
25.605,1512.0
25.606,1524.0
25.607,1544.0
25.608,1538.0
25.609,1557.0
25.61,1569.0
25.611,1583.0
25.612,1576.0
25.613,1597.0
25.614,1618.0
25.615,1621.0
25.616,1653.0
25.617,1649.0
25.618,1665.0
25.619,1672.0
25.62,1685.0
25.621,1704.0
25.622,1721.0
25.623,1738.0
25.624,1741.0
25.625,1750.0
25.626,1778.0
25.627,1794.0
25.628,1817.0
25.629,1821.0
25.63,1836.0
25.631,1841.0
25.632,1848.0
25.633,1866.0
25.634,1871.0
25.635,1881.0
25.636,1886.0
25.637,1897.0
25.638,1904.0
25.639,1906.0
25.64,1913.0
25.641,1928.0
25.642,1942.0
25.643,1961.0
25.644,1954.0
25.645,1951.0
25.646,1965.0
25.647,1964.0
25.648,1968.0
25.649,1987.0
25.65,1985.0
25.651,1992.0
25.652,1982.0
25.653,1994.0
25.654,1992.0
25.655,2002.0
25.656,2009.0
25.657,2010.0
25.658,2002.0
25.659,2012.0
25.66,2013.0
25.661,2023.0
25.662,2028.0
25.663,2006.0
25.664,1982.0
25.665,1913.0
25.666,1868.0
25.667,1774.0
25.668,1706.0
25.669,1745.0
25.67,1911.0
25.671,2163.0
25.672,2335.0
25.673,2484.0
25.674,2545.0
25.675,2593.0
25.676,2620.0
25.677,2626.0
25.678,2621.0
25.679,2607.0
25.68,2539.0
25.681,2445.0
25.682,2375.0
25.683,2339.0
25.684,2306.0
25.685,2262.0
25.686,2219.0
25.687,2182.0
25.688,2122.0
25.689,2070.0
25.69,2006.0
25.691,1964.0
25.692,1946.0
25.693,1921.0
25.694,1919.0
25.695,1916.0
25.696,1926.0
25.697,1921.0
25.698,1929.0
25.699,1925.0
25.7,1918.0
25.701,1912.0
25.702,1911.0
25.703,1913.0
25.704,1917.0
25.705,1918.0
25.706,1932.0
25.707,1939.0
25.708,1942.0
25.709,1943.0
25.71,1941.0
25.711,1949.0
25.712,1964.0
25.713,1974.0
25.714,1982.0
25.715,1986.0
25.716,1999.0
25.717,1997.0
25.718,1995.0
25.719,2005.0
25.72,2013.0
25.721,2007.0
25.722,2014.0
25.723,2021.0
25.724,2017.0
25.725,2016.0
25.726,2008.0
25.727,2014.0
25.728,2022.0
25.729,2016.0
25.73,2010.0
25.731,2010.0
25.732,2013.0
25.733,2007.0
25.734,2015.0
25.735,2012.0
25.736,2016.0
25.737,2022.0
25.738,2027.0
25.739,2027.0
25.74,2022.0
25.741,2018.0
25.742,2021.0
25.743,2030.0
25.744,2042.0
25.745,2042.0
25.746,2057.0
25.747,2056.0
25.748,2076.0
25.749,2085.0
25.75,2086.0
25.751,2096.0
25.752,2102.0
25.753,2111.0
25.754,2120.0
25.755,2128.0
25.756,2128.0
25.757,2140.0
25.758,2156.0
25.759,2176.0
25.76,2184.0
25.761,2193.0
25.762,2205.0
25.763,2219.0
25.764,2226.0
25.765,2232.0
25.766,2233.0
25.767,2260.0
25.768,2254.0
25.769,2255.0
25.77,2261.0
25.771,2262.0
25.772,2264.0
25.773,2271.0
25.774,2285.0
25.775,2288.0
25.776,2301.0
25.777,2312.0
25.778,2303.0
25.779,2301.0
25.78,2296.0
25.781,2309.0
25.782,2306.0
25.783,2302.0
25.784,2298.0
25.785,2298.0
25.786,2302.0
25.787,2314.0
25.788,2319.0
25.789,2309.0
25.79,2311.0
25.791,2308.0
25.792,2308.0
25.793,2305.0
25.794,2300.0
25.795,2289.0
25.796,2287.0
25.797,2288.0
25.798,2280.0
25.799,2276.0
25.8,2271.0
25.801,2270.0
25.802,2272.0
25.803,2268.0
25.804,2267.0
25.805,2268.0
25.806,2279.0
25.807,2261.0
25.808,2258.0
25.809,2247.0
25.81,2239.0
25.811,2225.0
25.812,2225.0
25.813,2226.0
25.814,2221.0
25.815,2218.0
25.816,2217.0
25.817,2209.0
25.818,2208.0
25.819,2206.0
25.82,2200.0
25.821,2201.0
25.822,2195.0
25.823,2187.0
25.824,2182.0
25.825,2188.0
25.826,2183.0
25.827,2177.0
25.828,2175.0
25.829,2177.0
25.83,2179.0
25.831,2175.0
25.832,2180.0
25.833,2172.0
25.834,2169.0
25.835,2167.0
25.836,2162.0
25.837,2163.0
25.838,2154.0
25.839,2167.0
25.84,2158.0
25.841,2152.0
25.842,2144.0
25.843,2153.0
25.844,2149.0
25.845,2143.0
25.846,2144.0
25.847,2143.0
25.848,2133.0
25.849,2137.0
25.85,2135.0
25.851,2131.0
25.852,2147.0
25.853,2143.0
25.854,2142.0
25.855,2152.0
25.856,2145.0
25.857,2138.0
25.858,2128.0
25.859,2129.0
25.86,2125.0
25.861,2116.0
25.862,2113.0
25.863,2114.0
25.864,2106.0
25.865,2109.0
25.866,2109.0
25.867,2119.0
25.868,2124.0
25.869,2119.0
25.87,2120.0
25.871,2102.0
25.872,2114.0
25.873,2102.0
25.874,2106.0
25.875,2112.0
25.876,2117.0
25.877,2121.0
25.878,2117.0
25.879,2114.0
25.88,2112.0
25.881,2109.0
25.882,2112.0
25.883,2103.0
25.884,2096.0
25.885,2098.0
25.886,2091.0
25.887,2108.0
25.888,2102.0
25.889,2102.0
25.89,2080.0
25.891,2087.0
25.892,2092.0
25.893,2092.0
25.894,2093.0
25.895,2096.0
25.896,2086.0
25.897,2080.0
25.898,2076.0
25.899,2069.0
25.9,2061.0
25.901,2068.0
25.902,2065.0
25.903,2071.0
25.904,2068.0
25.905,2073.0
25.906,2066.0
25.907,2067.0
25.908,2073.0
25.909,2067.0
25.91,2072.0
25.911,2077.0
25.912,2066.0
25.913,2071.0
25.914,2081.0
25.915,2091.0
25.916,2092.0
25.917,2078.0
25.918,2095.0
25.919,2100.0
25.92,2104.0
25.921,2112.0
25.922,2108.0
25.923,2110.0
25.924,2109.0
25.925,2099.0
25.926,2093.0
25.927,2092.0
25.928,2085.0
25.929,2089.0
25.93,2093.0
25.931,2101.0
25.932,2098.0
25.933,2097.0
25.934,2103.0
25.935,2087.0
25.936,2084.0
25.937,2090.0
25.938,2086.0
25.939,2075.0
25.94,2097.0
25.941,2115.0
25.942,2123.0
25.943,2155.0
25.944,2146.0
25.945,2143.0
25.946,2135.0
25.947,2146.0
25.948,2150.0
25.949,2141.0
25.95,2122.0
25.951,2091.0
25.952,2029.0
25.953,1961.0
25.954,1880.0
25.955,1834.0
25.956,1872.0
25.957,2039.0
25.958,2270.0
25.959,2469.0
25.96,2572.0
25.961,2641.0
25.962,2684.0
25.963,2709.0
25.964,2685.0
25.965,2666.0
25.966,2637.0
25.967,2570.0
25.968,2475.0
25.969,2409.0
25.97,2355.0
25.971,2276.0
25.972,2260.0
25.973,2206.0
25.974,2160.0
25.975,2103.0
25.976,2015.0
25.977,1939.0
25.978,1924.0
25.979,1902.0
25.98,1891.0
25.981,1877.0
25.982,1876.0
25.983,1880.0
25.984,1875.0
25.985,1917.0
25.986,1879.0
25.987,1891.0
25.988,1897.0
25.989,1904.0
25.99,1902.0
25.991,1916.0
25.992,1915.0
25.993,1910.0
25.994,1919.0
25.995,1915.0
25.996,1878.0
25.997,1847.0
25.998,1839.0
25.999,1845.0
26.0,1843.0
26.001,1843.0
26.002,1845.0
26.003,1851.0
26.004,1856.0
26.005,1850.0
26.006,1844.0
26.007,1859.0
26.008,1858.0
26.009,1861.0
26.01,1865.0
26.011,1869.0
26.012,1875.0
26.013,1876.0
26.014,1871.0
26.015,1879.0
26.016,1880.0
26.017,1870.0
26.018,1868.0
26.019,1875.0
26.02,1886.0
26.021,1886.0
26.022,1894.0
26.023,1885.0
26.024,1892.0
26.025,1894.0
26.026,1895.0
26.027,1888.0
26.028,1887.0
26.029,1894.0
26.03,1903.0
26.031,1917.0
26.032,1903.0
26.033,1916.0
26.034,1927.0
26.035,1933.0
26.036,1927.0
26.037,1941.0
26.038,1957.0
26.039,1962.0
26.04,1973.0
26.041,1980.0
26.042,1999.0
26.043,2005.0
26.044,2016.0
26.045,2028.0
26.046,2036.0
26.047,2050.0
26.048,2064.0
26.049,2074.0
26.05,2085.0
26.051,2095.0
26.052,2105.0
26.053,2109.0
26.054,2118.0
26.055,2128.0
26.056,2130.0
26.057,2135.0
26.058,2148.0
26.059,2155.0
26.06,2152.0
26.061,2150.0
26.062,2156.0
26.063,2158.0
26.064,2133.0
26.065,2160.0
26.066,2166.0
26.067,2171.0
26.068,2173.0
26.069,2171.0
26.07,2179.0
26.071,2173.0
26.072,2161.0
26.073,2163.0
26.074,2166.0
26.075,2170.0
26.076,2164.0
26.077,2162.0
26.078,2160.0
26.079,2154.0
26.08,2153.0
26.081,2154.0
26.082,2107.0
26.083,2146.0
26.084,2147.0
26.085,2139.0
26.086,2136.0
26.087,2138.0
26.088,2123.0
26.089,2128.0
26.09,2130.0
26.091,2130.0
26.092,2124.0
26.093,2116.0
26.094,2120.0
26.095,2116.0
26.096,2125.0
26.097,2118.0
26.098,2112.0
26.099,2107.0
26.1,2109.0
26.101,2104.0
26.102,2101.0
26.103,2102.0
26.104,2089.0
26.105,2082.0
26.106,2087.0
26.107,2090.0
26.108,2091.0
26.109,2098.0
26.11,2093.0
26.111,2090.0
26.112,2086.0
26.113,2087.0
26.114,2077.0
26.115,2076.0
26.116,2084.0
26.117,2080.0
26.118,2078.0
26.119,2079.0
26.12,2074.0
26.121,2069.0
26.122,2068.0
26.123,2065.0
26.124,2068.0
26.125,2071.0
26.126,2066.0
26.127,2075.0
26.128,2083.0
26.129,2078.0
26.13,2073.0
26.131,2072.0
26.132,2068.0
26.133,2063.0
26.134,2059.0
26.135,2058.0
26.136,2060.0
26.137,2054.0
26.138,2059.0
26.139,2056.0
26.14,2069.0
26.141,2075.0
26.142,2082.0
26.143,2080.0
26.144,2070.0
26.145,2063.0
26.146,2065.0
26.147,2076.0
26.148,2069.0
26.149,2068.0
26.15,2060.0
26.151,2065.0
26.152,2062.0
26.153,2064.0
26.154,2061.0
26.155,2061.0
26.156,2072.0
26.157,2073.0
26.158,2068.0
26.159,2064.0
26.16,2074.0
26.161,2058.0
26.162,2056.0
26.163,2066.0
26.164,2066.0
26.165,2072.0
26.166,2056.0
26.167,2058.0
26.168,2056.0
26.169,2055.0
26.17,2060.0
26.171,2061.0
26.172,2089.0
26.173,2122.0
26.174,2135.0
26.175,2141.0
26.176,2127.0
26.177,2136.0
26.178,2137.0
26.179,2143.0
26.18,2143.0
26.181,2138.0
26.182,2134.0
26.183,2130.0
26.184,2121.0
26.185,2116.0
26.186,2118.0
26.187,2121.0
26.188,2118.0
26.189,2104.0
26.19,2102.0
26.191,2097.0
26.192,2075.0
26.193,2073.0
26.194,2078.0
26.195,2083.0
26.196,2085.0
26.197,2072.0
26.198,2076.0
26.199,2082.0
26.2,2079.0
26.201,2070.0
26.202,2082.0
26.203,2090.0
26.204,2087.0
26.205,2076.0
26.206,2080.0
26.207,2095.0
26.208,2106.0
26.209,2149.0
26.21,2093.0
26.211,2156.0
26.212,1864.0
26.213,1062.0
26.214,1043.0
26.215,1058.0
26.216,3683.0
26.217,2742.0
26.218,0.0
26.219,493.0
26.22,1095.0
26.221,1166.0
26.222,1189.0
26.223,1208.0
26.224,1468.0
26.225,1304.0
26.226,4.0
26.227,1.0
26.228,1102.0
26.229,1344.0
26.23,1379.0
26.231,1687.0
26.232,538.0
26.233,1288.0
26.234,7.0
26.235,3.0
26.236,1256.0
26.237,1526.0
26.238,1557.0
26.239,3374.0
26.24,300.0
26.241,1874.0
26.242,6.0
26.243,1.0
26.244,1481.0
26.245,1662.0
26.246,1688.0
26.247,4081.0
26.248,1097.0
26.249,2613.0
26.25,4.0
26.251,354.0
26.252,1647.0
26.253,1762.0
26.254,1787.0
26.255,3587.0
26.256,1760.0
26.257,1749.0
26.258,0.0
26.259,1452.0
26.26,1812.0
26.261,1845.0
26.262,1862.0
26.263,2187.0
26.264,2508.0
26.265,2658.0
26.266,1.0
26.267,1663.0
26.268,1847.0
26.269,1923.0
26.27,3412.0
26.271,1681.0
26.272,2857.0
26.273,2395.0
26.274,625.0
26.275,1573.0
26.276,1107.0
26.277,1344.0
26.278,4082.0
26.279,2504.0
26.28,2857.0
26.281,1527.0
26.282,648.0
26.283,793.0
26.284,943.0
26.285,2185.0
26.286,4081.0
26.287,2668.0
26.288,2884.0
26.289,1277.0
26.29,1103.0
26.291,1217.0
26.292,1378.0
26.293,4086.0
26.294,3619.0
26.295,2509.0
26.296,2074.0
26.297,531.0
26.298,1421.0
26.299,1555.0
26.3,2375.0
26.301,4081.0
26.302,3077.0
26.303,2350.0
26.304,2093.0
26.305,2.0
26.306,1673.0
26.307,1815.0
26.308,2872.0
26.309,4082.0
26.31,2740.0
26.311,2278.0
26.312,2249.0
26.313,0.0
26.314,1887.0
26.315,2025.0
26.316,3153.0
26.317,4076.0
26.318,2499.0
26.319,2205.0
26.32,1999.0
26.321,478.0
26.322,2075.0
26.323,2034.0
26.324,2251.0
26.325,3676.0
26.326,2337.0
26.327,2429.0
26.328,3018.0
26.329,413.0
26.33,2349.0
26.331,2233.0
26.332,1869.0
26.333,3372.0
26.334,2260.0
26.335,2139.0
26.336,1057.0
26.337,1582.0
26.338,2497.0
26.339,2581.0
26.34,4083.0
26.341,2711.0
26.342,2179.0
26.343,1792.0
26.344,273.0
26.345,1999.0
26.346,2573.0
26.347,2770.0
26.348,4086.0
26.349,2493.0
26.35,2100.0
26.351,1761.0
26.352,951.0
26.353,2442.0
26.354,2589.0
26.355,2654.0
26.356,4081.0
26.357,2277.0
26.358,2037.0
26.359,1736.0
26.36,656.0
26.361,2093.0
26.362,2563.0
26.363,2665.0
26.364,3912.0
26.365,2129.0
26.366,1982.0
26.367,1623.0
26.368,1057.0
26.369,2339.0
26.37,2516.0
26.371,3182.0
26.372,3131.0
26.373,2022.0
26.374,1942.0
26.375,1927.0
26.376,1339.0
26.377,2277.0
26.378,2469.0
26.379,4011.0
26.38,2685.0
26.381,2313.0
26.382,2151.0
26.383,365.0
26.384,1836.0
26.385,2283.0
26.386,2374.0
26.387,4080.0
26.388,2394.0
26.389,1961.0
26.39,933.0
26.391,3.0
26.392,2109.0
26.393,2335.0
26.394,2437.0
26.395,4078.0
26.396,2305.0
26.397,1970.0
26.398,0.0
26.399,331.0
26.4,2221.0
26.401,2329.0
26.402,2342.0
26.403,3933.0
26.404,2071.0
26.405,2400.0
26.406,1.0
26.407,1610.0
26.408,2046.0
26.409,2428.0
26.41,2284.0
26.411,3085.0
26.412,1957.0
26.413,2811.0
26.414,0.0
26.415,1562.0
26.416,1744.0
26.417,2315.0
26.418,4081.0
26.419,2577.0
26.42,1889.0
26.421,1269.0
26.422,2.0
26.423,1755.0
26.424,1860.0
26.425,3419.0
26.426,4072.0
26.427,2317.0
26.428,4095.0
26.429,4077.0
26.43,3141.0
26.431,0.0
26.432,0.0
26.433,13.0
26.434,0.0
26.435,2.0
26.436,0.0
26.437,4.0
26.438,5.0
26.439,4.0
26.44,4.0
26.441,2.0
26.442,4.0
26.443,2.0
26.444,2.0
26.445,4.0
26.446,5.0
26.447,3.0
26.448,5.0
26.449,3.0
26.45,2.0
26.451,2.0
26.452,5.0
26.453,3.0
26.454,6.0
26.455,3.0
26.456,5.0
26.457,5.0
26.458,2.0
26.459,2.0
26.46,4.0
26.461,1.0
26.462,4.0
26.463,2.0
26.464,2.0
26.465,4.0
26.466,3.0
26.467,3.0
26.468,4.0
26.469,2.0
26.47,4.0
26.471,2.0
26.472,2.0
26.473,2.0
26.474,4.0
26.475,3.0
26.476,4.0
26.477,2.0
26.478,1.0
26.479,0.0
26.48,3.0
26.481,2.0
26.482,0.0
26.483,5.0
26.484,2.0
26.485,1.0
26.486,5.0
26.487,3.0
26.488,5.0
26.489,1.0
26.49,0.0
26.491,3.0
26.492,3.0
26.493,0.0
26.494,0.0
26.495,0.0
26.496,0.0
26.497,0.0
26.498,3.0
26.499,0.0
26.5,1.0
26.501,3.0
26.502,0.0
26.503,2.0
26.504,0.0
26.505,0.0
26.506,4.0
26.507,2.0
26.508,4.0
26.509,1.0
26.51,4.0
26.511,3.0
26.512,7.0
26.513,6.0
26.514,10.0
26.515,19.0
26.516,19.0
26.517,27.0
26.518,37.0
26.519,58.0
26.52,114.0
26.521,235.0
26.522,375.0
26.523,508.0
26.524,636.0
26.525,765.0
26.526,882.0
26.527,1007.0
26.528,1114.0
26.529,1225.0
26.53,1338.0
26.531,1437.0
26.532,1537.0
26.533,1630.0
26.534,1731.0
26.535,1830.0
26.536,1918.0
26.537,1996.0
26.538,2070.0
26.539,2148.0
26.54,2225.0
26.541,2305.0
26.542,2393.0
26.543,2459.0
26.544,2511.0
26.545,2521.0
26.546,2522.0
26.547,2487.0
26.548,2502.0
26.549,2556.0
26.55,2751.0
26.551,3020.0
26.552,3283.0
26.553,3425.0
26.554,3516.0
26.555,3611.0
26.556,3692.0
26.557,3723.0
26.558,3785.0
26.559,3789.0
26.56,3764.0
26.561,3711.0
26.562,3667.0
26.563,3646.0
26.564,3616.0
26.565,3588.0
26.566,3574.0
26.567,3559.0
26.568,3527.0
26.569,3483.0
26.57,3445.0
26.571,3432.0
26.572,3430.0
26.573,3433.0
26.574,3447.0
26.575,3470.0
26.576,3490.0
26.577,3517.0
26.578,3530.0
26.579,3551.0
26.58,3551.0
26.581,3567.0
26.582,3583.0
26.583,3594.0
26.584,3613.0
26.585,3619.0
26.586,3623.0
26.587,3635.0
26.588,3647.0
26.589,3654.0
26.59,3667.0
26.591,3674.0
26.592,3695.0
26.593,3690.0
26.594,3682.0
26.595,3678.0
26.596,3689.0
26.597,3702.0
26.598,3712.0
26.599,3729.0
26.6,3737.0
26.601,3743.0
26.602,3735.0
26.603,3733.0
26.604,3732.0
26.605,3730.0
26.606,3731.0
26.607,3727.0
26.608,3729.0
26.609,3730.0
26.61,3722.0
26.611,3722.0
26.612,3726.0
26.613,3722.0
26.614,3716.0
26.615,3701.0
26.616,3692.0
26.617,3713.0
26.618,3721.0
26.619,3716.0
26.62,3706.0
26.621,3707.0
26.622,3696.0
26.623,3701.0
26.624,3691.0
26.625,3687.0
26.626,3691.0
26.627,3686.0
26.628,3684.0
26.629,3674.0
26.63,3677.0
26.631,3670.0
26.632,3671.0
26.633,3679.0
26.634,3676.0
26.635,3663.0
26.636,3653.0
26.637,3654.0
26.638,3661.0
26.639,3657.0
26.64,3654.0
26.641,3660.0
26.642,3655.0
26.643,3648.0
26.644,3648.0
26.645,3641.0
26.646,3646.0
26.647,3633.0
26.648,3635.0
26.649,3632.0
26.65,3610.0
26.651,3596.0
26.652,3592.0
26.653,3581.0
26.654,3566.0
26.655,3553.0
26.656,3548.0
26.657,3549.0
26.658,3524.0
26.659,3513.0
26.66,3511.0
26.661,3504.0
26.662,3500.0
26.663,3478.0
26.664,3462.0
26.665,3455.0
26.666,3444.0
26.667,3442.0
26.668,3435.0
26.669,3420.0
26.67,3399.0
26.671,3387.0
26.672,3376.0
26.673,3366.0
26.674,3354.0
26.675,3339.0
26.676,3324.0
26.677,3314.0
26.678,3312.0
26.679,3300.0
26.68,3285.0
26.681,3266.0
26.682,3244.0
26.683,3233.0
26.684,3228.0
26.685,3219.0
26.686,3207.0
26.687,3197.0
26.688,3185.0
26.689,3192.0
26.69,3177.0
26.691,3156.0
26.692,3134.0
26.693,3126.0
26.694,3114.0
26.695,3094.0
26.696,3087.0
26.697,3087.0
26.698,3075.0
26.699,3056.0
26.7,3035.0
26.701,3038.0
26.702,3023.0
26.703,3012.0
26.704,2995.0
26.705,2986.0
26.706,2981.0
26.707,2966.0
26.708,2971.0
26.709,2962.0
26.71,2948.0
26.711,2934.0
26.712,2926.0
26.713,2918.0
26.714,2910.0
26.715,2906.0
26.716,2898.0
26.717,2883.0
26.718,2879.0
26.719,2867.0
26.72,2866.0
26.721,2862.0
26.722,2848.0
26.723,2838.0
26.724,2827.0
26.725,2811.0
26.726,2803.0
26.727,2792.0
26.728,2785.0
26.729,2783.0
26.73,2766.0
26.731,2761.0
26.732,2755.0
26.733,2753.0
26.734,2738.0
26.735,2725.0
26.736,2733.0
26.737,2711.0
26.738,2709.0
26.739,2707.0
26.74,2709.0
26.741,2694.0
26.742,2687.0
26.743,2682.0
26.744,2684.0
26.745,2675.0
26.746,2670.0
26.747,2664.0
26.748,2657.0
26.749,2646.0
26.75,2637.0
26.751,2631.0
26.752,2626.0
26.753,2619.0
26.754,2616.0
26.755,2617.0
26.756,2607.0
26.757,2609.0
26.758,2598.0
26.759,2596.0
26.76,2602.0
26.761,2590.0
26.762,2588.0
26.763,2573.0
26.764,2571.0
26.765,2575.0
26.766,2576.0
26.767,2561.0
26.768,2560.0
26.769,2554.0
26.77,2552.0
26.771,2545.0
26.772,2547.0
26.773,2540.0
26.774,2537.0
26.775,2516.0
26.776,2520.0
26.777,2515.0
26.778,2523.0
26.779,2520.0
26.78,2508.0
26.781,2493.0
26.782,2493.0
26.783,2496.0
26.784,2487.0
26.785,2484.0
26.786,2479.0
26.787,2455.0
26.788,2443.0
26.789,2435.0
26.79,2437.0
26.791,2431.0
26.792,2428.0
26.793,2427.0
26.794,2424.0
26.795,2410.0
26.796,2406.0
26.797,2401.0
26.798,2403.0
26.799,2396.0
26.8,2392.0
26.801,2383.0
26.802,2385.0
26.803,2388.0
26.804,2394.0
26.805,2406.0
26.806,2392.0
26.807,2396.0
26.808,2383.0
26.809,2378.0
26.81,2377.0
26.811,2371.0
26.812,2364.0
26.813,2356.0
26.814,2353.0
26.815,2350.0
26.816,2351.0
26.817,2347.0
26.818,2347.0
26.819,2343.0
26.82,2348.0
26.821,2339.0
26.822,2332.0
26.823,2333.0
26.824,2338.0
26.825,2337.0
26.826,2338.0
26.827,2324.0
26.828,2320.0
26.829,2315.0
26.83,2311.0
26.831,2307.0
26.832,2290.0
26.833,2285.0
26.834,2283.0
26.835,2289.0
26.836,2292.0
26.837,2299.0
26.838,2296.0
26.839,2262.0
26.84,2211.0
26.841,2147.0
26.842,2087.0
26.843,1977.0
26.844,1924.0
26.845,1975.0
26.846,2147.0
26.847,2359.0
26.848,2540.0
26.849,2623.0
26.85,2698.0
26.851,2738.0
26.852,2767.0
26.853,2761.0
26.854,2757.0
26.855,2721.0
26.856,2651.0
26.857,2570.0
26.858,2499.0
26.859,2452.0
26.86,2418.0
26.861,2378.0
26.862,2330.0
26.863,2287.0
26.864,2244.0
26.865,2197.0
26.866,2140.0
26.867,2098.0
26.868,2074.0
26.869,2056.0
26.87,2042.0
26.871,2036.0
26.872,2031.0
26.873,2029.0
26.874,2031.0
26.875,2025.0
26.876,2023.0
26.877,2019.0
26.878,2031.0
26.879,2026.0
26.88,2030.0
26.881,2035.0
26.882,2039.0
26.883,2033.0
26.884,2032.0
26.885,2033.0
26.886,2045.0
26.887,2036.0
26.888,2041.0
26.889,2047.0
26.89,2043.0
26.891,2042.0
26.892,2038.0
26.893,2039.0
26.894,2040.0
26.895,2045.0
26.896,2044.0
26.897,2047.0
26.898,2037.0
26.899,2045.0
26.9,2044.0
26.901,2038.0
26.902,2027.0
26.903,2040.0
26.904,2044.0
26.905,2059.0
26.906,2044.0
26.907,2042.0
26.908,2042.0
26.909,2035.0
26.91,2041.0
26.911,2044.0
26.912,2038.0
26.913,2026.0
26.914,2017.0
26.915,2019.0
26.916,2018.0
26.917,2025.0
26.918,2028.0
26.919,2028.0
26.92,2037.0
26.921,2037.0
26.922,2042.0
26.923,2047.0
26.924,2047.0
26.925,2055.0
26.926,2063.0
26.927,2068.0
26.928,2075.0
26.929,2074.0
26.93,2088.0
26.931,2098.0
26.932,2100.0
26.933,2105.0
26.934,2111.0
26.935,2124.0
26.936,2135.0
26.937,2149.0
26.938,2159.0
26.939,2160.0
26.94,2172.0
26.941,2173.0
26.942,2189.0
26.943,2189.0
26.944,2194.0
26.945,2197.0
26.946,2197.0
26.947,2202.0
26.948,2206.0
26.949,2209.0
26.95,2215.0
26.951,2213.0
26.952,2219.0
26.953,2224.0
26.954,2216.0
26.955,2210.0
26.956,2218.0
26.957,2216.0
26.958,2220.0
26.959,2211.0
26.96,2210.0
26.961,2211.0
26.962,2210.0
26.963,2210.0
26.964,2210.0
26.965,2204.0
26.966,2199.0
26.967,2204.0
26.968,2193.0
26.969,2193.0
26.97,2189.0
26.971,2195.0
26.972,2192.0
26.973,2190.0
26.974,2183.0
26.975,2180.0
26.976,2179.0
26.977,2175.0
26.978,2169.0
26.979,2162.0
26.98,2159.0
26.981,2158.0
26.982,2158.0
26.983,2159.0
26.984,2155.0
26.985,2146.0
26.986,2141.0
26.987,2137.0
26.988,2127.0
26.989,2127.0
26.99,2134.0
26.991,2123.0
26.992,2122.0
26.993,2116.0
26.994,2113.0
26.995,2111.0
26.996,2112.0
26.997,2119.0
26.998,2115.0
26.999,2113.0
27.0,2105.0
27.001,2103.0
27.002,2106.0
27.003,2096.0
27.004,2097.0
27.005,2103.0
27.006,2107.0
27.007,2101.0
27.008,2100.0
27.009,2095.0
27.01,2090.0
27.011,2089.0
27.012,2087.0
27.013,2089.0
27.014,2091.0
27.015,2100.0
27.016,2100.0
27.017,2094.0
27.018,2092.0
27.019,2085.0
27.02,2094.0
27.021,2095.0
27.022,2090.0
27.023,2093.0
27.024,2093.0
27.025,2093.0
27.026,2080.0
27.027,2077.0
27.028,2082.0
27.029,2084.0
27.03,2082.0
27.031,2085.0
27.032,2085.0
27.033,2081.0
27.034,2082.0
27.035,2080.0
27.036,2087.0
27.037,2083.0
27.038,2084.0
27.039,2077.0
27.04,2083.0
27.041,2089.0
27.042,2078.0
27.043,2085.0
27.044,2092.0
27.045,2084.0
27.046,2079.0
27.047,2081.0
27.048,2080.0
27.049,2075.0
27.05,2066.0
27.051,2075.0
27.052,2080.0
27.053,2077.0
27.054,2078.0
27.055,2077.0
27.056,2077.0
27.057,2068.0
27.058,2066.0
27.059,2066.0
27.06,2078.0
27.061,2064.0
27.062,2056.0
27.063,2062.0
27.064,2065.0
27.065,2051.0
27.066,2040.0
27.067,2056.0
27.068,2053.0
27.069,2054.0
27.07,2049.0
27.071,2050.0
27.072,2041.0
27.073,2041.0
27.074,2040.0
27.075,2045.0
27.076,2046.0
27.077,2039.0
27.078,2049.0
27.079,2040.0
27.08,2049.0
27.081,2045.0
27.082,2053.0
27.083,2064.0
27.084,2065.0
27.085,2072.0
27.086,2063.0
27.087,2066.0
27.088,2067.0
27.089,2059.0
27.09,2037.0
27.091,2084.0
27.092,2066.0
27.093,2050.0
27.094,2049.0
27.095,2052.0
27.096,2053.0
27.097,2057.0
27.098,2056.0
27.099,2067.0
27.1,2059.0
27.101,2051.0
27.102,2048.0
27.103,2048.0
27.104,2048.0
27.105,2053.0
27.106,2054.0
27.107,2055.0
27.108,2050.0
27.109,2044.0
27.11,2051.0
27.111,2039.0
27.112,2030.0
27.113,2021.0
27.114,2033.0
27.115,2042.0
27.116,2028.0
27.117,2007.0
27.118,1954.0
27.119,1885.0
27.12,1798.0
27.121,1732.0
27.122,1737.0
27.123,1886.0
27.124,2116.0
27.125,2326.0
27.126,2475.0
27.127,2543.0
27.128,2593.0
27.129,2625.0
27.13,2601.0
27.131,2596.0
27.132,2570.0
27.133,2512.0
27.134,2413.0
27.135,2340.0
27.136,2280.0
27.137,2234.0
27.138,2191.0
27.139,2138.0
27.14,2084.0
27.141,2035.0
27.142,1967.0
27.143,1914.0
27.144,1871.0
27.145,1850.0
27.146,1827.0
27.147,1813.0
27.148,1831.0
27.149,1818.0
27.15,1824.0
27.151,1828.0
27.152,1828.0
27.153,1829.0
27.154,1877.0
27.155,1817.0
27.156,1835.0
27.157,1844.0
27.158,1841.0
27.159,1837.0
27.16,1838.0
27.161,1856.0
27.162,1857.0
27.163,1846.0
27.164,1864.0
27.165,1871.0
27.166,1862.0
27.167,1862.0
27.168,1866.0
27.169,1879.0
27.17,1875.0
27.171,1864.0
27.172,1877.0
27.173,1879.0
27.174,1880.0
27.175,1883.0
27.176,1887.0
27.177,1893.0
27.178,1890.0
27.179,1883.0
27.18,1887.0
27.181,1885.0
27.182,1878.0
27.183,1880.0
27.184,1882.0
27.185,1883.0
27.186,1883.0
27.187,1897.0
27.188,1889.0
27.189,1887.0
27.19,1879.0
27.191,1882.0
27.192,1889.0
27.193,1893.0
27.194,1895.0
27.195,1891.0
27.196,1900.0
27.197,1888.0
27.198,1896.0
27.199,1905.0
27.2,1911.0
27.201,1916.0
27.202,1911.0
27.203,1921.0
27.204,1936.0
27.205,1939.0
27.206,1950.0
27.207,1959.0
27.208,1974.0
27.209,1989.0
27.21,1987.0
27.211,2000.0
27.212,2015.0
27.213,2020.0
27.214,2031.0
27.215,2048.0
27.216,2058.0
27.217,2062.0
27.218,2069.0
27.219,2078.0
27.22,2087.0
27.221,2092.0
27.222,2091.0
27.223,2110.0
27.224,2111.0
27.225,2107.0
27.226,2107.0
27.227,2118.0
27.228,2115.0
27.229,2113.0
27.23,2124.0
27.231,2134.0
27.232,2130.0
27.233,2122.0
27.234,2124.0
27.235,2128.0
27.236,2123.0
27.237,2123.0
27.238,2120.0
27.239,2126.0
27.24,2124.0
27.241,2116.0
27.242,2118.0
27.243,2113.0
27.244,2109.0
27.245,2108.0
27.246,2105.0
27.247,2112.0
27.248,2110.0
27.249,2102.0
27.25,2103.0
27.251,2102.0
27.252,2102.0
27.253,2100.0
27.254,2143.0
27.255,2123.0
27.256,2119.0
27.257,2107.0
27.258,2112.0
27.259,2110.0
27.26,2101.0
27.261,2102.0
27.262,2110.0
27.263,2108.0
27.264,2100.0
27.265,2104.0
27.266,2108.0
27.267,2101.0
27.268,2098.0
27.269,2088.0
27.27,2097.0
27.271,2092.0
27.272,2076.0
27.273,2074.0
27.274,2068.0
27.275,2058.0
27.276,2057.0
27.277,2056.0
27.278,2060.0
27.279,2054.0
27.28,2037.0
27.281,2024.0
27.282,2011.0
27.283,2003.0
27.284,1999.0
27.285,1981.0
27.286,1964.0
27.287,1932.0
27.288,1913.0
27.289,1896.0
27.29,1896.0
27.291,1890.0
27.292,1917.0
27.293,1961.0
27.294,1962.0
27.295,1949.0
27.296,1943.0
27.297,1941.0
27.298,1948.0
27.299,1930.0
27.3,1930.0
27.301,1926.0
27.302,1925.0
27.303,1916.0
27.304,1912.0
27.305,1922.0
27.306,1922.0
27.307,1922.0
27.308,1921.0
27.309,1927.0
27.31,1930.0
27.311,1935.0
27.312,1926.0
27.313,1921.0
27.314,1919.0
27.315,1914.0
27.316,1908.0
27.317,1914.0
27.318,1919.0
27.319,1923.0
27.32,1920.0
27.321,1920.0
27.322,1920.0
27.323,1922.0
27.324,1938.0
27.325,1939.0
27.326,1936.0
27.327,1936.0
27.328,1945.0
27.329,1948.0
27.33,1947.0
27.331,1948.0
27.332,1957.0
27.333,1958.0
27.334,1958.0
27.335,1970.0
27.336,1979.0
27.337,1981.0
27.338,1973.0
27.339,1973.0
27.34,1978.0
27.341,1981.0
27.342,1981.0
27.343,1967.0
27.344,1977.0
27.345,1976.0
27.346,1970.0
27.347,1963.0
27.348,1961.0
27.349,1965.0
27.35,1949.0
27.351,1955.0
27.352,1953.0
27.353,1943.0
27.354,1940.0
27.355,1949.0
27.356,1960.0
27.357,1966.0
27.358,1959.0
27.359,1969.0
27.36,1962.0
27.361,1965.0
27.362,1945.0
27.363,1920.0
27.364,1912.0
27.365,1898.0
27.366,1889.0
27.367,1901.0
27.368,1915.0
27.369,1914.0
27.37,1913.0
27.371,1928.0
27.372,1949.0
27.373,1922.0
27.374,1916.0
27.375,1917.0
27.376,1908.0
27.377,1896.0
27.378,1881.0
27.379,1864.0
27.38,1853.0
27.381,1836.0
27.382,1833.0
27.383,1839.0
27.384,1820.0
27.385,1788.0
27.386,1772.0
27.387,1751.0
27.388,1751.0
27.389,1731.0
27.39,1738.0
27.391,1739.0
27.392,1741.0
27.393,1744.0
27.394,1757.0
27.395,1768.0
27.396,1769.0
27.397,1754.0
27.398,1753.0
27.399,1772.0
27.4,1783.0
27.401,1783.0
27.402,1791.0
27.403,1789.0
27.404,1766.0
27.405,1699.0
27.406,1654.0
27.407,1583.0
27.408,1542.0
27.409,1542.0
27.41,1690.0
27.411,2032.0
27.412,2301.0
27.413,2439.0
27.414,2530.0
27.415,2694.0
27.416,2778.0
27.417,2839.0
27.418,3046.0
27.419,3089.0
27.42,3054.0
27.421,2995.0
27.422,2940.0
27.423,2893.0
27.424,2816.0
27.425,2677.0
27.426,2598.0
27.427,2534.0
27.428,2456.0
27.429,2372.0
27.43,2310.0
27.431,2281.0
27.432,2256.0
27.433,2219.0
27.434,2243.0
27.435,2270.0
27.436,2239.0
27.437,2150.0
27.438,2129.0
27.439,2113.0
27.44,2106.0
27.441,2109.0
27.442,2102.0
27.443,2100.0
27.444,2094.0
27.445,2109.0
27.446,2107.0
27.447,2110.0
27.448,2105.0
27.449,2107.0
27.45,2114.0
27.451,2101.0
27.452,2095.0
27.453,2081.0
27.454,2079.0
27.455,2074.0
27.456,2062.0
27.457,2061.0
27.458,2058.0
27.459,2052.0
27.46,2050.0
27.461,2058.0
27.462,2056.0
27.463,2055.0
27.464,2056.0
27.465,2041.0
27.466,2047.0
27.467,2026.0
27.468,2036.0
27.469,2026.0
27.47,2015.0
27.471,2020.0
27.472,2019.0
27.473,2006.0
27.474,2000.0
27.475,1994.0
27.476,1997.0
27.477,2010.0
27.478,2005.0
27.479,1996.0
27.48,2006.0
27.481,1990.0
27.482,1980.0
27.483,1968.0
27.484,1739.0
27.485,1604.0
27.486,1583.0
27.487,1588.0
27.488,1612.0
27.489,1614.0
27.49,1611.0
27.491,1617.0
27.492,1637.0
27.493,1658.0
27.494,1671.0
27.495,1693.0
27.496,1713.0
27.497,1728.0
27.498,1734.0
27.499,1741.0
27.5,1735.0
27.501,1741.0
27.502,1733.0
27.503,1574.0
27.504,1548.0
27.505,1536.0
27.506,1546.0
27.507,1569.0
27.508,1586.0
27.509,1600.0
27.51,1620.0
27.511,1638.0
27.512,1663.0
27.513,1661.0
27.514,1665.0
27.515,1691.0
27.516,1699.0
27.517,1707.0
27.518,1708.0
27.519,1738.0
27.52,1762.0
27.521,1767.0
27.522,1759.0
27.523,1773.0
27.524,1791.0
27.525,1796.0
27.526,1805.0
27.527,1825.0
27.528,1839.0
27.529,1838.0
27.53,1837.0
27.531,1855.0
27.532,1863.0
27.533,1872.0
27.534,1877.0
27.535,1891.0
27.536,1902.0
27.537,1892.0
27.538,1901.0
27.539,1930.0
27.54,1938.0
27.541,1956.0
27.542,1978.0
27.543,1959.0
27.544,1953.0
27.545,1942.0
27.546,1933.0
27.547,1931.0
27.548,1931.0
27.549,1937.0
27.55,1943.0
27.551,1953.0
27.552,1952.0
27.553,1940.0
27.554,1940.0
27.555,1947.0
27.556,1945.0
27.557,1947.0
27.558,1962.0
27.559,1968.0
27.56,1943.0
27.561,1905.0
27.562,1893.0
27.563,1899.0
27.564,1883.0
27.565,1879.0
27.566,1879.0
27.567,1894.0
27.568,1881.0
27.569,1870.0
27.57,1881.0
27.571,1886.0
27.572,1879.0
27.573,1905.0
27.574,1891.0
27.575,2039.0
27.576,2005.0
27.577,1956.0
27.578,1946.0
27.579,1933.0
27.58,1926.0
27.581,1926.0
27.582,1933.0
27.583,1934.0
27.584,1927.0
27.585,1924.0
27.586,1933.0
27.587,1930.0
27.588,1902.0
27.589,1889.0
27.59,1883.0
27.591,1868.0
27.592,1861.0
27.593,1868.0
27.594,1866.0
27.595,1890.0
27.596,1890.0
27.597,1918.0
27.598,1925.0
27.599,1926.0
27.6,1942.0
27.601,1945.0
27.602,1955.0
27.603,1954.0
27.604,1961.0
27.605,1969.0
27.606,1975.0
27.607,1970.0
27.608,1994.0
27.609,2002.0
27.61,2003.0
27.611,2000.0
27.612,2006.0
27.613,2020.0
27.614,2018.0
27.615,2017.0
27.616,2025.0
27.617,2038.0
27.618,2116.0
27.619,2192.0
27.62,2215.0
27.621,2224.0
27.622,2212.0
27.623,2209.0
27.624,2212.0
27.625,2206.0
27.626,2199.0
27.627,2185.0
27.628,2202.0
27.629,2192.0
27.63,2191.0
27.631,2178.0
27.632,2175.0
27.633,2164.0
27.634,2153.0
27.635,2142.0
27.636,2141.0
27.637,2143.0
27.638,2132.0
27.639,2132.0
27.64,2135.0
27.641,2128.0
27.642,2124.0
27.643,2116.0
27.644,2126.0
27.645,2128.0
27.646,2114.0
27.647,2117.0
27.648,2126.0
27.649,2119.0
27.65,2113.0
27.651,2111.0
27.652,2113.0
27.653,2102.0
27.654,2107.0
27.655,2106.0
27.656,2116.0
27.657,2112.0
27.658,2107.0
27.659,2107.0
27.66,2105.0
27.661,2094.0
27.662,2079.0
27.663,2085.0
27.664,2082.0
27.665,2075.0
27.666,2071.0
27.667,2089.0
27.668,2097.0
27.669,2078.0
27.67,2071.0
27.671,2081.0
27.672,2105.0
27.673,2092.0
27.674,2079.0
27.675,2081.0
27.676,2099.0
27.677,2077.0
27.678,2076.0
27.679,2088.0
27.68,2095.0
27.681,2097.0
27.682,2089.0
27.683,2099.0
27.684,2097.0
27.685,2088.0
27.686,2083.0
27.687,2093.0
27.688,2087.0
27.689,2086.0
27.69,2076.0
27.691,2082.0
27.692,2081.0
27.693,2071.0
27.694,2069.0
27.695,2076.0
27.696,2075.0
27.697,2072.0
27.698,2070.0
27.699,2086.0
27.7,2082.0
27.701,2075.0
27.702,2082.0
27.703,2082.0
27.704,2074.0
27.705,2068.0
27.706,2063.0
27.707,2070.0
27.708,2058.0
27.709,2064.0
27.71,2062.0
27.711,2074.0
27.712,2079.0
27.713,2071.0
27.714,2039.0
27.715,1982.0
27.716,1887.0
27.717,1818.0
27.718,1775.0
27.719,1847.0
27.72,2027.0
27.721,2254.0
27.722,2447.0
27.723,2513.0
27.724,2558.0
27.725,2598.0
27.726,2627.0
27.727,2634.0
27.728,2634.0
27.729,2545.0
27.73,2427.0
27.731,2332.0
27.732,2264.0
27.733,2206.0
27.734,2148.0
27.735,2096.0
27.736,2055.0
27.737,2006.0
27.738,1936.0
27.739,1875.0
27.74,1837.0
27.741,1816.0
27.742,1795.0
27.743,1782.0
27.744,1792.0
27.745,1809.0
27.746,1820.0
27.747,1822.0
27.748,1833.0
27.749,1841.0
27.75,1850.0
27.751,1846.0
27.752,1844.0
27.753,1860.0
27.754,1869.0
27.755,1857.0
27.756,1886.0
27.757,1893.0
27.758,1897.0
27.759,1902.0
27.76,1925.0
27.761,1938.0
27.762,1938.0
27.763,1932.0
27.764,1927.0
27.765,1937.0
27.766,1899.0
27.767,1883.0
27.768,1883.0
27.769,1886.0
27.77,1876.0
27.771,1871.0
27.772,1877.0
27.773,1893.0
27.774,1879.0
27.775,1881.0
27.776,1897.0
27.777,1903.0
27.778,1900.0
27.779,1876.0
27.78,1876.0
27.781,1895.0
27.782,1888.0
27.783,1890.0
27.784,1916.0
27.785,1915.0
27.786,1911.0
27.787,1906.0
27.788,1909.0
27.789,1913.0
27.79,1920.0
27.791,1909.0
27.792,1918.0
27.793,1924.0
27.794,1916.0
27.795,1912.0
27.796,1923.0
27.797,1938.0
27.798,1932.0
27.799,1928.0
27.8,1947.0
27.801,1952.0
27.802,1953.0
27.803,1966.0
27.804,1983.0
27.805,1977.0
27.806,1986.0
27.807,2007.0
27.808,2021.0
27.809,2023.0
27.81,2030.0
27.811,2046.0
27.812,2060.0
27.813,2055.0
27.814,2059.0
27.815,2080.0
27.816,2098.0
27.817,2106.0
27.818,2105.0
27.819,2115.0
27.82,2126.0
27.821,2126.0
27.822,2134.0
27.823,2143.0
27.824,2157.0
27.825,2163.0
27.826,2144.0
27.827,2153.0
27.828,2159.0
27.829,2160.0
27.83,2156.0
27.831,2156.0
27.832,2168.0
27.833,2168.0
27.834,2160.0
27.835,2185.0
27.836,2217.0
27.837,2205.0
27.838,2204.0
27.839,2202.0
27.84,2201.0
27.841,2192.0
27.842,2192.0
27.843,2184.0
27.844,2187.0
27.845,2182.0
27.846,2172.0
27.847,2177.0
27.848,2180.0
27.849,2172.0
27.85,2164.0
27.851,2158.0
27.852,2154.0
27.853,2149.0
27.854,2158.0
27.855,2169.0
27.856,2164.0
27.857,2161.0
27.858,2147.0
27.859,2152.0
27.86,2144.0
27.861,2136.0
27.862,2138.0
27.863,2137.0
27.864,2130.0
27.865,2122.0
27.866,2124.0
27.867,2120.0
27.868,2107.0
27.869,2099.0
27.87,2110.0
27.871,2115.0
27.872,2120.0
27.873,2123.0
27.874,2126.0
27.875,2118.0
27.876,2110.0
27.877,2110.0
27.878,2103.0
27.879,2096.0
27.88,2088.0
27.881,2091.0
27.882,2091.0
27.883,2089.0
27.884,2096.0
27.885,2093.0
27.886,2090.0
27.887,2110.0
27.888,2101.0
27.889,2095.0
27.89,2093.0
27.891,2086.0
27.892,2084.0
27.893,2094.0
27.894,2084.0
27.895,2075.0
27.896,2074.0
27.897,2075.0
27.898,2067.0
27.899,2092.0
27.9,2113.0
27.901,2179.0
27.902,2200.0
27.903,2192.0
27.904,2189.0
27.905,2181.0
27.906,2245.0
27.907,2244.0
27.908,2249.0
27.909,2294.0
27.91,2324.0
27.911,2344.0
27.912,2329.0
27.913,2287.0
27.914,2266.0
27.915,2241.0
27.916,2248.0
27.917,2249.0
27.918,2255.0
27.919,2248.0
27.92,2247.0
27.921,2244.0
27.922,2236.0
27.923,2236.0
27.924,2237.0
27.925,2236.0
27.926,2227.0
27.927,2212.0
27.928,2418.0
27.929,2510.0
27.93,2494.0
27.931,2484.0
27.932,2480.0
27.933,2474.0
27.934,2447.0
27.935,2425.0
27.936,2414.0
27.937,2405.0
27.938,2390.0
27.939,2372.0
27.94,2362.0
27.941,2347.0
27.942,2322.0
27.943,2308.0
27.944,2292.0
27.945,2297.0
27.946,2259.0
27.947,2238.0
27.948,2222.0
27.949,2214.0
27.95,2199.0
27.951,2190.0
27.952,2196.0
27.953,2175.0
27.954,2164.0
27.955,2153.0
27.956,2149.0
27.957,2153.0
27.958,2158.0
27.959,2154.0
27.96,2152.0
27.961,2157.0
27.962,2144.0
27.963,2141.0
27.964,2146.0
27.965,2143.0
27.966,2143.0
27.967,2142.0
27.968,2130.0
27.969,2138.0
27.97,2100.0
27.971,2089.0
27.972,2085.0
27.973,2079.0
27.974,2083.0
27.975,2082.0
27.976,2078.0
27.977,2067.0
27.978,2053.0
27.979,2064.0
27.98,2063.0
27.981,2032.0
27.982,2033.0
27.983,2019.0
27.984,2009.0
27.985,1996.0
27.986,1995.0
27.987,1991.0
27.988,1988.0
27.989,1984.0
27.99,1997.0
27.991,2002.0
27.992,2011.0
27.993,2023.0
27.994,2042.0
27.995,2043.0
27.996,2051.0
27.997,2053.0
27.998,2049.0
27.999,2053.0
28.0,2057.0
28.001,2055.0
28.002,2008.0
28.003,2181.0
28.004,2296.0
28.005,2343.0
28.006,2385.0
28.007,2409.0
28.008,2387.0
28.009,2443.0
28.01,2490.0
28.011,2502.0
28.012,2507.0
28.013,2495.0
28.014,2496.0
28.015,2474.0
28.016,2459.0
28.017,2441.0
28.018,2431.0
28.019,2414.0
28.02,2398.0
28.021,2376.0
28.022,2360.0
28.023,2344.0
28.024,2326.0
28.025,2307.0
28.026,2260.0
28.027,2210.0
28.028,2133.0
28.029,2047.0
28.03,1952.0
28.031,1907.0
28.032,1978.0
28.033,2159.0
28.034,2355.0
28.035,2507.0
28.036,2588.0
28.037,2652.0
28.038,2680.0
28.039,2676.0
28.04,2653.0
28.041,2640.0
28.042,2581.0
28.043,2497.0
28.044,2414.0
28.045,2367.0
28.046,2335.0
28.047,2294.0
28.048,2242.0
28.049,2192.0
28.05,2143.0
28.051,2081.0
28.052,2018.0
28.053,1953.0
28.054,1905.0
28.055,1869.0
28.056,1845.0
28.057,1843.0
28.058,1842.0
28.059,1825.0
28.06,1818.0
28.061,1820.0
28.062,1811.0
28.063,1805.0
28.064,1806.0
28.065,1814.0
28.066,1805.0
28.067,1802.0
28.068,1809.0
28.069,1826.0
28.07,1814.0
28.071,1794.0
28.072,1793.0
28.073,1793.0
28.074,1792.0
28.075,1784.0
28.076,1790.0
28.077,1782.0
28.078,1777.0
28.079,1778.0
28.08,1780.0
28.081,1782.0
28.082,1780.0
28.083,1772.0
28.084,1779.0
28.085,1768.0
28.086,1766.0
28.087,1757.0
28.088,1764.0
28.089,1761.0
28.09,1748.0
28.091,1736.0
28.092,1741.0
28.093,1742.0
28.094,1739.0
28.095,1737.0
28.096,1738.0
28.097,1750.0
28.098,1740.0
28.099,1738.0
28.1,1735.0
28.101,1739.0
28.102,1732.0
28.103,1737.0
28.104,1728.0
28.105,1752.0
28.106,1750.0
28.107,1748.0
28.108,1760.0
28.109,1763.0
28.11,1763.0
28.111,1768.0
28.112,1777.0
28.113,1784.0
28.114,1787.0
28.115,1800.0
28.116,1811.0
28.117,1813.0
28.118,1817.0
28.119,1830.0
28.12,1845.0
28.121,1862.0
28.122,1868.0
28.123,1875.0
28.124,1907.0
28.125,1906.0
28.126,1921.0
28.127,1935.0
28.128,1929.0
28.129,1947.0
28.13,1947.0
28.131,1945.0
28.132,1958.0
28.133,1968.0
28.134,1963.0
28.135,1974.0
28.136,1981.0
28.137,1991.0
28.138,1993.0
28.139,1995.0
28.14,1996.0
28.141,1989.0
28.142,1992.0
28.143,1997.0
28.144,1993.0
28.145,2015.0
28.146,2001.0
28.147,2004.0
28.148,2004.0
28.149,2002.0
28.15,2009.0
28.151,2013.0
28.152,2015.0
28.153,2010.0
28.154,2006.0
28.155,2005.0
28.156,2009.0
28.157,1998.0
28.158,2001.0
28.159,2002.0
28.16,1998.0
28.161,2004.0
28.162,2003.0
28.163,1997.0
28.164,1996.0
28.165,1999.0
28.166,2002.0
28.167,1994.0
28.168,1979.0
28.169,1984.0
28.17,1995.0
28.171,1987.0
28.172,1987.0
28.173,1984.0
28.174,1980.0
28.175,1978.0
28.176,1984.0
28.177,1987.0
28.178,1987.0
28.179,1977.0
28.18,1979.0
28.181,1975.0
28.182,1978.0
28.183,1987.0
28.184,1977.0
28.185,1974.0
28.186,1979.0
28.187,1975.0
28.188,1968.0
28.189,1975.0
28.19,1974.0
28.191,1978.0
28.192,1972.0
28.193,1984.0
28.194,1985.0
28.195,1981.0
28.196,1974.0
28.197,1984.0
28.198,1976.0
28.199,1975.0
28.2,1985.0
28.201,1980.0
28.202,1980.0
28.203,1970.0
28.204,1966.0
28.205,1974.0
28.206,1982.0
28.207,1973.0
28.208,1974.0
28.209,1979.0
28.21,1988.0
28.211,1972.0
28.212,1978.0
28.213,1986.0
28.214,1977.0
28.215,1968.0
28.216,1965.0
28.217,1976.0
28.218,1983.0
28.219,1980.0
28.22,1976.0
28.221,1977.0
28.222,1977.0
28.223,1979.0
28.224,1993.0
28.225,1991.0
28.226,1992.0
28.227,1977.0
28.228,1981.0
28.229,1984.0
28.23,1981.0
28.231,1981.0
28.232,1994.0
28.233,2000.0
28.234,1999.0
28.235,1981.0
28.236,1981.0
28.237,1995.0
28.238,1981.0
28.239,1985.0
28.24,1993.0
28.241,1994.0
28.242,2000.0
28.243,1981.0
28.244,1989.0
28.245,2005.0
28.246,2005.0
28.247,1998.0
28.248,1987.0
28.249,1994.0
28.25,1995.0
28.251,1990.0
28.252,1996.0
28.253,2001.0
28.254,1995.0
28.255,1991.0
28.256,1993.0
28.257,1986.0
28.258,1989.0
28.259,1981.0
28.26,1988.0
28.261,1991.0
28.262,1989.0
28.263,1974.0
28.264,1971.0
28.265,1978.0
28.266,1967.0
28.267,1975.0
28.268,1976.0
28.269,1979.0
28.27,1966.0
28.271,1975.0
28.272,1990.0
28.273,1991.0
28.274,1983.0
28.275,1986.0
28.276,1988.0
28.277,1990.0
28.278,1988.0
28.279,2005.0
28.28,2001.0
28.281,1999.0
28.282,2003.0
28.283,2001.0
28.284,2016.0
28.285,2012.0
28.286,2020.0
28.287,2015.0
28.288,2017.0
28.289,2020.0
28.29,2010.0
28.291,2009.0
28.292,2016.0
28.293,2006.0
28.294,2018.0
28.295,2018.0
28.296,2015.0
28.297,2016.0
28.298,2044.0
28.299,2015.0
28.3,2017.0
28.301,2019.0
28.302,2019.0
28.303,2011.0
28.304,2012.0
28.305,2002.0
28.306,2019.0
28.307,2012.0
28.308,2009.0
28.309,2010.0
28.31,2010.0
28.311,2001.0
28.312,1991.0
28.313,1996.0
28.314,2002.0
28.315,1978.0
28.316,1915.0
28.317,1851.0
28.318,1759.0
28.319,1699.0
28.32,1688.0
28.321,1798.0
28.322,2020.0
28.323,2246.0
28.324,2409.0
28.325,2479.0
28.326,2549.0
28.327,2587.0
28.328,2575.0
28.329,2565.0
28.33,2556.0
28.331,2504.0
28.332,2411.0
28.333,2335.0
28.334,2280.0
28.335,2233.0
28.336,2181.0
28.337,2139.0
28.338,2098.0
28.339,2050.0
28.34,1982.0
28.341,1921.0
28.342,1876.0
28.343,1838.0
28.344,1810.0
28.345,1806.0
28.346,1816.0
28.347,1819.0
28.348,1810.0
28.349,1814.0
28.35,1816.0
28.351,1817.0
28.352,1822.0
28.353,1828.0
28.354,1835.0
28.355,1836.0
28.356,1842.0
28.357,1848.0
28.358,1847.0
28.359,1845.0
28.36,1846.0
28.361,1854.0
28.362,1862.0
28.363,1854.0
28.364,1855.0
28.365,1871.0
28.366,1870.0
28.367,1865.0
28.368,1871.0
28.369,1884.0
28.37,1886.0
28.371,1873.0
28.372,1871.0
28.373,1882.0
28.374,1882.0
28.375,1876.0
28.376,1884.0
28.377,1891.0
28.378,1890.0
28.379,1878.0
28.38,1884.0
28.381,1885.0
28.382,1877.0
28.383,1881.0
28.384,1880.0
28.385,1879.0
28.386,1885.0
28.387,1873.0
28.388,1886.0
28.389,1885.0
28.39,1877.0
28.391,1878.0
28.392,1874.0
28.393,1871.0
28.394,1889.0
28.395,1890.0
28.396,1895.0
28.397,1902.0
28.398,1898.0
28.399,1917.0
28.4,1903.0
28.401,1917.0
28.402,1925.0
28.403,1926.0
28.404,1936.0
28.405,1940.0
28.406,1976.0
28.407,1998.0
28.408,2012.0
28.409,2023.0
28.41,2027.0
28.411,2050.0
28.412,2061.0
28.413,2074.0
28.414,2077.0
28.415,2087.0
28.416,2101.0
28.417,2115.0
28.418,2115.0
28.419,2117.0
28.42,2129.0
28.421,2126.0
28.422,2129.0
28.423,2132.0
28.424,2141.0
28.425,2136.0
28.426,2143.0
28.427,2147.0
28.428,2143.0
28.429,2144.0
28.43,2147.0
28.431,2140.0
28.432,2146.0
28.433,2151.0
28.434,2146.0
28.435,2137.0
28.436,2140.0
28.437,2135.0
28.438,2137.0
28.439,2140.0
28.44,2136.0
28.441,2140.0
28.442,2127.0
28.443,2133.0
28.444,2113.0
28.445,2112.0
28.446,2114.0
28.447,2114.0
28.448,2111.0
28.449,2103.0
28.45,2107.0
28.451,2107.0
28.452,2102.0
28.453,2093.0
28.454,2092.0
28.455,2096.0
28.456,2097.0
28.457,2083.0
28.458,2089.0
28.459,2081.0
28.46,2067.0
28.461,2064.0
28.462,2044.0
28.463,2074.0
28.464,2052.0
28.465,2063.0
28.466,2054.0
28.467,2065.0
28.468,2056.0
28.469,2055.0
28.47,2060.0
28.471,2046.0
28.472,2047.0
28.473,2043.0
28.474,2045.0
28.475,2040.0
28.476,2033.0
28.477,2036.0
28.478,2040.0
28.479,2035.0
28.48,2034.0
28.481,2038.0
28.482,2037.0
28.483,2038.0
28.484,2034.0
28.485,2022.0
28.486,2029.0
28.487,2025.0
28.488,2026.0
28.489,2030.0
28.49,2046.0
28.491,2035.0
28.492,2028.0
28.493,2021.0
28.494,2033.0
28.495,2034.0
28.496,2019.0
28.497,2027.0
28.498,2036.0
28.499,2036.0
28.5,2024.0
28.501,2053.0
28.502,2025.0
28.503,2025.0
28.504,2025.0
28.505,2035.0
28.506,2022.0
28.507,2038.0
28.508,2023.0
28.509,2027.0
28.51,2031.0
28.511,2077.0
28.512,2028.0
28.513,2025.0
28.514,2037.0
28.515,2029.0
28.516,2025.0
28.517,2042.0
28.518,2038.0
28.519,2027.0
28.52,2020.0
28.521,2022.0
28.522,2026.0
28.523,2023.0
28.524,2024.0
28.525,2032.0
28.526,2027.0
28.527,2023.0
28.528,2023.0
28.529,2025.0
28.53,2020.0
28.531,2027.0
28.532,2023.0
28.533,2024.0
28.534,2024.0
28.535,2025.0
28.536,2024.0
28.537,2024.0
28.538,2026.0
28.539,2014.0
28.54,2022.0
28.541,2021.0
28.542,2020.0
28.543,2020.0
28.544,2021.0
28.545,2024.0
28.546,2024.0
28.547,2013.0
28.548,2014.0
28.549,2018.0
28.55,2011.0
28.551,2006.0
28.552,1992.0
28.553,1985.0
28.554,1986.0
28.555,1984.0
28.556,1985.0
28.557,1997.0
28.558,1997.0
28.559,1997.0
28.56,2002.0
28.561,2001.0
28.562,2010.0
28.563,2007.0
28.564,2007.0
28.565,2009.0
28.566,2004.0
28.567,2011.0
28.568,2013.0
28.569,2021.0
28.57,2020.0
28.571,2019.0
28.572,2037.0
28.573,2037.0
28.574,2029.0
28.575,2036.0
28.576,2035.0
28.577,2034.0
28.578,2032.0
28.579,2028.0
28.58,2027.0
28.581,2015.0
28.582,2024.0
28.583,2026.0
28.584,2029.0
28.585,2024.0
28.586,2031.0
28.587,2031.0
28.588,2034.0
28.589,2034.0
28.59,2039.0
28.591,2030.0
28.592,2020.0
28.593,2020.0
28.594,2029.0
28.595,2030.0
28.596,2018.0
28.597,2019.0
28.598,2012.0
28.599,2017.0
28.6,2009.0
28.601,2007.0
28.602,2012.0
28.603,2021.0
28.604,2011.0
28.605,1988.0
28.606,1926.0
28.607,1858.0
28.608,1764.0
28.609,1695.0
28.61,1739.0
28.611,1908.0
28.612,2142.0
28.613,2378.0
28.614,2481.0
28.615,2542.0
28.616,2592.0
28.617,2618.0
28.618,2603.0
28.619,2605.0
28.62,2558.0
28.621,2484.0
28.622,2385.0
28.623,2332.0
28.624,2264.0
28.625,2206.0
28.626,2152.0
28.627,2107.0
28.628,2062.0
28.629,1997.0
28.63,1931.0
28.631,1876.0
28.632,1830.0
28.633,1806.0
28.634,1795.0
28.635,1799.0
28.636,1790.0
28.637,1797.0
28.638,1800.0
28.639,1801.0
28.64,1801.0
28.641,1810.0
28.642,1815.0
28.643,1822.0
28.644,1820.0
28.645,1819.0
28.646,1830.0
28.647,1825.0
28.648,1832.0
28.649,1840.0
28.65,1847.0
28.651,1850.0
28.652,1846.0
28.653,1850.0
28.654,1861.0
28.655,1855.0
28.656,1854.0
28.657,1860.0
28.658,1864.0
28.659,1877.0
28.66,1870.0
28.661,1874.0
28.662,1881.0
28.663,1885.0
28.664,1878.0
28.665,1885.0
28.666,1879.0
28.667,1880.0
28.668,1875.0
28.669,1882.0
28.67,1883.0
28.671,1880.0
28.672,1879.0
28.673,1879.0
28.674,1884.0
28.675,1878.0
28.676,1878.0
28.677,1883.0
28.678,1882.0
28.679,1876.0
28.68,1871.0
28.681,1873.0
28.682,1885.0
28.683,1883.0
28.684,1888.0
28.685,1889.0
28.686,1897.0
28.687,1894.0
28.688,1907.0
28.689,1923.0
28.69,1910.0
28.691,1925.0
28.692,1920.0
28.693,1934.0
28.694,1947.0
28.695,1985.0
28.696,1966.0
28.697,1969.0
28.698,1989.0
28.699,2004.0
28.7,2009.0
28.701,2026.0
28.702,2029.0
28.703,2035.0
28.704,2052.0
28.705,2062.0
28.706,2070.0
28.707,2083.0
28.708,2088.0
28.709,2087.0
28.71,2097.0
28.711,2098.0
28.712,2107.0
28.713,2120.0
28.714,2117.0
28.715,2141.0
28.716,2130.0
28.717,2125.0
28.718,2122.0
28.719,2126.0
28.72,2128.0
28.721,2122.0
28.722,2136.0
28.723,2157.0
28.724,2138.0
28.725,2130.0
28.726,2123.0
28.727,2128.0
28.728,2137.0
28.729,2133.0
28.73,2132.0
28.731,2128.0
28.732,2119.0
28.733,2118.0
28.734,2124.0
28.735,2121.0
28.736,2121.0
28.737,2125.0
28.738,2123.0
28.739,2115.0
28.74,2103.0
28.741,2094.0
28.742,2094.0
28.743,2099.0
28.744,2101.0
28.745,2091.0
28.746,2094.0
28.747,2098.0
28.748,2093.0
28.749,2091.0
28.75,2093.0
28.751,2087.0
28.752,2085.0
28.753,2065.0
28.754,2069.0
28.755,2080.0
28.756,2071.0
28.757,2062.0
28.758,2068.0
28.759,2071.0
28.76,2064.0
28.761,2066.0
28.762,2062.0
28.763,2078.0
28.764,2063.0
28.765,2045.0
28.766,2049.0
28.767,2061.0
28.768,2060.0
28.769,2061.0
28.77,2054.0
28.771,2064.0
28.772,2050.0
28.773,2051.0
28.774,2050.0
28.775,2055.0
28.776,2062.0
28.777,2050.0
28.778,2041.0
28.779,2050.0
28.78,2048.0
28.781,2044.0
28.782,2045.0
28.783,2045.0
28.784,2049.0
28.785,2052.0
28.786,2055.0
28.787,2052.0
28.788,2057.0
28.789,2056.0
28.79,2049.0
28.791,2056.0
28.792,2057.0
28.793,2051.0
28.794,2054.0
28.795,2046.0
28.796,2040.0
28.797,2044.0
28.798,2048.0
28.799,2049.0
28.8,2047.0
28.801,2051.0
28.802,2050.0
28.803,2057.0
28.804,2058.0
28.805,2057.0
28.806,2058.0
28.807,2047.0
28.808,2045.0
28.809,2054.0
28.81,2058.0
28.811,2056.0
28.812,2042.0
28.813,2047.0
28.814,2059.0
28.815,2063.0
28.816,2047.0
28.817,2049.0
28.818,2048.0
28.819,2051.0
28.82,2043.0
28.821,2048.0
28.822,2053.0
28.823,2056.0
28.824,2049.0
28.825,2046.0
28.826,2044.0
28.827,2044.0
28.828,2036.0
28.829,2039.0
28.83,2040.0
28.831,2042.0
28.832,2047.0
28.833,2041.0
28.834,2040.0
28.835,2042.0
28.836,2037.0
28.837,2041.0
28.838,2036.0
28.839,2034.0
28.84,2046.0
28.841,2039.0
28.842,2034.0
28.843,2033.0
28.844,2036.0
28.845,2037.0
28.846,2038.0
28.847,2037.0
28.848,2024.0
28.849,2023.0
28.85,2006.0
28.851,1994.0
28.852,2006.0
28.853,2004.0
28.854,2024.0
28.855,2017.0
28.856,2024.0
28.857,2018.0
28.858,2019.0
28.859,2028.0
28.86,2028.0
28.861,2029.0
28.862,2031.0
28.863,2028.0
28.864,2036.0
28.865,2047.0
28.866,2053.0
28.867,2047.0
28.868,2055.0
28.869,2047.0
28.87,2058.0
28.871,2069.0
28.872,2067.0
28.873,2049.0
28.874,2058.0
28.875,2070.0
28.876,2066.0
28.877,2052.0
28.878,2062.0
28.879,2064.0
28.88,2068.0
28.881,2059.0
28.882,2067.0
28.883,2063.0
28.884,2082.0
28.885,2065.0
28.886,2067.0
28.887,2077.0
28.888,2062.0
28.889,2055.0
28.89,2059.0
28.891,2061.0
28.892,2065.0
28.893,2062.0
28.894,2062.0
28.895,2052.0
28.896,2052.0
28.897,2038.0
28.898,2044.0
28.899,2066.0
28.9,2068.0
28.901,2059.0
28.902,2023.0
28.903,1958.0
28.904,1876.0
28.905,1806.0
28.906,1761.0
28.907,1853.0
28.908,2050.0
28.909,2256.0
28.91,2459.0
28.911,2539.0
28.912,2596.0
28.913,2640.0
28.914,2652.0
28.915,2654.0
28.916,2648.0
28.917,2592.0
28.918,2505.0
28.919,2427.0
28.92,2363.0
28.921,2299.0
28.922,2245.0
28.923,2191.0
28.924,2143.0
28.925,2089.0
28.926,2020.0
28.927,1950.0
28.928,1887.0
28.929,1857.0
28.93,1846.0
28.931,1848.0
28.932,1838.0
28.933,1841.0
28.934,1848.0
28.935,1848.0
28.936,1848.0
28.937,1851.0
28.938,1855.0
28.939,1859.0
28.94,1866.0
28.941,1859.0
28.942,1863.0
28.943,1871.0
28.944,1869.0
28.945,1875.0
28.946,1879.0
28.947,1881.0
28.948,1887.0
28.949,1893.0
28.95,1895.0
28.951,1889.0
28.952,1899.0
28.953,1903.0
28.954,1909.0
28.955,1911.0
28.956,1911.0
28.957,1909.0
28.958,1915.0
28.959,1918.0
28.96,1917.0
28.961,1912.0
28.962,1914.0
28.963,1921.0
28.964,1926.0
28.965,1927.0
28.966,1930.0
28.967,1922.0
28.968,1936.0
28.969,1928.0
28.97,1914.0
28.971,1924.0
28.972,1931.0
28.973,1918.0
28.974,1913.0
28.975,1914.0
28.976,1923.0
28.977,1923.0
28.978,1935.0
28.979,1920.0
28.98,1933.0
28.981,1928.0
28.982,1928.0
28.983,1938.0
28.984,1946.0
28.985,1946.0
28.986,1953.0
28.987,1966.0
28.988,1974.0
28.989,1985.0
28.99,1983.0
28.991,1995.0
28.992,2003.0
28.993,2015.0
28.994,2019.0
28.995,2029.0
28.996,2029.0
28.997,2040.0
28.998,2057.0
28.999,2085.0
29.0,2070.0
29.001,2087.0
29.002,2106.0
29.003,2120.0
29.004,2119.0
29.005,2113.0
29.006,2120.0
29.007,2135.0
29.008,2145.0
29.009,2149.0
29.01,2155.0
29.011,2153.0
29.012,2164.0
29.013,2158.0
29.014,2158.0
29.015,2164.0
29.016,2174.0
29.017,2172.0
29.018,2172.0
29.019,2178.0
29.02,2168.0
29.021,2162.0
29.022,2153.0
29.023,2161.0
29.024,2165.0
29.025,2163.0
29.026,2161.0
29.027,2161.0
29.028,2161.0
29.029,2152.0
29.03,2145.0
29.031,2144.0
29.032,2152.0
29.033,2139.0
29.034,2143.0
29.035,2145.0
29.036,2148.0
29.037,2130.0
29.038,2126.0
29.039,2133.0
29.04,2137.0
29.041,2128.0
29.042,2125.0
29.043,2135.0
29.044,2131.0
29.045,2121.0
29.046,2101.0
29.047,2109.0
29.048,2116.0
29.049,2108.0
29.05,2100.0
29.051,2107.0
29.052,2107.0
29.053,2104.0
29.054,2112.0
29.055,2109.0
29.056,2102.0
29.057,2092.0
29.058,2098.0
29.059,2090.0
29.06,2089.0
29.061,2089.0
29.062,2091.0
29.063,2080.0
29.064,2091.0
29.065,2081.0
29.066,2091.0
29.067,2096.0
29.068,2086.0
29.069,2083.0
29.07,2095.0
29.071,2082.0
29.072,2091.0
29.073,2078.0
29.074,2087.0
29.075,2092.0
29.076,2093.0
29.077,2082.0
29.078,2081.0
29.079,2086.0
29.08,2071.0
29.081,2079.0
29.082,2080.0
29.083,2085.0
29.084,2093.0
29.085,2078.0
29.086,2074.0
29.087,2083.0
29.088,2093.0
29.089,2093.0
29.09,2088.0
29.091,2085.0
29.092,2075.0
29.093,2067.0
29.094,2073.0
29.095,2087.0
29.096,2077.0
29.097,2078.0
29.098,2076.0
29.099,2077.0
29.1,2079.0
29.101,2086.0
29.102,2089.0
29.103,2096.0
29.104,2079.0
29.105,2077.0
29.106,2083.0
29.107,2079.0
29.108,2074.0
29.109,2078.0
29.11,2084.0
29.111,2068.0
29.112,2066.0
29.113,2073.0
29.114,2086.0
29.115,2074.0
29.116,2080.0
29.117,2076.0
29.118,2072.0
29.119,2087.0
29.12,2085.0
29.121,2087.0
29.122,2062.0
29.123,2064.0
29.124,2068.0
29.125,2068.0
29.126,2075.0
29.127,2082.0
29.128,2082.0
29.129,2073.0
29.13,2076.0
29.131,2070.0
29.132,2075.0
29.133,2060.0
29.134,2068.0
29.135,2074.0
29.136,2069.0
29.137,2049.0
29.138,2052.0
29.139,2049.0
29.14,2059.0
29.141,2066.0
29.142,2061.0
29.143,2048.0
29.144,2048.0
29.145,2040.0
29.146,2039.0
29.147,2037.0
29.148,2048.0
29.149,2048.0
29.15,2051.0
29.151,2051.0
29.152,2053.0
29.153,2062.0
29.154,2052.0
29.155,2050.0
29.156,2057.0
29.157,2058.0
29.158,2051.0
29.159,2058.0
29.16,2055.0
29.161,2058.0
29.162,2063.0
29.163,2051.0
29.164,2066.0
29.165,2061.0
29.166,2071.0
29.167,2078.0
29.168,2077.0
29.169,2072.0
29.17,2080.0
29.171,2074.0
29.172,2079.0
29.173,2074.0
29.174,2065.0
29.175,2072.0
29.176,2081.0
29.177,2072.0
29.178,2066.0
29.179,2066.0
29.18,2083.0
29.181,2072.0
29.182,2074.0
29.183,2071.0
29.184,2073.0
29.185,2069.0
29.186,2064.0
29.187,2069.0
29.188,2069.0
29.189,2066.0
29.19,2061.0
29.191,2054.0
29.192,2049.0
29.193,2041.0
29.194,2042.0
29.195,2035.0
29.196,2021.0
29.197,1962.0
