14.388,3133.0
14.389,3131.0
14.39,3128.0
14.391,3123.0
14.392,3128.0
14.393,3132.0
14.394,3138.0
14.395,3134.0
14.396,3149.0
14.397,3140.0
14.398,3134.0
14.399,3129.0
14.4,3142.0
14.401,3140.0
14.402,3148.0
14.403,3147.0
14.404,3152.0
14.405,3154.0
14.406,3155.0
14.407,3146.0
14.408,3148.0
14.409,3146.0
14.41,3153.0
14.411,3143.0
14.412,3148.0
14.413,3147.0
14.414,3141.0
14.415,3128.0
14.416,3130.0
14.417,3125.0
14.418,3119.0
14.419,3105.0
14.42,3094.0
14.421,3085.0
14.422,3068.0
14.423,3059.0
14.424,3052.0
14.425,3050.0
14.426,3044.0
14.427,3025.0
14.428,3017.0
14.429,3004.0
14.43,2995.0
14.431,2988.0
14.432,2990.0
14.433,2994.0
14.434,2984.0
14.435,2970.0
14.436,2975.0
14.437,2970.0
14.438,2968.0
14.439,2956.0
14.44,2943.0
14.441,2941.0
14.442,2942.0
14.443,2931.0
14.444,2928.0
14.445,2929.0
14.446,2924.0
14.447,2907.0
14.448,2906.0
14.449,2896.0
14.45,2880.0
14.451,2848.0
14.452,2831.0
14.453,2848.0
14.454,2834.0
14.455,2838.0
14.456,2835.0
14.457,2822.0
14.458,2787.0
14.459,2803.0
14.46,2770.0
14.461,2754.0
14.462,2741.0
14.463,2728.0
14.464,2716.0
14.465,2710.0
14.466,2683.0
14.467,2656.0
14.468,2641.0
14.469,2657.0
14.47,2652.0
14.471,2633.0
14.472,2648.0
14.473,2627.0
14.474,2610.0
14.475,2584.0
14.476,2481.0
14.477,2194.0
14.478,2047.0
14.479,1981.0
14.48,1946.0
14.481,1930.0
14.482,1926.0
14.483,1904.0
14.484,1896.0
14.485,1891.0
14.486,1865.0
14.487,1830.0
14.488,1812.0
14.489,1816.0
14.49,1804.0
14.491,1803.0
14.492,1807.0
14.493,1803.0
14.494,1802.0
14.495,1804.0
14.496,1807.0
14.497,1806.0
14.498,1804.0
14.499,1807.0
14.5,1813.0
14.501,1813.0
14.502,1824.0
14.503,1831.0
14.504,1858.0
14.505,1860.0
14.506,1886.0
14.507,1888.0
14.508,1891.0
14.509,1896.0
14.51,2219.0
14.511,2568.0
14.512,2682.0
14.513,2728.0
14.514,2747.0
14.515,2729.0
14.516,2728.0
14.517,2726.0
14.518,2739.0
14.519,2748.0
14.52,2764.0
14.521,2777.0
14.522,2763.0
14.523,2741.0
14.524,2715.0
14.525,2707.0
14.526,2693.0
14.527,2663.0
14.528,2635.0
14.529,2632.0
14.53,2607.0
14.531,2596.0
14.532,2596.0
14.533,2591.0
14.534,2585.0
14.535,2572.0
14.536,2556.0
14.537,2543.0
14.538,2518.0
14.539,2499.0
14.54,2481.0
14.541,2479.0
14.542,2472.0
14.543,2453.0
14.544,2442.0
14.545,2432.0
14.546,2403.0
14.547,2381.0
14.548,2376.0
14.549,2371.0
14.55,2377.0
14.551,2377.0
14.552,2363.0
14.553,2343.0
14.554,2307.0
14.555,2273.0
14.556,2236.0
14.557,2212.0
14.558,2195.0
14.559,2198.0
14.56,2167.0
14.561,2165.0
14.562,2191.0
14.563,2148.0
14.564,2133.0
14.565,2124.0
14.566,2109.0
14.567,2104.0
14.568,2082.0
14.569,2075.0
14.57,2074.0
14.571,2059.0
14.572,2063.0
14.573,2042.0
14.574,2035.0
14.575,2022.0
14.576,2007.0
14.577,1992.0
14.578,1990.0
14.579,1967.0
14.58,1943.0
14.581,1912.0
14.582,1904.0
14.583,1891.0
14.584,1874.0
14.585,1867.0
14.586,1869.0
14.587,1868.0
14.588,1849.0
14.589,1852.0
14.59,1908.0
14.591,1925.0
14.592,1914.0
14.593,1925.0
14.594,1945.0
14.595,1954.0
14.596,1963.0
14.597,1964.0
14.598,2003.0
14.599,1983.0
14.6,1963.0
14.601,1943.0
14.602,1947.0
14.603,1924.0
14.604,1916.0
14.605,1902.0
14.606,1949.0
14.607,1927.0
14.608,1896.0
14.609,1852.0
14.61,1847.0
14.611,1833.0
14.612,1793.0
14.613,1811.0
14.614,1819.0
14.615,1806.0
14.616,1783.0
14.617,1786.0
14.618,1800.0
14.619,1806.0
14.62,1808.0
14.621,1827.0
14.622,1852.0
14.623,1847.0
14.624,1828.0
14.625,1806.0
14.626,1760.0
14.627,1684.0
14.628,1615.0
14.629,1542.0
14.63,1527.0
14.631,1588.0
14.632,1724.0
14.633,1898.0
14.634,1975.0
14.635,2016.0
14.636,2067.0
14.637,2152.0
14.638,2197.0
14.639,2236.0
14.64,2205.0
14.641,2166.0
14.642,2084.0
14.643,2022.0
14.644,1966.0
14.645,1945.0
14.646,1916.0
14.647,1842.0
14.648,1782.0
14.649,1747.0
14.65,1675.0
14.651,1615.0
14.652,1568.0
14.653,1562.0
14.654,1547.0
14.655,1514.0
14.656,1506.0
14.657,1508.0
14.658,1530.0
14.659,1538.0
14.66,1550.0
14.661,1585.0
14.662,1572.0
14.663,1527.0
14.664,1543.0
14.665,1550.0
14.666,1551.0
14.667,1537.0
14.668,1556.0
14.669,1568.0
14.67,1555.0
14.671,1538.0
14.672,1550.0
14.673,1565.0
14.674,1566.0
14.675,1558.0
14.676,1580.0
14.677,1594.0
14.678,1574.0
14.679,1580.0
14.68,1569.0
14.681,1557.0
14.682,1548.0
14.683,1556.0
14.684,1578.0
14.685,1600.0
14.686,1581.0
14.687,1574.0
14.688,1586.0
14.689,1589.0
14.69,1588.0
14.691,1595.0
14.692,1599.0
14.693,1602.0
14.694,1593.0
14.695,1592.0
14.696,1590.0
14.697,1585.0
14.698,1587.0
14.699,1600.0
14.7,1594.0
14.701,1587.0
14.702,1576.0
14.703,1591.0
14.704,1584.0
14.705,1573.0
14.706,1583.0
14.707,1621.0
14.708,1611.0
14.709,1596.0
14.71,1596.0
14.711,1605.0
14.712,1613.0
14.713,1590.0
14.714,1596.0
14.715,1640.0
14.716,1650.0
14.717,1633.0
14.718,1636.0
14.719,1663.0
14.72,1663.0
14.721,1650.0
14.722,1667.0
14.723,1694.0
14.724,1694.0
14.725,1680.0
14.726,1687.0
14.727,1696.0
14.728,1708.0
14.729,1695.0
14.73,1711.0
14.731,1742.0
14.732,1724.0
14.733,1705.0
14.734,1709.0
14.735,1728.0
14.736,1728.0
14.737,1717.0
14.738,1731.0
14.739,1742.0
14.74,1708.0
14.741,1702.0
14.742,1713.0
14.743,1741.0
14.744,1702.0
14.745,1692.0
14.746,1709.0
14.747,1728.0
14.748,1701.0
14.749,1683.0
14.75,1696.0
14.751,1701.0
14.752,1683.0
14.753,1674.0
14.754,1707.0
14.755,1726.0
14.756,1701.0
14.757,1688.0
14.758,1707.0
14.759,1711.0
14.76,1703.0
14.761,1673.0
14.762,1695.0
14.763,1706.0
14.764,1679.0
14.765,1676.0
14.766,1696.0
14.767,1701.0
14.768,1685.0
14.769,1676.0
14.77,1686.0
14.771,1696.0
14.772,1662.0
14.773,1653.0
14.774,1675.0
14.775,1667.0
14.776,1654.0
14.777,1649.0
14.778,1663.0
14.779,1664.0
14.78,1644.0
14.781,1648.0
14.782,1667.0
14.783,1650.0
14.784,1630.0
14.785,1618.0
14.786,1640.0
14.787,1631.0
14.788,1606.0
14.789,1620.0
14.79,1631.0
14.791,1628.0
14.792,1621.0
14.793,1640.0
14.794,1649.0
14.795,1638.0
14.796,1628.0
14.797,1638.0
14.798,1648.0
14.799,1649.0
14.8,1630.0
14.801,1639.0
14.802,1650.0
14.803,1643.0
14.804,1636.0
14.805,1650.0
14.806,1651.0
14.807,1646.0
14.808,1634.0
14.809,1642.0
14.81,1662.0
14.811,1661.0
14.812,1651.0
14.813,1650.0
14.814,1650.0
14.815,1651.0
14.816,1644.0
14.817,1644.0
14.818,1654.0
14.819,1652.0
14.82,1650.0
14.821,1645.0
14.822,1639.0
14.823,1637.0
14.824,1629.0
14.825,1636.0
14.826,1644.0
14.827,1638.0
14.828,1653.0
14.829,1647.0
14.83,1652.0
14.831,1651.0
14.832,1643.0
14.833,1644.0
14.834,1648.0
14.835,1648.0
14.836,1656.0
14.837,1652.0
14.838,1638.0
14.839,1636.0
14.84,1647.0
14.841,1661.0
14.842,1656.0
14.843,1647.0
14.844,1660.0
14.845,1657.0
14.846,1646.0
14.847,1647.0
14.848,1646.0
14.849,1638.0
14.85,1639.0
14.851,1647.0
14.852,1657.0
14.853,1654.0
14.854,1657.0
14.855,1660.0
14.856,1657.0
14.857,1652.0
14.858,1653.0
14.859,1657.0
14.86,1651.0
14.861,1642.0
14.862,1644.0
14.863,1641.0
14.864,1630.0
14.865,1642.0
14.866,1644.0
14.867,1655.0
14.868,1652.0
14.869,1644.0
14.87,1641.0
14.871,1643.0
14.872,1633.0
14.873,1621.0
14.874,1638.0
14.875,1621.0
14.876,1646.0
14.877,1653.0
14.878,1637.0
14.879,1639.0
14.88,1637.0
14.881,1622.0
14.882,1618.0
14.883,1615.0
14.884,1615.0
14.885,1600.0
14.886,1602.0
14.887,1612.0
14.888,1609.0
14.889,1615.0
14.89,1630.0
14.891,1634.0
14.892,1619.0
14.893,1621.0
14.894,1630.0
14.895,1629.0
14.896,1626.0
14.897,1638.0
14.898,1647.0
14.899,1659.0
14.9,1659.0
14.901,1667.0
14.902,1667.0
14.903,1669.0
14.904,1666.0
14.905,1662.0
14.906,1679.0
14.907,1687.0
14.908,1691.0
14.909,1693.0
14.91,1702.0
14.911,1712.0
14.912,1708.0
14.913,1708.0
14.914,1704.0
14.915,1693.0
14.916,1694.0
14.917,1694.0
14.918,1704.0
14.919,1716.0
14.92,1708.0
14.921,1715.0
14.922,1715.0
14.923,1724.0
14.924,1734.0
14.925,1754.0
14.926,1776.0
14.927,1779.0
14.928,1782.0
14.929,1779.0
14.93,1778.0
14.931,1774.0
14.932,1779.0
14.933,1795.0
14.934,1817.0
14.935,1835.0
14.936,1821.0
14.937,1794.0
14.938,1746.0
14.939,1667.0
14.94,1596.0
14.941,1517.0
14.942,1525.0
14.943,1654.0
14.944,1847.0
14.945,2042.0
14.946,2131.0
14.947,2226.0
14.948,2281.0
14.949,2344.0
14.95,2356.0
14.951,2390.0
14.952,2380.0
14.953,2330.0
14.954,2247.0
14.955,2200.0
14.956,2182.0
14.957,2159.0
14.958,2142.0
14.959,2109.0
14.96,2062.0
14.961,2011.0
14.962,1961.0
14.963,1900.0
14.964,1852.0
14.965,1821.0
14.966,1811.0
14.967,1812.0
14.968,1807.0
14.969,1804.0
14.97,1813.0
14.971,1821.0
14.972,1832.0
14.973,1848.0
14.974,1858.0
14.975,1863.0
14.976,1863.0
14.977,1862.0
14.978,1864.0
14.979,1864.0
14.98,1869.0
14.981,1866.0
14.982,1867.0
14.983,1870.0
14.984,1872.0
14.985,1881.0
14.986,1884.0
14.987,1886.0
14.988,1877.0
14.989,1872.0
14.99,1882.0
14.991,1883.0
14.992,1880.0
14.993,1878.0
14.994,1888.0
14.995,1896.0
14.996,1878.0
14.997,1880.0
14.998,1871.0
14.999,1869.0
15.0,1857.0
15.001,1858.0
15.002,1862.0
15.003,1866.0
15.004,1865.0
15.005,1856.0
15.006,1859.0
15.007,1860.0
15.008,1868.0
15.009,1856.0
15.01,1858.0
15.011,1869.0
15.012,1863.0
15.013,1858.0
15.014,1865.0
15.015,1862.0
15.016,1857.0
15.017,1863.0
15.018,1871.0
15.019,1885.0
15.02,1876.0
15.021,1871.0
15.022,1874.0
15.023,1900.0
15.024,1909.0
15.025,1908.0
15.026,1915.0
15.027,1933.0
15.028,1939.0
15.029,1942.0
15.03,1953.0
15.031,1968.0
15.032,1973.0
15.033,1964.0
15.034,1979.0
15.035,1994.0
15.036,1998.0
15.037,1987.0
15.038,1997.0
15.039,2012.0
15.04,2024.0
15.041,2018.0
15.042,2031.0
15.043,2033.0
15.044,2033.0
15.045,2028.0
15.046,2034.0
15.047,2032.0
15.048,2025.0
15.049,2012.0
15.05,2029.0
15.051,2052.0
15.052,2049.0
15.053,2032.0
15.054,2029.0
15.055,2041.0
15.056,2037.0
15.057,2021.0
15.058,2027.0
15.059,2035.0
15.06,2020.0
15.061,2003.0
15.062,2002.0
15.063,2005.0
15.064,1996.0
15.065,1988.0
15.066,1989.0
15.067,2002.0
15.068,2021.0
15.069,2016.0
15.07,2036.0
15.071,2047.0
15.072,2034.0
15.073,2011.0
15.074,2022.0
15.075,2007.0
15.076,1997.0
15.077,1991.0
15.078,2005.0
15.079,2008.0
15.08,2012.0
15.081,1988.0
15.082,1988.0
15.083,1988.0
15.084,1964.0
15.085,1944.0
15.086,1934.0
15.087,1927.0
15.088,1901.0
15.089,1890.0
15.09,1905.0
15.091,1895.0
15.092,1896.0
15.093,1876.0
15.094,1890.0
15.095,1884.0
15.096,1884.0
15.097,1877.0
15.098,1877.0
15.099,1861.0
15.1,1849.0
15.101,1836.0
15.102,1837.0
15.103,1819.0
15.104,1812.0
15.105,1805.0
15.106,1808.0
15.107,1811.0
15.108,1827.0
15.109,1836.0
15.11,1835.0
15.111,1837.0
15.112,1835.0
15.113,1839.0
15.114,1852.0
15.115,1852.0
15.116,1847.0
15.117,1843.0
15.118,1847.0
15.119,1842.0
15.12,1849.0
15.121,1836.0
15.122,1827.0
15.123,1820.0
15.124,1817.0
15.125,1819.0
15.126,1816.0
15.127,1814.0
15.128,1834.0
15.129,1832.0
15.13,1823.0
15.131,1798.0
15.132,1802.0
15.133,1804.0
15.134,1806.0
15.135,1801.0
15.136,1821.0
15.137,1811.0
15.138,1800.0
15.139,1802.0
15.14,1811.0
15.141,1821.0
15.142,1808.0
15.143,1809.0
15.144,1818.0
15.145,1814.0
15.146,1811.0
15.147,1816.0
15.148,1821.0
15.149,1819.0
15.15,1808.0
15.151,1817.0
15.152,1815.0
15.153,1819.0
15.154,1837.0
15.155,1844.0
15.156,1870.0
15.157,1868.0
15.158,1862.0
15.159,1873.0
15.16,1885.0
15.161,1878.0
15.162,1862.0
15.163,1867.0
15.164,1921.0
15.165,1827.0
15.166,1850.0
15.167,1870.0
15.168,1896.0
15.169,1872.0
15.17,1852.0
15.171,1871.0
15.172,1882.0
15.173,1876.0
15.174,1858.0
15.175,1866.0
15.176,1880.0
15.177,1864.0
15.178,1861.0
15.179,1860.0
15.18,1876.0
15.181,1850.0
15.182,1850.0
15.183,1865.0
15.184,1885.0
15.185,1856.0
15.186,1860.0
15.187,1897.0
15.188,1865.0
15.189,1880.0
15.19,1884.0
15.191,1899.0
15.192,1913.0
15.193,1939.0
15.194,1891.0
15.195,1890.0
15.196,1894.0
15.197,1901.0
15.198,1910.0
15.199,1923.0
15.2,1922.0
15.201,1899.0
15.202,1901.0
15.203,1919.0
15.204,1923.0
15.205,1910.0
15.206,1921.0
15.207,1940.0
15.208,1935.0
15.209,1920.0
15.21,1935.0
15.211,1941.0
15.212,1934.0
15.213,1936.0
15.214,1936.0
15.215,1943.0
15.216,1928.0
15.217,1915.0
15.218,1920.0
15.219,1919.0
15.22,1909.0
15.221,1912.0
15.222,1924.0
15.223,1926.0
15.224,1925.0
15.225,1925.0
15.226,1922.0
15.227,1924.0
15.228,1911.0
15.229,1904.0
15.23,1897.0
15.231,1876.0
15.232,1874.0
15.233,1868.0
15.234,1872.0
15.235,1878.0
15.236,1888.0
15.237,1906.0
15.238,1921.0
15.239,1886.0
15.24,1812.0
15.241,1736.0
15.242,1670.0
15.243,1586.0
15.244,1606.0
15.245,1764.0
15.246,1959.0
15.247,2128.0
15.248,2181.0
15.249,2247.0
15.25,2287.0
15.251,2314.0
15.252,2339.0
15.253,2379.0
15.254,2351.0
15.255,2269.0
15.256,2204.0
15.257,2179.0
15.258,2132.0
15.259,2083.0
15.26,2030.0
15.261,1992.0
15.262,1934.0
15.263,1865.0
15.264,1812.0
15.265,1781.0
15.266,1746.0
15.267,1711.0
15.268,1713.0
15.269,1723.0
15.27,1728.0
15.271,1719.0
15.272,1726.0
15.273,1733.0
15.274,1740.0
15.275,1728.0
15.276,1742.0
15.277,1757.0
15.278,1744.0
15.279,1730.0
15.28,1749.0
15.281,1754.0
15.282,1752.0
15.283,1736.0
15.284,1747.0
15.285,1766.0
15.286,1762.0
15.287,1748.0
15.288,1758.0
15.289,1718.0
15.29,1748.0
15.291,1746.0
15.292,1760.0
15.293,1760.0
15.294,1743.0
15.295,1738.0
15.296,1753.0
15.297,1768.0
15.298,1769.0
15.299,1764.0
15.3,1768.0
15.301,1776.0
15.302,1757.0
15.303,1726.0
15.304,1718.0
15.305,1717.0
15.306,1718.0
15.307,1714.0
15.308,1729.0
15.309,1715.0
15.31,1705.0
15.311,1706.0
15.312,1696.0
15.313,1693.0
15.314,1668.0
15.315,1660.0
15.316,1650.0
15.317,1658.0
15.318,1657.0
15.319,1679.0
15.32,1679.0
15.321,1683.0
15.322,1682.0
15.323,1697.0
15.324,1698.0
15.325,1695.0
15.326,1692.0
15.327,1708.0
15.328,1715.0
15.329,1709.0
15.33,1711.0
15.331,1725.0
15.332,1747.0
15.333,1757.0
15.334,1758.0
15.335,1762.0
15.336,1772.0
15.337,1767.0
15.338,1765.0
15.339,1777.0
15.34,1777.0
15.341,1760.0
15.342,1754.0
15.343,1739.0
15.344,1745.0
15.345,1753.0
15.346,1758.0
15.347,1765.0
15.348,1765.0
15.349,1758.0
15.35,1764.0
15.351,1768.0
15.352,1781.0
15.353,1775.0
15.354,1803.0
15.355,1799.0
15.356,1798.0
15.357,1798.0
15.358,1819.0
15.359,1821.0
15.36,1829.0
15.361,1830.0
15.362,1850.0
15.363,1856.0
15.364,1843.0
15.365,1840.0
15.366,1855.0
15.367,1850.0
15.368,1863.0
15.369,1860.0
15.37,1860.0
15.371,1858.0
15.372,1850.0
15.373,1854.0
15.374,1872.0
15.375,1871.0
15.376,1880.0
15.377,1881.0
15.378,1888.0
15.379,1890.0
15.38,1891.0
15.381,1886.0
15.382,1888.0
15.383,1892.0
15.384,1902.0
15.385,1921.0
15.386,1927.0
15.387,1917.0
15.388,1917.0
15.389,1924.0
15.39,1926.0
15.391,1919.0
15.392,1905.0
15.393,1918.0
15.394,1915.0
15.395,1923.0
15.396,1911.0
15.397,1915.0
15.398,1906.0
15.399,1894.0
15.4,1903.0
15.401,1902.0
15.402,1912.0
15.403,1899.0
15.404,1904.0
15.405,1904.0
15.406,1908.0
15.407,1897.0
15.408,1898.0
15.409,1897.0
15.41,1909.0
15.411,1914.0
15.412,1914.0
15.413,1914.0
15.414,1907.0
15.415,1896.0
15.416,1909.0
15.417,1922.0
15.418,1917.0
15.419,1907.0
15.42,1907.0
15.421,1912.0
15.422,1913.0
15.423,1917.0
15.424,1940.0
15.425,1948.0
15.426,1953.0
15.427,1950.0
15.428,1947.0
15.429,1948.0
15.43,1938.0
15.431,1928.0
15.432,1946.0
15.433,1954.0
15.434,1946.0
15.435,1941.0
15.436,1948.0
15.437,1946.0
15.438,1942.0
15.439,1943.0
15.44,1936.0
15.441,1939.0
15.442,1924.0
15.443,1912.0
15.444,1928.0
15.445,1931.0
15.446,1929.0
15.447,1940.0
15.448,1942.0
15.449,1945.0
15.45,1935.0
15.451,1930.0
15.452,1933.0
15.453,1930.0
15.454,1933.0
15.455,1942.0
15.456,1958.0
15.457,1957.0
15.458,1955.0
15.459,1957.0
15.46,1966.0
15.461,1960.0
15.462,1969.0
15.463,1976.0
15.464,1986.0
15.465,1964.0
15.466,1959.0
15.467,1961.0
15.468,1963.0
15.469,1974.0
15.47,1977.0
15.471,1990.0
15.472,2012.0
15.473,2012.0
15.474,2014.0
15.475,2020.0
15.476,2022.0
15.477,2023.0
15.478,2023.0
15.479,2025.0
15.48,2036.0
15.481,2026.0
15.482,2030.0
15.483,2038.0
15.484,2043.0
15.485,2047.0
15.486,2050.0
15.487,2052.0
15.488,2063.0
15.489,2064.0
15.49,2068.0
15.491,2064.0
15.492,2070.0
15.493,2080.0
15.494,2088.0
15.495,2102.0
15.496,2115.0
15.497,2112.0
15.498,2124.0
15.499,2131.0
15.5,2135.0
15.501,2132.0
15.502,2149.0
15.503,2161.0
15.504,2154.0
15.505,2143.0
15.506,2139.0
15.507,2139.0
15.508,2145.0
15.509,2160.0
15.51,2183.0
15.511,2197.0
15.512,2183.0
15.513,2181.0
15.514,2199.0
15.515,2183.0
15.516,2178.0
15.517,2185.0
15.518,2188.0
15.519,2190.0
15.52,2175.0
15.521,2173.0
15.522,2174.0
15.523,2164.0
15.524,2145.0
15.525,2132.0
15.526,2115.0
15.527,2108.0
15.528,2089.0
15.529,2076.0
15.53,2059.0
15.531,2062.0
15.532,2068.0
15.533,2064.0
15.534,2055.0
15.535,2027.0
15.536,2015.0
15.537,2022.0
15.538,2046.0
15.539,2085.0
15.54,2132.0
15.541,2188.0
15.542,2202.0
15.543,2165.0
15.544,2095.0
15.545,1962.0
15.546,1831.0
15.547,1721.0
15.548,1728.0
15.549,1863.0
15.55,2023.0
15.551,2138.0
15.552,2169.0
15.553,2218.0
15.554,2272.0
15.555,2266.0
15.556,2303.0
15.557,2278.0
15.558,2199.0
15.559,2043.0
15.56,1945.0
15.561,1866.0
15.562,1811.0
15.563,1748.0
15.564,1723.0
15.565,1677.0
15.566,1624.0
15.567,1551.0
15.568,1494.0
15.569,1470.0
15.57,1462.0
15.571,1453.0
15.572,1476.0
15.573,1504.0
15.574,1528.0
15.575,1549.0
15.576,1596.0
15.577,1629.0
15.578,1651.0
15.579,1650.0
15.58,1664.0
15.581,1632.0
15.582,1601.0
15.583,1553.0
15.584,1440.0
15.585,1390.0
15.586,1347.0
15.587,1248.0
15.588,1180.0
15.589,1177.0
15.59,1171.0
15.591,1191.0
15.592,1154.0
15.593,943.0
15.594,879.0
15.595,874.0
15.596,878.0
15.597,959.0
15.598,938.0
15.599,969.0
15.6,1148.0
15.601,1307.0
15.602,1366.0
15.603,1480.0
15.604,1557.0
15.605,1607.0
15.606,1775.0
15.607,1882.0
15.608,1925.0
15.609,1922.0
15.61,2041.0
15.611,2247.0
15.612,2341.0
15.613,2244.0
15.614,2164.0
15.615,2022.0
15.616,1888.0
15.617,1809.0
15.618,1788.0
15.619,1792.0
15.62,2026.0
15.621,2136.0
15.622,2260.0
15.623,2318.0
15.624,2567.0
15.625,2983.0
15.626,3127.0
15.627,3133.0
15.628,3121.0
15.629,3066.0
15.63,3042.0
15.631,3056.0
15.632,3058.0
15.633,3068.0
15.634,3103.0
15.635,3161.0
15.636,3249.0
15.637,3262.0
15.638,3286.0
15.639,3339.0
15.64,3274.0
15.641,3225.0
15.642,3219.0
15.643,3209.0
15.644,3314.0
15.645,3176.0
15.646,2981.0
15.647,2638.0
15.648,2540.0
15.649,2613.0
15.65,2708.0
15.651,2600.0
15.652,2562.0
15.653,2501.0
15.654,2399.0
15.655,2251.0
15.656,2058.0
15.657,1746.0
15.658,1409.0
15.659,1233.0
15.66,1538.0
15.661,1908.0
15.662,2186.0
15.663,2305.0
15.664,2372.0
15.665,2654.0
15.666,2926.0
15.667,3022.0
15.668,2959.0
15.669,3081.0
15.67,3242.0
15.671,3405.0
15.672,3687.0
15.673,4014.0
15.674,4065.0
15.675,4081.0
15.676,4081.0
15.677,4080.0
15.678,4080.0
15.679,4080.0
15.68,4080.0
15.681,4081.0
15.682,4077.0
15.683,4080.0
15.684,4081.0
15.685,4081.0
15.686,4079.0
15.687,4074.0
15.688,4081.0
15.689,4079.0
15.69,4082.0
15.691,4085.0
15.692,4080.0
15.693,4075.0
15.694,4079.0
15.695,4081.0
15.696,4077.0
15.697,4082.0
15.698,4081.0
15.699,4081.0
15.7,4079.0
15.701,4078.0
15.702,4077.0
15.703,4076.0
15.704,4091.0
15.705,4079.0
15.706,4079.0
15.707,4083.0
15.708,4082.0
15.709,4074.0
15.71,4078.0
15.711,4080.0
15.712,4078.0
15.713,4080.0
15.714,4083.0
15.715,4073.0
15.716,4081.0
15.717,4076.0
15.718,4078.0
15.719,4076.0
15.72,4080.0
15.721,4076.0
15.722,4078.0
15.723,4079.0
15.724,4079.0
15.725,4079.0
15.726,4078.0
15.727,4082.0
15.728,4078.0
15.729,4073.0
15.73,4077.0
15.731,4079.0
15.732,4082.0
15.733,4079.0
15.734,4083.0
15.735,4075.0
15.736,4080.0
15.737,4081.0
15.738,4075.0
15.739,4080.0
15.74,4078.0
15.741,4084.0
15.742,4077.0
15.743,4079.0
15.744,4084.0
15.745,4083.0
15.746,4078.0
15.747,4078.0
15.748,4080.0
15.749,4079.0
15.75,4082.0
15.751,4078.0
15.752,4077.0
15.753,4081.0
15.754,4077.0
15.755,4080.0
15.756,4081.0
15.757,4078.0
15.758,4083.0
15.759,4083.0
15.76,4082.0
15.761,4075.0
15.762,4078.0
15.763,4079.0
15.764,4077.0
15.765,4080.0
15.766,4084.0
15.767,4079.0
15.768,4095.0
15.769,4079.0
15.77,4078.0
15.771,4080.0
15.772,4078.0
15.773,4076.0
15.774,4086.0
15.775,4081.0
15.776,4081.0
15.777,4080.0
15.778,4081.0
15.779,4079.0
15.78,4082.0
15.781,4081.0
15.782,4085.0
15.783,4085.0
15.784,4082.0
15.785,4077.0
15.786,4077.0
15.787,4082.0
15.788,4080.0
15.789,4078.0
15.79,4079.0
15.791,4078.0
15.792,4085.0
15.793,4081.0
15.794,4079.0
15.795,4080.0
15.796,4081.0
15.797,4079.0
15.798,4081.0
15.799,4076.0
15.8,4079.0
15.801,4095.0
15.802,4087.0
15.803,4079.0
15.804,4077.0
15.805,4080.0
15.806,4077.0
15.807,4076.0
15.808,4077.0
15.809,4050.0
15.81,4080.0
15.811,4081.0
15.812,4077.0
15.813,4078.0
15.814,4083.0
15.815,4064.0
15.816,4078.0
15.817,4080.0
15.818,4060.0
15.819,4075.0
15.82,4077.0
15.821,4083.0
15.822,4080.0
15.823,4082.0
15.824,4079.0
15.825,4080.0
15.826,4080.0
15.827,4082.0
15.828,4077.0
15.829,4082.0
15.83,4079.0
15.831,4081.0
15.832,4081.0
15.833,4084.0
15.834,4080.0
15.835,4081.0
15.836,4079.0
15.837,4078.0
15.838,4078.0
15.839,4078.0
15.84,4083.0
15.841,4078.0
15.842,4081.0
15.843,4078.0
15.844,4076.0
15.845,4081.0
15.846,4082.0
15.847,4076.0
15.848,4080.0
15.849,4081.0
15.85,4085.0
15.851,4086.0
15.852,4082.0
15.853,4080.0
15.854,4082.0
15.855,4081.0
15.856,4076.0
15.857,4083.0
15.858,4082.0
15.859,4080.0
15.86,4079.0
15.861,4079.0
15.862,4083.0
15.863,4081.0
15.864,4054.0
15.865,3675.0
15.866,2571.0
15.867,4081.0
15.868,4083.0
15.869,4080.0
15.87,4082.0
15.871,2.0
15.872,2.0
15.873,0.0
15.874,4.0
15.875,5.0
15.876,4.0
15.877,2.0
15.878,2.0
15.879,4.0
15.88,4.0
15.881,3.0
15.882,3.0
15.883,3.0
15.884,3.0
15.885,5.0
15.886,2.0
15.887,4.0
15.888,2.0
15.889,6.0
15.89,4.0
15.891,5.0
15.892,5.0
15.893,3.0
15.894,1.0
15.895,6.0
15.896,3.0
15.897,4.0
15.898,2.0
15.899,0.0
15.9,3.0
15.901,4.0
15.902,2.0
15.903,3.0
15.904,5.0
15.905,5.0
15.906,3.0
15.907,3.0
15.908,5.0
15.909,1.0
15.91,4.0
15.911,3.0
15.912,4.0
15.913,5.0
15.914,3.0
15.915,4.0
15.916,7.0
15.917,5.0
15.918,2.0
15.919,0.0
15.92,31.0
15.921,4.0
15.922,2.0
15.923,4.0
15.924,3.0
15.925,5.0
15.926,5.0
15.927,2.0
15.928,6.0
15.929,3.0
15.93,4.0
15.931,4.0
15.932,4.0
15.933,4.0
15.934,3.0
15.935,5.0
15.936,3.0
15.937,6.0
15.938,4.0
15.939,6.0
15.94,5.0
15.941,2.0
15.942,5.0
15.943,5.0
15.944,4.0
15.945,1.0
15.946,10.0
15.947,5.0
15.948,4.0
15.949,8.0
15.95,1.0
15.951,4.0
15.952,4.0
15.953,7.0
15.954,4.0
15.955,2.0
15.956,4.0
15.957,4.0
15.958,2.0
15.959,4.0
15.96,7.0
15.961,3.0
15.962,2.0
15.963,6.0
15.964,3.0
15.965,6.0
15.966,5.0
15.967,4.0
15.968,2.0
15.969,0.0
15.97,4.0
15.971,4.0
15.972,3.0
15.973,2.0
15.974,3.0
15.975,2.0
15.976,1.0
15.977,5.0
15.978,1.0
15.979,4.0
15.98,3.0
15.981,2.0
15.982,5.0
15.983,2.0
15.984,4.0
15.985,3.0
15.986,0.0
15.987,5.0
15.988,2.0
15.989,2.0
15.99,3.0
15.991,6.0
15.992,9.0
15.993,5.0
15.994,2.0
15.995,0.0
15.996,4.0
15.997,3.0
15.998,3.0
15.999,3.0
16.0,2.0
16.001,7.0
16.002,2.0
16.003,14.0
16.004,6.0
16.005,1.0
16.006,6.0
16.007,4.0
16.008,3.0
16.009,3.0
16.01,2.0
16.011,6.0
16.012,0.0
16.013,7.0
16.014,5.0
16.015,2.0
16.016,5.0
16.017,3.0
16.018,2.0
16.019,2.0
16.02,24.0
16.021,5.0
16.022,2.0
16.023,1.0
16.024,5.0
16.025,1.0
16.026,1.0
16.027,2.0
16.028,0.0
16.029,0.0
16.03,3.0
16.031,0.0
16.032,3.0
16.033,0.0
16.034,0.0
16.035,0.0
16.036,3.0
16.037,27.0
16.038,186.0
16.039,727.0
16.04,1328.0
16.041,2101.0
16.042,2664.0
16.043,3268.0
16.044,3882.0
16.045,4072.0
16.046,4074.0
16.047,4082.0
16.048,4079.0
16.049,4082.0
16.05,4082.0
16.051,4082.0
16.052,4079.0
16.053,4080.0
16.054,4080.0
16.055,4080.0
16.056,4077.0
16.057,4082.0
16.058,4081.0
16.059,4081.0
16.06,4084.0
16.061,4083.0
16.062,4079.0
16.063,4080.0
16.064,4079.0
16.065,4077.0
16.066,4083.0
16.067,4077.0
16.068,4075.0
16.069,4082.0
16.07,4081.0
16.071,4083.0
16.072,4080.0
16.073,4080.0
16.074,4082.0
16.075,4080.0
16.076,4079.0
16.077,4083.0
16.078,4083.0
16.079,4081.0
16.08,4079.0
16.081,4080.0
16.082,4081.0
16.083,4076.0
16.084,4079.0
16.085,4078.0
16.086,4061.0
16.087,4078.0
16.088,4079.0
16.089,4080.0
16.09,4079.0
16.091,4081.0
16.092,4080.0
16.093,4074.0
16.094,4083.0
16.095,4081.0
16.096,4081.0
16.097,4090.0
16.098,4080.0
16.099,4083.0
16.1,4081.0
16.101,4082.0
16.102,4083.0
16.103,4082.0
16.104,4084.0
16.105,4080.0
16.106,4079.0
16.107,4076.0
16.108,4078.0
16.109,4080.0
16.11,4081.0
16.111,4083.0
16.112,4077.0
16.113,4084.0
16.114,4078.0
16.115,4077.0
16.116,4078.0
16.117,4083.0
16.118,4080.0
16.119,4080.0
16.12,4081.0
16.121,4079.0
16.122,4081.0
16.123,4081.0
16.124,4080.0
16.125,4078.0
16.126,4078.0
16.127,4085.0
16.128,4080.0
16.129,4075.0
16.13,4078.0
16.131,4077.0
16.132,4077.0
16.133,4079.0
16.134,4080.0
16.135,4076.0
16.136,4082.0
16.137,4078.0
16.138,4080.0
16.139,4077.0
16.14,4076.0
16.141,4076.0
16.142,4077.0
16.143,4075.0
16.144,4080.0
16.145,4075.0
16.146,4072.0
16.147,4080.0
16.148,4079.0
16.149,4077.0
16.15,4078.0
16.151,4081.0
16.152,4078.0
16.153,4076.0
16.154,4080.0
16.155,4081.0
16.156,4081.0
16.157,4079.0
16.158,4076.0
16.159,4080.0
16.16,4084.0
16.161,4077.0
16.162,4079.0
16.163,4077.0
16.164,4080.0
16.165,4081.0
16.166,4075.0
16.167,4075.0
16.168,4078.0
16.169,4079.0
16.17,4075.0
16.171,4079.0
16.172,4075.0
16.173,4078.0
16.174,4080.0
16.175,4077.0
16.176,4082.0
16.177,4080.0
16.178,4078.0
16.179,4079.0
16.18,4079.0
16.181,4077.0
16.182,4076.0
16.183,4080.0
16.184,4083.0
16.185,4072.0
16.186,4085.0
16.187,4075.0
16.188,4078.0
16.189,4078.0
16.19,4074.0
16.191,4084.0
16.192,4084.0
16.193,4074.0
16.194,4078.0
16.195,4081.0
16.196,4083.0
16.197,4080.0
16.198,4081.0
16.199,4080.0
16.2,4081.0
16.201,4079.0
16.202,4081.0
16.203,4080.0
16.204,4078.0
16.205,4079.0
16.206,4076.0
16.207,4077.0
16.208,4081.0
16.209,4079.0
16.21,4081.0
16.211,4076.0
16.212,4078.0
16.213,4079.0
16.214,4077.0
16.215,4074.0
16.216,4081.0
16.217,4078.0
16.218,4078.0
16.219,4077.0
16.22,4078.0
16.221,4077.0
16.222,4081.0
16.223,4075.0
16.224,4078.0
16.225,4076.0
16.226,4081.0
16.227,4076.0
16.228,4080.0
16.229,4080.0
16.23,4082.0
16.231,4076.0
16.232,4075.0
16.233,4077.0
16.234,4078.0
16.235,4079.0
16.236,4077.0
16.237,4080.0
16.238,4081.0
16.239,4080.0
16.24,4080.0
16.241,4079.0
16.242,4083.0
16.243,4080.0
16.244,4076.0
16.245,4078.0
16.246,4077.0
16.247,4073.0
16.248,4077.0
16.249,4077.0
16.25,4076.0
16.251,4079.0
16.252,4075.0
16.253,4075.0
16.254,4079.0
16.255,4076.0
16.256,4082.0
16.257,4079.0
16.258,4080.0
16.259,4082.0
16.26,4076.0
16.261,4078.0
16.262,4081.0
16.263,4078.0
16.264,4074.0
16.265,4076.0
16.266,4077.0
16.267,4077.0
16.268,4068.0
16.269,4070.0
16.27,4078.0
16.271,4079.0
16.272,4080.0
16.273,4077.0
16.274,4071.0
16.275,4078.0
16.276,4076.0
16.277,4078.0
16.278,4085.0
16.279,4079.0
16.28,4075.0
16.281,4079.0
16.282,4082.0
16.283,4087.0
16.284,4081.0
16.285,4080.0
16.286,4079.0
16.287,4082.0
16.288,4076.0
16.289,4084.0
16.29,4075.0
16.291,4073.0
16.292,4073.0
16.293,4081.0
16.294,4077.0
16.295,4079.0
16.296,4077.0
16.297,4079.0
16.298,4080.0
16.299,4074.0
16.3,4080.0
16.301,4076.0
16.302,4074.0
16.303,4076.0
16.304,4081.0
16.305,4069.0
16.306,4076.0
16.307,4076.0
16.308,4077.0
16.309,4082.0
16.31,4075.0
16.311,4078.0
16.312,4081.0
16.313,4075.0
16.314,4077.0
16.315,4079.0
16.316,4077.0
16.317,4080.0
16.318,4079.0
16.319,4081.0
16.32,4076.0
16.321,4080.0
16.322,4080.0
16.323,4080.0
16.324,4083.0
16.325,4079.0
16.326,4082.0
16.327,4078.0
16.328,4080.0
16.329,4080.0
16.33,4080.0
16.331,4077.0
16.332,4076.0
16.333,4082.0
16.334,4080.0
16.335,4076.0
16.336,4083.0
16.337,4073.0
16.338,4081.0
16.339,4080.0
16.34,4078.0
16.341,4083.0
16.342,4080.0
16.343,4082.0
16.344,4079.0
16.345,4078.0
16.346,4080.0
16.347,4079.0
16.348,4048.0
16.349,4095.0
16.35,4079.0
16.351,4071.0
16.352,4077.0
16.353,4081.0
16.354,4077.0
16.355,4095.0
16.356,4081.0
16.357,4095.0
16.358,4070.0
16.359,4066.0
16.36,4080.0
16.361,4082.0
16.362,4095.0
16.363,4062.0
16.364,4095.0
16.365,4095.0
16.366,4078.0
16.367,4083.0
16.368,4079.0
16.369,4066.0
16.37,4083.0
16.371,4078.0
16.372,4084.0
16.373,4076.0
16.374,4048.0
16.375,4076.0
16.376,4076.0
16.377,4079.0
16.378,4080.0
16.379,4071.0
16.38,4081.0
16.381,4080.0
16.382,4080.0
16.383,4076.0
16.384,4078.0
16.385,4081.0
16.386,4078.0
16.387,4074.0
16.388,4086.0
16.389,4077.0
16.39,4078.0
16.391,4080.0
16.392,4080.0
16.393,4079.0
16.394,4078.0
16.395,4080.0
16.396,4077.0
16.397,4078.0
16.398,4077.0
16.399,4075.0
16.4,4077.0
16.401,4082.0
16.402,4080.0
16.403,4077.0
16.404,4080.0
16.405,4080.0
16.406,4076.0
16.407,4073.0
16.408,4076.0
16.409,4082.0
16.41,4079.0
16.411,4083.0
16.412,4077.0
16.413,4080.0
16.414,4080.0
16.415,4079.0
16.416,4081.0
16.417,4078.0
16.418,4077.0
16.419,4079.0
16.42,4080.0
16.421,4079.0
16.422,4081.0
16.423,4080.0
16.424,4082.0
16.425,4077.0
16.426,4083.0
16.427,4080.0
16.428,4078.0
16.429,4082.0
16.43,4082.0
16.431,4078.0
16.432,4080.0
16.433,4077.0
16.434,4082.0
16.435,4077.0
16.436,4080.0
16.437,4083.0
16.438,4075.0
16.439,4080.0
16.44,4079.0
16.441,4079.0
16.442,4082.0
16.443,4080.0
16.444,4078.0
16.445,4079.0
16.446,4083.0
16.447,4077.0
16.448,4077.0
16.449,4078.0
16.45,4077.0
16.451,4075.0
16.452,4082.0
16.453,4079.0
16.454,4078.0
16.455,4082.0
16.456,4080.0
16.457,4077.0
16.458,4078.0
16.459,4081.0
16.46,4079.0
16.461,4080.0
16.462,4079.0
16.463,4078.0
16.464,4076.0
16.465,4082.0
16.466,4079.0
16.467,4076.0
16.468,4079.0
16.469,4081.0
16.47,4082.0
16.471,4078.0
16.472,4080.0
16.473,4077.0
16.474,4074.0
16.475,4080.0
16.476,4080.0
16.477,4075.0
16.478,4081.0
16.479,4079.0
16.48,4078.0
16.481,4080.0
16.482,4081.0
16.483,4079.0
16.484,4081.0
16.485,4080.0
16.486,4076.0
16.487,4077.0
16.488,4080.0
16.489,4080.0
16.49,4078.0
16.491,4079.0
16.492,4076.0
16.493,4076.0
16.494,4076.0
16.495,4077.0
16.496,4054.0
16.497,4075.0
16.498,4073.0
16.499,4082.0
16.5,4077.0
16.501,4078.0
16.502,4080.0
16.503,4076.0
16.504,4077.0
16.505,4072.0
16.506,4081.0
16.507,4080.0
16.508,4079.0
16.509,4078.0
16.51,4077.0
16.511,4085.0
16.512,4079.0
16.513,4076.0
16.514,4080.0
16.515,4083.0
16.516,4079.0
16.517,4079.0
16.518,4079.0
16.519,4075.0
16.52,4079.0
16.521,4080.0
16.522,4082.0
16.523,4079.0
16.524,4080.0
16.525,4079.0
16.526,4082.0
16.527,4076.0
16.528,4081.0
16.529,4077.0
16.53,4080.0
16.531,4082.0
16.532,4079.0
16.533,4080.0
16.534,4081.0
16.535,4079.0
16.536,4081.0
16.537,4081.0
16.538,4080.0
16.539,4081.0
16.54,4079.0
16.541,4081.0
16.542,4079.0
16.543,4078.0
16.544,4082.0
16.545,4077.0
16.546,4077.0
16.547,4085.0
16.548,4080.0
16.549,4080.0
16.55,4082.0
16.551,4079.0
16.552,4078.0
16.553,4080.0
16.554,4078.0
16.555,4078.0
16.556,4078.0
16.557,4079.0
16.558,4083.0
16.559,4083.0
16.56,4075.0
16.561,4079.0
16.562,4081.0
16.563,4081.0
16.564,4077.0
16.565,4080.0
16.566,4077.0
16.567,4079.0
16.568,4082.0
16.569,4074.0
16.57,4080.0
16.571,4082.0
16.572,4074.0
16.573,4079.0
16.574,4082.0
16.575,4074.0
16.576,4079.0
16.577,4079.0
16.578,4079.0
16.579,4079.0
16.58,4076.0
16.581,4077.0
16.582,4078.0
16.583,4077.0
16.584,4076.0
16.585,4073.0
16.586,4077.0
16.587,4076.0
16.588,4079.0
16.589,4076.0
16.59,4079.0
16.591,4081.0
16.592,4082.0
16.593,4081.0
16.594,4079.0
16.595,4078.0
16.596,4077.0
16.597,4076.0
16.598,4081.0
16.599,4078.0
16.6,4078.0
16.601,4078.0
16.602,4084.0
16.603,4075.0
16.604,4077.0
16.605,4079.0
16.606,4079.0
16.607,4081.0
16.608,4082.0
16.609,4082.0
16.61,4080.0
16.611,4082.0
16.612,4076.0
16.613,4078.0
16.614,4082.0
16.615,4078.0
16.616,4077.0
16.617,4082.0
16.618,4079.0
16.619,4079.0
16.62,4080.0
16.621,4078.0
16.622,4080.0
16.623,4080.0
16.624,4079.0
16.625,4076.0
16.626,4078.0
16.627,4080.0
16.628,4077.0
16.629,4082.0
16.63,4077.0
16.631,4081.0
16.632,4078.0
16.633,4080.0
16.634,4079.0
16.635,4081.0
16.636,4081.0
16.637,4079.0
16.638,4079.0
16.639,4084.0
16.64,4079.0
16.641,4080.0
16.642,4080.0
16.643,4081.0
16.644,4081.0
16.645,4078.0
16.646,4079.0
16.647,4077.0
16.648,4076.0
16.649,4080.0
16.65,4079.0
16.651,4078.0
16.652,4080.0
16.653,4080.0
16.654,4078.0
16.655,4077.0
16.656,4078.0
16.657,4081.0
16.658,4082.0
16.659,4079.0
16.66,4082.0
16.661,4083.0
16.662,4079.0
16.663,4079.0
16.664,4090.0
16.665,4079.0
16.666,4084.0
16.667,4076.0
16.668,4079.0
16.669,4076.0
16.67,4081.0
16.671,4083.0
16.672,4079.0
16.673,4081.0
16.674,4081.0
16.675,4078.0
16.676,4080.0
16.677,4073.0
16.678,4076.0
16.679,4079.0
16.68,4042.0
16.681,4042.0
16.682,4081.0
16.683,4082.0
16.684,4074.0
16.685,4081.0
16.686,4082.0
16.687,4079.0
16.688,4082.0
16.689,4058.0
16.69,4076.0
16.691,4081.0
16.692,4081.0
16.693,4081.0
16.694,4078.0
16.695,4079.0
16.696,4080.0
16.697,4083.0
16.698,4078.0
16.699,4075.0
16.7,4076.0
16.701,4079.0
16.702,4078.0
16.703,4075.0
16.704,4077.0
16.705,4083.0
16.706,4083.0
16.707,4078.0
16.708,4082.0
16.709,4076.0
16.71,4066.0
16.711,4076.0
16.712,4075.0
16.713,4078.0
16.714,4078.0
16.715,4080.0
16.716,4087.0
16.717,4077.0
16.718,4080.0
16.719,4079.0
16.72,4078.0
16.721,4077.0
16.722,4081.0
16.723,4079.0
16.724,4080.0
16.725,4076.0
16.726,4076.0
16.727,4079.0
16.728,4074.0
16.729,4081.0
16.73,4077.0
16.731,4081.0
16.732,4079.0
16.733,4081.0
16.734,4080.0
16.735,4081.0
16.736,4081.0
16.737,4078.0
16.738,4080.0
16.739,4083.0
16.74,4076.0
16.741,4077.0
16.742,4086.0
16.743,4076.0
16.744,4079.0
16.745,4081.0
16.746,4081.0
16.747,4085.0
16.748,4080.0
16.749,4082.0
16.75,4079.0
16.751,4085.0
16.752,4078.0
16.753,4080.0
16.754,4080.0
16.755,4076.0
16.756,4077.0
16.757,4080.0
16.758,4076.0
16.759,4080.0
16.76,4078.0
16.761,4080.0
16.762,4081.0
16.763,4082.0
16.764,4080.0
16.765,4080.0
16.766,4079.0
16.767,4084.0
16.768,4081.0
16.769,4079.0
16.77,4083.0
16.771,4079.0
16.772,4077.0
16.773,4083.0
16.774,4081.0
16.775,4092.0
16.776,4077.0
16.777,4081.0
16.778,4083.0
16.779,4084.0
16.78,4084.0
16.781,4045.0
16.782,4095.0
16.783,4083.0
16.784,4095.0
16.785,4079.0
16.786,4082.0
16.787,4084.0
16.788,4080.0
16.789,4072.0
16.79,4079.0
16.791,4077.0
16.792,4080.0
16.793,4079.0
16.794,4077.0
16.795,4076.0
16.796,4078.0
16.797,4079.0
16.798,4080.0
16.799,4080.0
16.8,4081.0
16.801,4078.0
16.802,4079.0
16.803,4076.0
16.804,4081.0
16.805,4076.0
16.806,4080.0
16.807,4079.0
16.808,4077.0
16.809,4082.0
16.81,4075.0
16.811,4079.0
16.812,4079.0
16.813,4078.0
16.814,4080.0
16.815,4083.0
16.816,4081.0
16.817,4082.0
16.818,4081.0
16.819,4083.0
16.82,4078.0
16.821,4081.0
16.822,4080.0
16.823,4076.0
16.824,4087.0
16.825,4079.0
16.826,4079.0
16.827,4081.0
16.828,4079.0
16.829,4079.0
16.83,4080.0
16.831,4070.0
16.832,4078.0
16.833,4081.0
16.834,4080.0
16.835,4084.0
16.836,4078.0
16.837,4082.0
16.838,4081.0
16.839,4081.0
16.84,4081.0
16.841,4077.0
16.842,4080.0
16.843,4083.0
16.844,4081.0
16.845,4077.0
16.846,4085.0
16.847,4081.0
16.848,4084.0
16.849,4081.0
16.85,4079.0
16.851,4082.0
16.852,4075.0
16.853,4079.0
16.854,4081.0
16.855,4084.0
16.856,4081.0
16.857,4080.0
16.858,4078.0
16.859,4079.0
16.86,4078.0
16.861,4080.0
16.862,4077.0
16.863,4078.0
16.864,4084.0
16.865,4078.0
16.866,4078.0
16.867,4082.0
16.868,4078.0
16.869,4078.0
16.87,4083.0
16.871,4080.0
16.872,4078.0
16.873,4082.0
16.874,4084.0
16.875,4079.0
16.876,4081.0
16.877,4079.0
16.878,4079.0
16.879,4080.0
16.88,4076.0
16.881,4078.0
16.882,4080.0
16.883,4080.0
16.884,4080.0
16.885,4074.0
16.886,4081.0
16.887,4080.0
16.888,4080.0
16.889,4079.0
16.89,4081.0
16.891,4076.0
16.892,4079.0
16.893,4081.0
16.894,4081.0
16.895,4080.0
16.896,4082.0
16.897,4083.0
16.898,4078.0
16.899,4080.0
16.9,4081.0
16.901,4081.0
16.902,4083.0
16.903,4078.0
16.904,4079.0
16.905,4079.0
16.906,4082.0
16.907,4083.0
16.908,4079.0
16.909,4083.0
16.91,4080.0
16.911,4079.0
16.912,4079.0
16.913,4084.0
16.914,4078.0
16.915,4080.0
16.916,4081.0
16.917,4082.0
16.918,4083.0
16.919,4082.0
16.92,4082.0
16.921,4085.0
16.922,4084.0
16.923,4082.0
16.924,4079.0
16.925,4081.0
16.926,4083.0
16.927,4081.0
16.928,4083.0
16.929,4082.0
16.93,4076.0
16.931,4080.0
16.932,4083.0
16.933,4080.0
16.934,4084.0
16.935,4086.0
16.936,4083.0
16.937,4080.0
16.938,4079.0
16.939,4084.0
16.94,4080.0
16.941,4080.0
16.942,4082.0
16.943,4077.0
16.944,4079.0
16.945,4081.0
16.946,4079.0
16.947,4083.0
16.948,4081.0
16.949,4086.0
16.95,4085.0
16.951,4083.0
16.952,4072.0
16.953,4086.0
16.954,4086.0
16.955,4087.0
16.956,4087.0
16.957,4082.0
16.958,4081.0
16.959,4085.0
16.96,4081.0
16.961,4083.0
16.962,4084.0
16.963,4085.0
16.964,4083.0
16.965,4081.0
16.966,4086.0
16.967,4080.0
16.968,4083.0
16.969,4086.0
16.97,4079.0
16.971,4080.0
16.972,4083.0
16.973,4083.0
16.974,4086.0
16.975,4080.0
16.976,4079.0
16.977,4079.0
16.978,4082.0
16.979,4079.0
16.98,4084.0
16.981,4079.0
16.982,4082.0
16.983,4084.0
16.984,4084.0
16.985,4085.0
16.986,4079.0
16.987,4085.0
16.988,4081.0
16.989,4077.0
16.99,4079.0
16.991,4082.0
16.992,4081.0
16.993,4080.0
16.994,4082.0
16.995,4080.0
16.996,4083.0
16.997,4082.0
16.998,4080.0
16.999,4082.0
17.0,4080.0
17.001,4082.0
17.002,4078.0
17.003,4082.0
17.004,4076.0
17.005,4047.0
17.006,4078.0
17.007,4082.0
17.008,4085.0
17.009,4095.0
17.01,4082.0
17.011,4078.0
17.012,4080.0
17.013,4084.0
17.014,4075.0
17.015,4079.0
17.016,4076.0
17.017,4079.0
17.018,4079.0
17.019,4082.0
17.02,4082.0
17.021,4081.0
17.022,4077.0
17.023,4072.0
17.024,4076.0
17.025,4075.0
17.026,4070.0
17.027,4069.0
17.028,4064.0
17.029,4068.0
17.03,4068.0
17.031,4067.0
17.032,4061.0
17.033,4063.0
17.034,4060.0
17.035,4054.0
17.036,4051.0
17.037,4047.0
17.038,4043.0
17.039,4036.0
17.04,4032.0
17.041,4029.0
17.042,4008.0
17.043,3952.0
17.044,3924.0
17.045,3938.0
17.046,3853.0
17.047,3841.0
17.048,3816.0
17.049,3793.0
17.05,3745.0
17.051,3714.0
17.052,3688.0
17.053,3703.0
17.054,3631.0
17.055,3590.0
17.056,3581.0
17.057,3581.0
17.058,3546.0
17.059,3517.0
17.06,3505.0
17.061,3512.0
17.062,3453.0
17.063,3410.0
17.064,3402.0
17.065,3397.0
17.066,3364.0
17.067,3323.0
17.068,3328.0
17.069,3320.0
17.07,3249.0
17.071,3219.0
17.072,3207.0
17.073,3198.0
17.074,3159.0
17.075,3124.0
17.076,3126.0
17.077,3096.0
17.078,3033.0
17.079,3004.0
17.08,3000.0
17.081,2992.0
17.082,2944.0
17.083,2913.0
17.084,2961.0
17.085,2926.0
17.086,2912.0
17.087,2896.0
17.088,2912.0
17.089,2914.0
17.09,2894.0
17.091,2855.0
17.092,2879.0
17.093,2890.0
17.094,2852.0
17.095,2850.0
17.096,2878.0
17.097,2894.0
17.098,2842.0
17.099,2829.0
17.1,2855.0
17.101,2845.0
17.102,2777.0
17.103,2802.0
17.104,2790.0
17.105,2801.0
17.106,2781.0
17.107,2779.0
17.108,2814.0
17.109,2792.0
17.11,2730.0
17.111,2719.0
17.112,2742.0
17.113,2734.0
17.114,2715.0
17.115,2714.0
17.116,2724.0
17.117,2694.0
17.118,2649.0
17.119,2653.0
17.12,2655.0
17.121,2636.0
17.122,2610.0
17.123,2636.0
17.124,2640.0
17.125,2613.0
17.126,2560.0
17.127,2562.0
17.128,2568.0
17.129,2545.0
17.13,2502.0
17.131,2520.0
17.132,2543.0
17.133,2515.0
17.134,2486.0
17.135,2481.0
17.136,2478.0
17.137,2454.0
17.138,2431.0
17.139,2438.0
17.14,2474.0
17.141,2456.0
17.142,2422.0
17.143,2406.0
17.144,2418.0
17.145,2407.0
17.146,2393.0
17.147,2401.0
17.148,2388.0
17.149,2377.0
17.15,2353.0
17.151,2359.0
17.152,2363.0
17.153,2367.0
17.154,2358.0
17.155,2367.0
17.156,2346.0
17.157,2332.0
17.158,2320.0
17.159,2324.0
17.16,2323.0
17.161,2310.0
17.162,2309.0
17.163,2313.0
17.164,2288.0
17.165,2285.0
17.166,2302.0
17.167,2299.0
17.168,2292.0
17.169,2293.0
17.17,2306.0
17.171,2303.0
17.172,2289.0
17.173,2291.0
17.174,2282.0
17.175,2253.0
17.176,2250.0
17.177,2256.0
17.178,2265.0
17.179,2308.0
17.18,2278.0
17.181,2273.0
17.182,2269.0
17.183,2262.0
17.184,2265.0
17.185,2274.0
17.186,2261.0
17.187,2242.0
17.188,2233.0
17.189,2243.0
17.19,2226.0
17.191,2223.0
17.192,2239.0
17.193,2281.0
17.194,2256.0
17.195,2229.0
17.196,2226.0
17.197,2243.0
17.198,2236.0
17.199,2216.0
17.2,2195.0
17.201,2240.0
17.202,2228.0
17.203,2212.0
17.204,2207.0
17.205,2244.0
17.206,2217.0
17.207,2196.0
17.208,2202.0
17.209,2249.0
17.21,2248.0
17.211,2216.0
17.212,2221.0
17.213,2237.0
17.214,2232.0
17.215,2207.0
17.216,2216.0
17.217,2254.0
17.218,2230.0
17.219,2195.0
17.22,2192.0
17.221,2212.0
17.222,2196.0
17.223,2182.0
17.224,2206.0
17.225,2226.0
17.226,2189.0
17.227,2179.0
17.228,2173.0
17.229,2176.0
17.23,2151.0
17.231,2124.0
17.232,2148.0
17.233,2184.0
17.234,2167.0
17.235,2142.0
17.236,2174.0
17.237,2185.0
17.238,2170.0
17.239,2155.0
17.24,2178.0
17.241,2188.0
17.242,2154.0
17.243,2126.0
17.244,2139.0
17.245,2143.0
17.246,2125.0
17.247,2117.0
17.248,2187.0
17.249,2237.0
17.25,2215.0
17.251,2189.0
17.252,2193.0
17.253,2199.0
17.254,2177.0
17.255,2150.0
17.256,2184.0
17.257,2186.0
17.258,2147.0
17.259,2137.0
17.26,2158.0
17.261,2174.0
17.262,2177.0
17.263,2163.0
17.264,2198.0
17.265,2192.0
17.266,2168.0
17.267,2156.0
17.268,2165.0
17.269,2149.0
17.27,2134.0
17.271,2117.0
17.272,2142.0
17.273,2155.0
17.274,2147.0
17.275,2162.0
17.276,2165.0
17.277,2151.0
17.278,2135.0
17.279,2115.0
17.28,2105.0
17.281,2021.0
17.282,1918.0
17.283,1853.0
17.284,1820.0
17.285,1875.0
17.286,2045.0
17.287,2277.0
17.288,2535.0
17.289,2628.0
17.29,2679.0
17.291,2720.0
17.292,2750.0
17.293,2736.0
17.294,2700.0
17.295,2649.0
17.296,2588.0
17.297,2490.0
17.298,2429.0
17.299,2353.0
17.3,2289.0
17.301,2238.0
17.302,2190.0
17.303,2128.0
17.304,2061.0
17.305,1997.0
17.306,1949.0
17.307,1913.0
17.308,1873.0
17.309,1862.0
17.31,1870.0
17.311,1867.0
17.312,1878.0
17.313,1884.0
17.314,1901.0
17.315,1888.0
17.316,1879.0
17.317,1880.0
17.318,1883.0
17.319,1877.0
17.32,1880.0
17.321,1876.0
17.322,1884.0
17.323,1872.0
17.324,1875.0
17.325,1896.0
17.326,1899.0
17.327,1898.0
17.328,1900.0
17.329,1905.0
17.33,1919.0
17.331,1909.0
17.332,1910.0
17.333,1931.0
17.334,1941.0
17.335,1921.0
17.336,1937.0
17.337,1947.0
17.338,1947.0
17.339,1925.0
17.34,1927.0
17.341,1944.0
17.342,1955.0
17.343,1925.0
17.344,1924.0
17.345,1932.0
17.346,1935.0
17.347,1907.0
17.348,1906.0
17.349,1953.0
17.35,1965.0
17.351,1932.0
17.352,1910.0
17.353,1930.0
17.354,1932.0
17.355,1907.0
17.356,1914.0
17.357,1953.0
17.358,1946.0
17.359,1919.0
17.36,1927.0
17.361,1955.0
17.362,1966.0
17.363,1937.0
17.364,1934.0
17.365,1970.0
17.366,1974.0
17.367,1960.0
17.368,1986.0
17.369,2009.0
17.37,2033.0
17.371,2009.0
17.372,2019.0
17.373,2056.0
17.374,2057.0
17.375,2033.0
17.376,2046.0
17.377,2076.0
17.378,2078.0
17.379,2085.0
17.38,2117.0
17.381,2149.0
17.382,2148.0
17.383,2134.0
17.384,2154.0
17.385,2166.0
17.386,2168.0
17.387,2147.0
17.388,2159.0
17.389,2177.0
17.39,2175.0
17.391,2154.0
17.392,2190.0
17.393,2216.0
17.394,2209.0
17.395,2211.0
17.396,2239.0
17.397,2259.0
17.398,2255.0
17.399,2221.0
17.4,2227.0
17.401,2227.0
17.402,2218.0
17.403,2200.0
17.404,2216.0
17.405,2238.0
17.406,2207.0
17.407,2169.0
17.408,2172.0
17.409,2159.0
17.41,2151.0
17.411,2117.0
17.412,2124.0
17.413,2116.0
17.414,2109.0
17.415,2087.0
17.416,2099.0
17.417,2095.0
17.418,2092.0
17.419,2079.0
17.42,2093.0
17.421,2093.0
17.422,2074.0
17.423,2067.0
17.424,2069.0
17.425,2052.0
17.426,2031.0
17.427,2035.0
17.428,2041.0
17.429,2048.0
17.43,2068.0
17.431,2068.0
17.432,2066.0
17.433,2049.0
17.434,2031.0
17.435,2009.0
17.436,2012.0
17.437,2003.0
17.438,2000.0
17.439,1997.0
17.44,1996.0
17.441,1989.0
17.442,1980.0
17.443,1983.0
17.444,2006.0
17.445,2006.0
17.446,2010.0
17.447,2003.0
17.448,1992.0
17.449,1997.0
17.45,1992.0
17.451,1999.0
17.452,2001.0
17.453,2004.0
17.454,2021.0
17.455,2009.0
17.456,2000.0
17.457,2009.0
17.458,2018.0
17.459,2011.0
17.46,2021.0
17.461,2028.0
17.462,2057.0
17.463,2041.0
17.464,2031.0
17.465,2029.0
17.466,2040.0
17.467,2040.0
17.468,2023.0
17.469,2033.0
17.47,2040.0
17.471,2026.0
17.472,2014.0
17.473,2029.0
17.474,2049.0
17.475,2045.0
17.476,2036.0
17.477,2040.0
17.478,2067.0
17.479,2043.0
17.48,2038.0
17.481,2045.0
17.482,2057.0
17.483,2041.0
17.484,2034.0
17.485,2042.0
17.486,2059.0
17.487,2034.0
17.488,2026.0
17.489,2034.0
17.49,2044.0
17.491,2042.0
17.492,2041.0
17.493,2055.0
17.494,2072.0
17.495,2056.0
17.496,2038.0
17.497,2038.0
17.498,2050.0
17.499,2038.0
17.5,2031.0
17.501,2063.0
17.502,2071.0
17.503,2049.0
17.504,2035.0
17.505,2050.0
17.506,2060.0
17.507,2050.0
17.508,2042.0
17.509,2049.0
17.51,2070.0
17.511,2045.0
17.512,2031.0
17.513,2068.0
17.514,2065.0
17.515,2041.0
17.516,2045.0
17.517,2063.0
17.518,2062.0
17.519,2025.0
17.52,2025.0
17.521,2032.0
17.522,2049.0
17.523,2034.0
17.524,2036.0
17.525,2041.0
17.526,2029.0
17.527,1999.0
17.528,1993.0
17.529,2009.0
17.53,2026.0
17.531,2030.0
17.532,2041.0
17.533,2048.0
17.534,2047.0
17.535,2024.0
17.536,2033.0
17.537,2042.0
17.538,2058.0
17.539,2049.0
17.54,2055.0
17.541,2069.0
17.542,2058.0
17.543,2047.0
17.544,2054.0
17.545,2078.0
17.546,2075.0
17.547,2058.0
17.548,2088.0
17.549,2107.0
17.55,2106.0
17.551,2093.0
17.552,2085.0
17.553,2088.0
17.554,2084.0
17.555,2069.0
17.556,2076.0
17.557,2101.0
17.558,2088.0
17.559,2073.0
17.56,2083.0
17.561,2088.0
17.562,2091.0
17.563,2077.0
17.564,2071.0
17.565,2059.0
17.566,2071.0
17.567,2067.0
17.568,2093.0
17.569,2109.0
17.57,2104.0
17.571,2100.0
17.572,2084.0
17.573,2076.0
17.574,2080.0
17.575,2078.0
17.576,2087.0
17.577,2101.0
17.578,2060.0
17.579,2014.0
17.58,1927.0
17.581,1866.0
17.582,1810.0
17.583,1871.0
17.584,2059.0
17.585,2288.0
17.586,2496.0
17.587,2577.0
17.588,2639.0
17.589,2678.0
17.59,2681.0
17.591,2660.0
17.592,2651.0
17.593,2598.0
17.594,2527.0
17.595,2471.0
17.596,2405.0
17.597,2344.0
17.598,2287.0
17.599,2220.0
17.6,2158.0
17.601,2115.0
17.602,2064.0
17.603,1997.0
17.604,1931.0
17.605,1886.0
17.606,1864.0
17.607,1859.0
17.608,1849.0
17.609,1855.0
17.61,1875.0
17.611,1866.0
17.612,1854.0
17.613,1850.0
17.614,1859.0
17.615,1865.0
17.616,1864.0
17.617,1875.0
17.618,1899.0
17.619,1893.0
17.62,1875.0
17.621,1867.0
17.622,1876.0
17.623,1875.0
17.624,1872.0
17.625,1875.0
17.626,1893.0
17.627,1900.0
17.628,1896.0
17.629,1880.0
17.63,1893.0
17.631,1896.0
17.632,1880.0
17.633,1888.0
17.634,1916.0
17.635,1914.0
17.636,1891.0
17.637,1881.0
17.638,1895.0
17.639,1887.0
17.64,1872.0
17.641,1887.0
17.642,1903.0
17.643,1891.0
17.644,1889.0
17.645,1878.0
17.646,1892.0
17.647,1892.0
17.648,1877.0
17.649,1895.0
17.65,1901.0
17.651,1881.0
17.652,1859.0
17.653,1867.0
17.654,1885.0
17.655,1883.0
17.656,1864.0
17.657,1892.0
17.658,1896.0
17.659,1886.0
17.66,1875.0
17.661,1881.0
17.662,1901.0
17.663,1899.0
17.664,1899.0
17.665,1916.0
17.666,1938.0
17.667,1932.0
17.668,1945.0
17.669,1949.0
17.67,1978.0
17.671,1977.0
17.672,1974.0
17.673,1993.0
17.674,1999.0
17.675,2003.0
17.676,2025.0
17.677,2031.0
17.678,2060.0
17.679,2058.0
17.68,2070.0
17.681,2086.0
17.682,2080.0
17.683,2079.0
17.684,2087.0
17.685,2084.0
17.686,2095.0
17.687,2107.0
17.688,2110.0
17.689,2131.0
17.69,2124.0
17.691,2112.0
17.692,2123.0
17.693,2120.0
17.694,2126.0
17.695,2125.0
17.696,2136.0
17.697,2149.0
17.698,2148.0
17.699,2129.0
17.7,2136.0
17.701,2128.0
17.702,2138.0
17.703,2136.0
17.704,2144.0
17.705,2147.0
17.706,2140.0
17.707,2128.0
17.708,2134.0
17.709,2135.0
17.71,2146.0
17.711,2134.0
17.712,2130.0
17.713,2130.0
17.714,2120.0
17.715,2104.0
17.716,2115.0
17.717,2113.0
17.718,2119.0
17.719,2126.0
17.72,2124.0
17.721,2115.0
17.722,2117.0
17.723,2111.0
17.724,2122.0
17.725,2107.0
17.726,2109.0
17.727,2121.0
17.728,2112.0
17.729,2109.0
17.73,2098.0
17.731,2082.0
17.732,2094.0
17.733,2096.0
17.734,2104.0
17.735,2112.0
17.736,2108.0
17.737,2103.0
17.738,2090.0
17.739,2086.0
17.74,2098.0
17.741,2093.0
17.742,2107.0
17.743,2100.0
17.744,2087.0
17.745,2093.0
17.746,2084.0
17.747,2095.0
17.748,2102.0
17.749,2106.0
17.75,2108.0
17.751,2106.0
17.752,2094.0
17.753,2093.0
17.754,2096.0
17.755,2099.0
17.756,2101.0
17.757,2096.0
17.758,2099.0
17.759,2101.0
17.76,2088.0
17.761,2077.0
17.762,2072.0
17.763,2090.0
17.764,2095.0
17.765,2078.0
17.766,2103.0
17.767,2092.0
17.768,2074.0
17.769,2069.0
17.77,2086.0
17.771,2108.0
17.772,2106.0
17.773,2107.0
17.774,2115.0
17.775,2123.0
17.776,2106.0
17.777,2088.0
17.778,2090.0
17.779,2097.0
17.78,2090.0
17.781,2094.0
17.782,2115.0
17.783,2121.0
17.784,2105.0
17.785,2093.0
17.786,2094.0
17.787,2101.0
17.788,2095.0
17.789,2103.0
17.79,2118.0
17.791,2116.0
17.792,2106.0
17.793,2099.0
17.794,2114.0
17.795,2104.0
17.796,2103.0
17.797,2107.0
17.798,2112.0
17.799,2103.0
17.8,2084.0
17.801,2077.0
17.802,2079.0
17.803,2077.0
17.804,2082.0
17.805,2095.0
17.806,2124.0
17.807,2112.0
17.808,2078.0
17.809,2074.0
17.81,2086.0
17.811,2097.0
17.812,2089.0
17.813,2097.0
17.814,2113.0
17.815,2093.0
17.816,2070.0
17.817,2070.0
17.818,2076.0
17.819,2085.0
17.82,2075.0
17.821,2080.0
17.822,2074.0
17.823,2077.0
17.824,2063.0
17.825,2067.0
17.826,2082.0
17.827,2084.0
17.828,2074.0
17.829,2073.0
17.83,2069.0
17.831,2063.0
17.832,2046.0
17.833,2051.0
17.834,2061.0
17.835,2053.0
17.836,2042.0
17.837,2044.0
17.838,2054.0
17.839,2059.0
17.84,2058.0
17.841,2060.0
17.842,2061.0
17.843,2056.0
17.844,2068.0
17.845,2077.0
17.846,2074.0
17.847,2061.0
17.848,2057.0
17.849,2045.0
17.85,2059.0
17.851,2062.0
17.852,2067.0
17.853,2080.0
17.854,2081.0
17.855,2084.0
17.856,2092.0
17.857,2079.0
17.858,2086.0
17.859,2086.0
17.86,2078.0
17.861,2089.0
17.862,2101.0
17.863,2079.0
17.864,2082.0
17.865,2081.0
17.866,2086.0
17.867,2093.0
17.868,2090.0
17.869,2093.0
17.87,2095.0
17.871,2088.0
17.872,2093.0
17.873,2083.0
17.874,2082.0
17.875,2095.0
17.876,2072.0
17.877,2073.0
17.878,2066.0
17.879,2042.0
17.88,2058.0
17.881,2051.0
17.882,2059.0
17.883,2084.0
17.884,2091.0
17.885,2085.0
17.886,2088.0
17.887,2058.0
17.888,1998.0
17.889,1923.0
17.89,1847.0
17.891,1805.0
17.892,1786.0
17.893,1893.0
17.894,2097.0
17.895,2345.0
17.896,2492.0
17.897,2541.0
17.898,2607.0
17.899,2661.0
17.9,2636.0
17.901,2648.0
17.902,2609.0
17.903,2533.0
17.904,2458.0
17.905,2401.0
17.906,2363.0
17.907,2305.0
17.908,2238.0
17.909,2184.0
17.91,2112.0
17.911,2059.0
17.912,1982.0
17.913,1916.0
17.914,1895.0
17.915,1860.0
17.916,1852.0
17.917,1846.0
17.918,1842.0
17.919,1868.0
17.92,1868.0
17.921,1870.0
17.922,1847.0
17.923,1888.0
17.924,1892.0
17.925,1866.0
17.926,1875.0
17.927,1874.0
17.928,1891.0
17.929,1894.0
17.93,1908.0
17.931,1905.0
17.932,1894.0
17.933,1881.0
17.934,1887.0
17.935,1902.0
17.936,1903.0
17.937,1923.0
17.938,1930.0
17.939,1921.0
17.94,1909.0
17.941,1907.0
17.942,1903.0
17.943,1905.0
17.944,1906.0
17.945,1922.0
17.946,1941.0
17.947,1927.0
17.948,1921.0
17.949,1905.0
17.95,1912.0
17.951,1921.0
17.952,1916.0
17.953,1922.0
17.954,1917.0
17.955,1899.0
17.956,1903.0
17.957,1897.0
17.958,1898.0
17.959,1910.0
17.96,1892.0
17.961,1894.0
17.962,1896.0
17.963,1894.0
17.964,1892.0
17.965,1886.0
17.966,1894.0
17.967,1912.0
17.968,1920.0
17.969,1911.0
17.97,1933.0
17.971,1937.0
17.972,1927.0
17.973,1937.0
17.974,1932.0
17.975,1949.0
17.976,1962.0
17.977,1983.0
17.978,2002.0
17.979,2005.0
17.98,2007.0
17.981,2010.0
17.982,2022.0
17.983,2039.0
17.984,2049.0
17.985,2050.0
17.986,2076.0
17.987,2083.0
17.988,2088.0
17.989,2101.0
17.99,2095.0
17.991,2108.0
17.992,2120.0
17.993,2120.0
17.994,2116.0
17.995,2113.0
17.996,2109.0
17.997,2133.0
17.998,2133.0
17.999,2149.0
18.0,2148.0
18.001,2144.0
18.002,2144.0
18.003,2131.0
18.004,2140.0
18.005,2145.0
18.006,2133.0
18.007,2153.0
18.008,2147.0
18.009,2148.0
18.01,2143.0
18.011,2124.0
18.012,2130.0
18.013,2134.0
18.014,2128.0
18.015,2142.0
18.016,2134.0
18.017,2120.0
18.018,2130.0
18.019,2102.0
18.02,2121.0
18.021,2127.0
18.022,2127.0
18.023,2150.0
18.024,2128.0
18.025,2121.0
18.026,2115.0
18.027,2094.0
18.028,2124.0
18.029,2120.0
18.03,2097.0
18.031,2117.0
18.032,2095.0
18.033,2101.0
18.034,2105.0
18.035,2076.0
18.036,2080.0
18.037,2078.0
18.038,2088.0
18.039,2115.0
18.04,2127.0
18.041,2112.0
18.042,2088.0
18.043,2092.0
18.044,2112.0
18.045,2103.0
18.046,2111.0
18.047,2109.0
18.048,2102.0
18.049,2091.0
18.05,2076.0
18.051,2074.0
18.052,2086.0
18.053,2088.0
18.054,2107.0
18.055,2115.0
18.056,2112.0
18.057,2104.0
18.058,2103.0
18.059,2100.0
18.06,2110.0
18.061,2105.0
18.062,2113.0
18.063,2121.0
18.064,2115.0
18.065,2101.0
18.066,2083.0
18.067,2096.0
18.068,2097.0
18.069,2088.0
18.07,2116.0
18.071,2119.0
18.072,2107.0
18.073,2096.0
18.074,2094.0
18.075,2102.0
18.076,2117.0
18.077,2116.0
18.078,2121.0
18.079,2107.0
18.08,2095.0
18.081,2091.0
18.082,2077.0
18.083,2098.0
18.084,2118.0
18.085,2119.0
18.086,2130.0
18.087,2129.0
18.088,2116.0
18.089,2113.0
18.09,2102.0
18.091,2114.0
18.092,2120.0
18.093,2121.0
18.094,2117.0
18.095,2109.0
18.096,2098.0
18.097,2103.0
18.098,2091.0
18.099,2096.0
18.1,2094.0
18.101,2099.0
18.102,2088.0
18.103,2087.0
18.104,2086.0
18.105,2090.0
18.106,2083.0
18.107,2093.0
18.108,2099.0
18.109,2106.0
18.11,2104.0
18.111,2098.0
18.112,2093.0
18.113,2099.0
18.114,2086.0
18.115,2097.0
18.116,2105.0
18.117,2109.0
18.118,2105.0
18.119,2106.0
18.12,2083.0
18.121,2084.0
18.122,2063.0
18.123,2073.0
18.124,2088.0
18.125,2110.0
18.126,2101.0
18.127,2101.0
18.128,2087.0
18.129,2100.0
18.13,2091.0
18.131,2092.0
18.132,2041.0
18.133,2082.0
18.134,2078.0
18.135,2084.0
18.136,2083.0
18.137,2104.0
18.138,2090.0
18.139,2094.0
18.14,2107.0
18.141,2096.0
18.142,2091.0
18.143,2082.0
18.144,2062.0
18.145,2075.0
18.146,2074.0
18.147,2071.0
18.148,2081.0
18.149,2072.0
18.15,2078.0
18.151,2058.0
18.152,2060.0
18.153,2080.0
18.154,2076.0
18.155,2083.0
18.156,2088.0
18.157,2093.0
18.158,2077.0
18.159,2065.0
18.16,2074.0
18.161,2086.0
18.162,2076.0
18.163,2079.0
18.164,2079.0
18.165,2081.0
18.166,2081.0
18.167,2067.0
18.168,2081.0
18.169,2087.0
18.17,2085.0
18.171,2113.0
18.172,2111.0
18.173,2107.0
18.174,2104.0
18.175,2081.0
18.176,2084.0
18.177,2086.0
18.178,2080.0
18.179,2085.0
18.18,2090.0
18.181,2085.0
18.182,2085.0
18.183,2080.0
18.184,2091.0
18.185,2093.0
18.186,2086.0
18.187,2081.0
18.188,2069.0
18.189,2071.0
18.19,2068.0
18.191,2067.0
18.192,2088.0
18.193,2099.0
18.194,2114.0
18.195,2122.0
18.196,2103.0
18.197,2093.0
18.198,2071.0
18.199,2081.0
18.2,2097.0
18.201,2106.0
18.202,2076.0
18.203,2010.0
18.204,1941.0
18.205,1860.0
18.206,1785.0
18.207,1760.0
18.208,1847.0
18.209,2036.0
18.21,2253.0
18.211,2447.0
18.212,2517.0
18.213,2585.0
18.214,2617.0
18.215,2634.0
18.216,2630.0
18.217,2618.0
18.218,2595.0
18.219,2501.0
18.22,2420.0
18.221,2354.0
18.222,2308.0
18.223,2267.0
18.224,2219.0
18.225,2182.0
18.226,2139.0
18.227,2080.0
18.228,2015.0
18.229,1972.0
18.23,1934.0
18.231,1927.0
18.232,1912.0
18.233,1909.0
18.234,1908.0
18.235,1903.0
18.236,1903.0
18.237,1896.0
18.238,1901.0
18.239,1920.0
18.24,1926.0
18.241,1939.0
18.242,1936.0
18.243,1927.0
18.244,1933.0
18.245,1956.0
18.246,1923.0
18.247,1939.0
18.248,1936.0
18.249,1929.0
18.25,1949.0
18.251,1953.0
18.252,1953.0
18.253,1952.0
18.254,1942.0
18.255,1944.0
18.256,1948.0
18.257,1953.0
18.258,1955.0
18.259,1954.0
18.26,1934.0
18.261,1951.0
18.262,1933.0
18.263,1943.0
18.264,1948.0
18.265,1946.0
18.266,1935.0
18.267,1928.0
18.268,1914.0
18.269,1924.0
18.27,1915.0
18.271,1923.0
18.272,1927.0
18.273,1921.0
18.274,1914.0
18.275,1911.0
18.276,1894.0
18.277,1911.0
18.278,1907.0
18.279,1909.0
18.28,1924.0
18.281,1938.0
18.282,1937.0
18.283,1933.0
18.284,1921.0
18.285,1937.0
18.286,1938.0
18.287,1948.0
18.288,1966.0
18.289,1966.0
18.29,1969.0
18.291,1957.0
18.292,1961.0
18.293,2000.0
18.294,2016.0
18.295,2025.0
18.296,2032.0
18.297,2040.0
18.298,2054.0
18.299,2062.0
18.3,2063.0
18.301,2086.0
18.302,2085.0
18.303,2087.0
18.304,2118.0
18.305,2127.0
18.306,2127.0
18.307,2137.0
18.308,2130.0
18.309,2143.0
18.31,2138.0
18.311,2147.0
18.312,2144.0
18.313,2158.0
18.314,2151.0
18.315,2133.0
18.316,2131.0
18.317,2146.0
18.318,2148.0
18.319,2157.0
18.32,2162.0
18.321,2158.0
18.322,2150.0
18.323,2139.0
18.324,2141.0
18.325,2154.0
18.326,2144.0
18.327,2147.0
18.328,2135.0
18.329,2133.0
18.33,2126.0
18.331,2126.0
18.332,2120.0
18.333,2134.0
18.334,2128.0
18.335,2126.0
18.336,2112.0
18.337,2115.0
18.338,2103.0
18.339,2104.0
18.34,2109.0
18.341,2138.0
18.342,2128.0
18.343,2119.0
18.344,2117.0
18.345,2107.0
18.346,2098.0
18.347,2095.0
18.348,2106.0
18.349,2112.0
18.35,2107.0
18.351,2103.0
18.352,2099.0
18.353,2105.0
18.354,2105.0
18.355,2100.0
18.356,2102.0
18.357,2102.0
18.358,2109.0
18.359,2106.0
18.36,2105.0
18.361,2101.0
18.362,2091.0
18.363,2088.0
18.364,2088.0
18.365,2107.0
18.366,2120.0
18.367,2123.0
18.368,2129.0
18.369,2115.0
18.37,2122.0
18.371,2115.0
18.372,2112.0
18.373,2113.0
18.374,2118.0
18.375,2107.0
18.376,2105.0
18.377,2105.0
18.378,2108.0
18.379,2104.0
18.38,2100.0
18.381,2106.0
18.382,2107.0
18.383,2106.0
18.384,2116.0
18.385,2120.0
18.386,2111.0
18.387,2089.0
18.388,2096.0
18.389,2117.0
18.39,2123.0
18.391,2123.0
18.392,2123.0
18.393,2122.0
18.394,2126.0
18.395,2112.0
18.396,2116.0
18.397,2114.0
18.398,2109.0
18.399,2107.0
18.4,2109.0
18.401,2126.0
18.402,2127.0
18.403,2113.0
18.404,2116.0
18.405,2123.0
18.406,2114.0
18.407,2113.0
18.408,2115.0
18.409,2114.0
18.41,2115.0
18.411,2103.0
18.412,2113.0
18.413,2112.0
18.414,2110.0
18.415,2111.0
18.416,2105.0
18.417,2114.0
18.418,2127.0
18.419,2107.0
18.42,2086.0
18.421,2091.0
18.422,2092.0
18.423,2103.0
18.424,2111.0
18.425,2134.0
18.426,2140.0
18.427,2121.0
18.428,2111.0
18.429,2110.0
18.43,2111.0
18.431,2096.0
18.432,2083.0
18.433,2092.0
18.434,2096.0
18.435,2089.0
18.436,2097.0
18.437,2091.0
18.438,2113.0
18.439,2096.0
18.44,2087.0
18.441,2096.0
18.442,2088.0
18.443,2082.0
18.444,2088.0
18.445,2091.0
18.446,2094.0
18.447,2079.0
18.448,2063.0
18.449,2055.0
18.45,2065.0
18.451,2059.0
18.452,2057.0
18.453,2069.0
18.454,2073.0
18.455,2055.0
18.456,2050.0
18.457,2076.0
18.458,2082.0
18.459,2080.0
18.46,2081.0
18.461,2089.0
18.462,2078.0
18.463,2067.0
18.464,2062.0
18.465,2081.0
18.466,2099.0
18.467,2097.0
18.468,2098.0
18.469,2104.0
18.47,2108.0
18.471,2096.0
18.472,2105.0
18.473,2111.0
18.474,2106.0
18.475,2112.0
18.476,2103.0
18.477,2105.0
18.478,2097.0
18.479,2084.0
18.48,2098.0
18.481,2110.0
18.482,2112.0
18.483,2109.0
18.484,2095.0
18.485,2102.0
18.486,2104.0
18.487,2113.0
18.488,2122.0
18.489,2118.0
18.49,2111.0
18.491,2101.0
18.492,2094.0
18.493,2107.0
18.494,2093.0
18.495,2077.0
18.496,2077.0
18.497,2089.0
18.498,2095.0
18.499,2092.0
18.5,2083.0
18.501,2039.0
18.502,1973.0
18.503,1904.0
18.504,1836.0
18.505,1771.0
18.506,1781.0
18.507,1916.0
18.508,2135.0
18.509,2339.0
18.51,2465.0
18.511,2547.0
18.512,2613.0
18.513,2650.0
18.514,2652.0
18.515,2641.0
18.516,2609.0
18.517,2545.0
18.518,2461.0
18.519,2384.0
18.52,2356.0
18.521,2299.0
18.522,2283.0
18.523,2225.0
18.524,2185.0
18.525,2122.0
18.526,2067.0
18.527,1996.0
18.528,1961.0
18.529,1926.0
18.53,1919.0
18.531,1904.0
18.532,1908.0
18.533,1903.0
18.534,1921.0
18.535,1908.0
18.536,1909.0
18.537,1908.0
18.538,1909.0
18.539,1905.0
18.54,1909.0
18.541,1910.0
18.542,1930.0
18.543,1929.0
18.544,1932.0
18.545,1932.0
18.546,1941.0
18.547,1933.0
18.548,1929.0
18.549,1936.0
18.55,1960.0
18.551,1946.0
18.552,1957.0
18.553,1924.0
18.554,1958.0
18.555,1948.0
18.556,1942.0
18.557,1942.0
18.558,1963.0
18.559,1951.0
18.56,1943.0
18.561,1941.0
18.562,1958.0
18.563,1943.0
18.564,1940.0
18.565,1946.0
18.566,1953.0
18.567,1940.0
18.568,1948.0
18.569,1949.0
18.57,1956.0
18.571,1957.0
18.572,1943.0
18.573,1941.0
18.574,1958.0
18.575,1941.0
18.576,1954.0
18.577,1948.0
18.578,1969.0
18.579,1953.0
18.58,1946.0
18.581,1952.0
18.582,1975.0
18.583,1978.0
18.584,1968.0
18.585,1965.0
18.586,1975.0
18.587,1973.0
18.588,1972.0
18.589,1979.0
18.59,2015.0
18.591,2019.0
18.592,2045.0
18.593,2047.0
18.594,2089.0
18.595,2072.0
18.596,2076.0
18.597,2081.0
18.598,2102.0
18.599,2101.0
18.6,2107.0
18.601,2112.0
18.602,2144.0
18.603,2136.0
18.604,2134.0
18.605,2145.0
18.606,2163.0
18.607,2160.0
18.608,2156.0
18.609,2154.0
18.61,2172.0
18.611,2148.0
18.612,2143.0
18.613,2161.0
18.614,2177.0
18.615,2174.0
18.616,2183.0
18.617,2179.0
18.618,2190.0
18.619,2183.0
18.62,2190.0
18.621,2183.0
18.622,2180.0
18.623,2172.0
18.624,2166.0
18.625,2172.0
18.626,2187.0
18.627,2172.0
18.628,2184.0
18.629,2182.0
18.63,2183.0
18.631,2181.0
18.632,2164.0
18.633,2167.0
18.634,2165.0
18.635,2163.0
18.636,2155.0
18.637,2150.0
18.638,2148.0
18.639,2149.0
18.64,2151.0
18.641,2147.0
18.642,2156.0
18.643,2143.0
18.644,2133.0
18.645,2126.0
18.646,2135.0
18.647,2124.0
18.648,2131.0
18.649,2127.0
18.65,2134.0
18.651,2118.0
18.652,2109.0
18.653,2116.0
18.654,2112.0
18.655,2132.0
18.656,2140.0
18.657,2115.0
18.658,2127.0
18.659,2105.0
18.66,2134.0
18.661,2112.0
18.662,2154.0
18.663,2135.0
18.664,2128.0
18.665,2110.0
18.666,2123.0
18.667,2103.0
18.668,2101.0
18.669,2100.0
18.67,2132.0
18.671,2114.0
18.672,2113.0
18.673,2109.0
18.674,2120.0
18.675,2107.0
18.676,2109.0
18.677,2095.0
18.678,2114.0
18.679,2109.0
18.68,2103.0
18.681,2098.0
18.682,2121.0
18.683,2119.0
18.684,2102.0
18.685,2084.0
18.686,2105.0
18.687,2100.0
18.688,2094.0
18.689,2085.0
18.69,2098.0
18.691,2090.0
18.692,2083.0
18.693,2087.0
18.694,2122.0
18.695,2124.0
18.696,2100.0
18.697,2103.0
18.698,2129.0
18.699,2114.0
18.7,2101.0
18.701,2103.0
18.702,2110.0
18.703,2109.0
18.704,2093.0
18.705,2087.0
18.706,2114.0
18.707,2111.0
18.708,2094.0
18.709,2099.0
18.71,2111.0
18.711,2110.0
18.712,2084.0
18.713,2093.0
18.714,2101.0
18.715,2095.0
18.716,2093.0
18.717,2086.0
18.718,2103.0
18.719,2095.0
18.72,2088.0
18.721,2073.0
18.722,2088.0
18.723,2073.0
18.724,2084.0
18.725,2093.0
18.726,2124.0
18.727,2112.0
18.728,2113.0
18.729,2112.0
18.73,2123.0
18.731,2112.0
18.732,2102.0
18.733,2084.0
18.734,2099.0
18.735,2098.0
18.736,2089.0
18.737,2088.0
18.738,2094.0
18.739,2090.0
18.74,2087.0
18.741,2103.0
18.742,2134.0
18.743,2132.0
18.744,2142.0
18.745,2162.0
18.746,2193.0
18.747,2189.0
18.748,2197.0
18.749,2199.0
18.75,2233.0
18.751,2219.0
18.752,2209.0
18.753,2214.0
18.754,2213.0
18.755,2207.0
18.756,2197.0
18.757,2195.0
18.758,2199.0
18.759,2182.0
18.76,2187.0
18.761,2204.0
18.762,2212.0
18.763,2188.0
18.764,2183.0
18.765,2177.0
18.766,2175.0
18.767,2155.0
18.768,2149.0
18.769,2163.0
18.77,2173.0
18.771,2170.0
18.772,2169.0
18.773,2158.0
18.774,2163.0
18.775,2160.0
18.776,2170.0
18.777,2178.0
18.778,2168.0
18.779,2177.0
18.78,2159.0
18.781,2159.0
18.782,2140.0
18.783,2136.0
18.784,2129.0
18.785,2137.0
18.786,2130.0
18.787,2135.0
18.788,2126.0
18.789,2120.0
18.79,2135.0
18.791,2139.0
18.792,2126.0
18.793,2121.0
18.794,2123.0
18.795,2122.0
18.796,2110.0
18.797,2096.0
18.798,2095.0
18.799,2102.0
18.8,2091.0
18.801,2081.0
18.802,2093.0
18.803,2080.0
18.804,2063.0
18.805,2061.0
18.806,2068.0
18.807,2062.0
18.808,2036.0
18.809,1952.0
18.81,1879.0
18.811,1809.0
18.812,1747.0
18.813,1792.0
18.814,2000.0
18.815,2249.0
18.816,2450.0
18.817,2524.0
18.818,2593.0
18.819,2630.0
18.82,2641.0
18.821,2621.0
18.822,2622.0
18.823,2580.0
18.824,2487.0
18.825,2404.0
18.826,2357.0
18.827,2299.0
18.828,2232.0
18.829,2166.0
18.83,2135.0
18.831,2072.0
18.832,1985.0
18.833,1915.0
18.834,1893.0
18.835,1865.0
18.836,1827.0
18.837,1812.0
18.838,1837.0
18.839,1844.0
18.84,1845.0
18.841,1836.0
18.842,1847.0
18.843,1838.0
18.844,1829.0
18.845,1818.0
18.846,1841.0
18.847,1844.0
18.848,1843.0
18.849,1841.0
18.85,1867.0
18.851,1876.0
18.852,1860.0
18.853,1858.0
18.854,1888.0
18.855,1891.0
18.856,1886.0
18.857,1889.0
18.858,1900.0
18.859,1904.0
18.86,1883.0
18.861,1876.0
18.862,1890.0
18.863,1887.0
18.864,1875.0
18.865,1896.0
18.866,1912.0
18.867,1901.0
18.868,1902.0
18.869,1901.0
18.87,1905.0
18.871,1909.0
18.872,1900.0
18.873,1900.0
18.874,1909.0
18.875,1899.0
18.876,1887.0
18.877,1889.0
18.878,1901.0
18.879,1903.0
18.88,1892.0
18.881,1891.0
18.882,1897.0
18.883,1899.0
18.884,1886.0
18.885,1893.0
18.886,1895.0
18.887,1910.0
18.888,1892.0
18.889,1879.0
18.89,1883.0
18.891,1883.0
18.892,1889.0
18.893,1881.0
18.894,1907.0
18.895,1914.0
18.896,1909.0
18.897,1914.0
18.898,1927.0
18.899,1930.0
18.9,1943.0
18.901,1970.0
18.902,1994.0
18.903,2008.0
18.904,2019.0
18.905,2019.0
18.906,2038.0
18.907,2045.0
18.908,2043.0
18.909,2056.0
18.91,2064.0
18.911,2068.0
18.912,2067.0
18.913,2076.0
18.914,2089.0
18.915,2100.0
18.916,2100.0
18.917,2109.0
18.918,2117.0
18.919,2129.0
18.92,2128.0
18.921,2123.0
18.922,2133.0
18.923,2142.0
18.924,2144.0
18.925,2146.0
18.926,2152.0
18.927,2176.0
18.928,2158.0
18.929,2166.0
18.93,2150.0
18.931,2167.0
18.932,2145.0
18.933,2144.0
18.934,2134.0
18.935,2155.0
18.936,2145.0
18.937,2150.0
18.938,2144.0
18.939,2160.0
18.94,2147.0
18.941,2135.0
18.942,2131.0
18.943,2147.0
18.944,2140.0
18.945,2135.0
18.946,2133.0
18.947,2155.0
18.948,2135.0
18.949,2131.0
18.95,2154.0
18.951,2153.0
18.952,2151.0
18.953,2147.0
18.954,2140.0
18.955,2148.0
18.956,2139.0
18.957,2131.0
18.958,2126.0
18.959,2137.0
18.96,2127.0
18.961,2127.0
18.962,2130.0
18.963,2143.0
18.964,2137.0
18.965,2079.0
18.966,2123.0
18.967,2127.0
18.968,2123.0
18.969,2130.0
18.97,2136.0
18.971,2145.0
18.972,2131.0
18.973,2115.0
18.974,2125.0
18.975,2134.0
18.976,2131.0
18.977,2123.0
18.978,2129.0
18.979,2135.0
18.98,2118.0
18.981,2121.0
18.982,2114.0
18.983,2116.0
18.984,2121.0
18.985,2114.0
18.986,2131.0
18.987,2141.0
18.988,2122.0
18.989,2119.0
18.99,2113.0
18.991,2111.0
18.992,2104.0
18.993,2114.0
18.994,2114.0
18.995,2131.0
18.996,2119.0
18.997,2118.0
18.998,2107.0
18.999,2127.0
19.0,2117.0
19.001,2118.0
19.002,2137.0
19.003,2133.0
19.004,2125.0
19.005,2125.0
19.006,2121.0
19.007,2128.0
19.008,2119.0
19.009,2128.0
19.01,2127.0
19.011,2134.0
19.012,2126.0
19.013,2122.0
19.014,2124.0
19.015,2127.0
19.016,2123.0
19.017,2133.0
19.018,2134.0
19.019,2139.0
19.02,2121.0
19.021,2125.0
19.022,2117.0
19.023,2127.0
19.024,2119.0
19.025,2119.0
19.026,2122.0
19.027,2120.0
19.028,2118.0
19.029,2119.0
19.03,2123.0
19.031,2135.0
19.032,2125.0
19.033,2122.0
19.034,2118.0
19.035,2121.0
19.036,2120.0
19.037,2125.0
19.038,2125.0
19.039,2130.0
19.04,2122.0
19.041,2139.0
19.042,2133.0
19.043,2128.0
19.044,2131.0
19.045,2121.0
19.046,2122.0
19.047,2116.0
19.048,2125.0
19.049,2136.0
19.05,2124.0
19.051,2124.0
19.052,2123.0
19.053,2120.0
19.054,2119.0
19.055,2124.0
19.056,2123.0
19.057,2120.0
19.058,2119.0
19.059,2113.0
19.06,2081.0
19.061,2075.0
19.062,2068.0
19.063,2069.0
19.064,2076.0
19.065,2070.0
19.066,2064.0
19.067,2069.0
19.068,2064.0
19.069,2061.0
19.07,2047.0
19.071,2060.0
19.072,2056.0
19.073,2057.0
19.074,2044.0
19.075,2061.0
19.076,2043.0
19.077,2056.0
19.078,2052.0
19.079,2052.0
19.08,2052.0
19.081,2056.0
19.082,2055.0
19.083,2079.0
19.084,2087.0
19.085,2077.0
19.086,2069.0
19.087,2090.0
19.088,2092.0
19.089,2083.0
19.09,2078.0
19.091,2112.0
19.092,2101.0
19.093,2096.0
19.094,2090.0
19.095,2109.0
19.096,2105.0
19.097,2094.0
19.098,2097.0
19.099,2096.0
19.1,2088.0
19.101,2077.0
19.102,2085.0
19.103,2096.0
19.104,2094.0
19.105,2091.0
19.106,2086.0
19.107,2097.0
19.108,2084.0
19.109,2081.0
19.11,2088.0
19.111,2107.0
19.112,2102.0
19.113,2102.0
19.114,2094.0
19.115,2103.0
19.116,2088.0
19.117,2077.0
19.118,2078.0
19.119,2100.0
19.12,2109.0
19.121,2118.0
19.122,2118.0
19.123,2129.0
19.124,2067.0
19.125,1998.0
19.126,1905.0
19.127,1850.0
19.128,1795.0
19.129,1880.0
19.13,2090.0
19.131,2350.0
19.132,2525.0
19.133,2585.0
19.134,2647.0
19.135,2705.0
19.136,2696.0
19.137,2693.0
19.138,2673.0
19.139,2627.0
19.14,2535.0
19.141,2466.0
19.142,2413.0
19.143,2347.0
19.144,2282.0
19.145,2232.0
19.146,2195.0
19.147,2136.0
19.148,2058.0
19.149,2000.0
19.15,1959.0
19.151,1938.0
19.152,1917.0
19.153,1913.0
19.154,1922.0
19.155,1926.0
19.156,1910.0
19.157,1918.0
19.158,1927.0
19.159,1938.0
19.16,1932.0
19.161,1946.0
19.162,1962.0
19.163,1969.0
19.164,1966.0
19.165,1971.0
19.166,1965.0
19.167,1965.0
19.168,1963.0
19.169,1973.0
19.17,1991.0
19.171,1997.0
19.172,2002.0
19.173,2003.0
19.174,1998.0
19.175,2010.0
19.176,2004.0
19.177,1997.0
19.178,2003.0
19.179,2008.0
19.18,1989.0
19.181,1998.0
19.182,2006.0
19.183,2003.0
19.184,1998.0
19.185,2008.0
19.186,2004.0
19.187,1993.0
19.188,2009.0
19.189,2007.0
19.19,1997.0
19.191,1992.0
19.192,1997.0
19.193,1996.0
19.194,1988.0
19.195,1986.0
19.196,2009.0
19.197,2005.0
19.198,1983.0
19.199,1980.0
19.2,1984.0
19.201,1986.0
19.202,1966.0
19.203,1727.0
19.204,1644.0
19.205,1597.0
19.206,1571.0
19.207,1554.0
19.208,1555.0
19.209,1562.0
19.21,1574.0
19.211,1581.0
19.212,1603.0
19.213,1620.0
19.214,1637.0
19.215,1658.0
19.216,1683.0
19.217,1690.0
19.218,1725.0
19.219,1748.0
19.22,1760.0
19.221,1786.0
19.222,1792.0
19.223,1815.0
19.224,1843.0
19.225,1857.0
19.226,1876.0
19.227,1896.0
19.228,1915.0
19.229,1924.0
19.23,1936.0
19.231,1958.0
19.232,1975.0
19.233,1988.0
19.234,1998.0
19.235,2000.0
19.236,2013.0
19.237,2024.0
19.238,2030.0
19.239,2054.0
19.24,2063.0
19.241,2071.0
19.242,2066.0
19.243,2071.0
19.244,2068.0
19.245,2079.0
19.246,2083.0
19.247,2105.0
19.248,2107.0
19.249,2122.0
19.25,2124.0
19.251,2139.0
19.252,2143.0
19.253,2129.0
19.254,2134.0
19.255,2142.0
19.256,2152.0
19.257,2128.0
19.258,2124.0
19.259,2135.0
19.26,2146.0
19.261,2137.0
19.262,2141.0
19.263,2139.0
19.264,2141.0
19.265,2133.0
19.266,2146.0
19.267,2145.0
19.268,2150.0
19.269,2145.0
19.27,2154.0
19.271,2158.0
19.272,2149.0
19.273,2139.0
19.274,2156.0
19.275,2154.0
19.276,2148.0
19.277,2148.0
19.278,2167.0
19.279,2150.0
19.28,2152.0
19.281,2151.0
19.282,2156.0
19.283,2156.0
19.284,2156.0
19.285,2171.0
19.286,2162.0
19.287,2174.0
19.288,2161.0
19.289,2156.0
19.29,2163.0
19.291,2159.0
19.292,2159.0
19.293,2157.0
19.294,2159.0
19.295,2161.0
19.296,2156.0
19.297,2155.0
19.298,2166.0
19.299,2162.0
19.3,2167.0
19.301,2178.0
19.302,2164.0
19.303,2159.0
19.304,2146.0
19.305,2162.0
19.306,2170.0
19.307,2176.0
19.308,2156.0
19.309,2163.0
19.31,2158.0
19.311,2170.0
19.312,2170.0
19.313,2165.0
19.314,2182.0
19.315,2176.0
19.316,2175.0
19.317,2195.0
19.318,2192.0
19.319,2178.0
19.32,2185.0
19.321,2191.0
19.322,2194.0
19.323,2173.0
19.324,2171.0
19.325,2193.0
19.326,2195.0
19.327,2185.0
19.328,2175.0
19.329,2191.0
19.33,2194.0
19.331,2183.0
19.332,2193.0
19.333,2187.0
19.334,2190.0
19.335,2186.0
19.336,2180.0
19.337,2191.0
19.338,2194.0
19.339,2179.0
19.34,2184.0
19.341,2185.0
19.342,2172.0
19.343,2172.0
19.344,2183.0
19.345,2188.0
19.346,2184.0
19.347,2168.0
19.348,2169.0
19.349,2174.0
19.35,2179.0
19.351,2179.0
19.352,2190.0
19.353,2179.0
19.354,2186.0
19.355,2180.0
19.356,2189.0
19.357,2177.0
19.358,2175.0
19.359,2174.0
19.36,2183.0
19.361,2186.0
19.362,2173.0
19.363,2183.0
19.364,2188.0
19.365,2146.0
19.366,2167.0
19.367,2167.0
19.368,2168.0
19.369,2166.0
19.37,2211.0
19.371,2163.0
19.372,2168.0
19.373,2166.0
19.374,2168.0
19.375,2163.0
19.376,2161.0
19.377,2155.0
19.378,2150.0
19.379,2149.0
19.38,2159.0
19.381,2143.0
19.382,2134.0
19.383,2152.0
19.384,2141.0
19.385,2127.0
19.386,2120.0
19.387,2120.0
