27.367,1901.0
27.368,1915.0
27.369,1914.0
27.37,1913.0
27.371,1928.0
27.372,1949.0
27.373,1922.0
27.374,1916.0
27.375,1917.0
27.376,1908.0
27.377,1896.0
27.378,1881.0
27.379,1864.0
27.38,1853.0
27.381,1836.0
27.382,1833.0
27.383,1839.0
27.384,1820.0
27.385,1788.0
27.386,1772.0
27.387,1751.0
27.388,1751.0
27.389,1731.0
27.39,1738.0
27.391,1739.0
27.392,1741.0
27.393,1744.0
27.394,1757.0
27.395,1768.0
27.396,1769.0
27.397,1754.0
27.398,1753.0
27.399,1772.0
27.4,1783.0
27.401,1783.0
27.402,1791.0
27.403,1789.0
27.404,1766.0
27.405,1699.0
27.406,1654.0
27.407,1583.0
27.408,1542.0
27.409,1542.0
27.41,1690.0
27.411,2032.0
27.412,2301.0
27.413,2439.0
27.414,2530.0
27.415,2694.0
27.416,2778.0
27.417,2839.0
27.418,3046.0
27.419,3089.0
27.42,3054.0
27.421,2995.0
27.422,2940.0
27.423,2893.0
27.424,2816.0
27.425,2677.0
27.426,2598.0
27.427,2534.0
27.428,2456.0
27.429,2372.0
27.43,2310.0
27.431,2281.0
27.432,2256.0
27.433,2219.0
27.434,2243.0
27.435,2270.0
27.436,2239.0
27.437,2150.0
27.438,2129.0
27.439,2113.0
27.44,2106.0
27.441,2109.0
27.442,2102.0
27.443,2100.0
27.444,2094.0
27.445,2109.0
27.446,2107.0
27.447,2110.0
27.448,2105.0
27.449,2107.0
27.45,2114.0
27.451,2101.0
27.452,2095.0
27.453,2081.0
27.454,2079.0
27.455,2074.0
27.456,2062.0
27.457,2061.0
27.458,2058.0
27.459,2052.0
27.46,2050.0
27.461,2058.0
27.462,2056.0
27.463,2055.0
27.464,2056.0
27.465,2041.0
27.466,2047.0
27.467,2026.0
27.468,2036.0
27.469,2026.0
27.47,2015.0
27.471,2020.0
27.472,2019.0
27.473,2006.0
27.474,2000.0
27.475,1994.0
27.476,1997.0
27.477,2010.0
27.478,2005.0
27.479,1996.0
27.48,2006.0
27.481,1990.0
27.482,1980.0
27.483,1968.0
27.484,1739.0
27.485,1604.0
27.486,1583.0
27.487,1588.0
27.488,1612.0
27.489,1614.0
27.49,1611.0
27.491,1617.0
27.492,1637.0
27.493,1658.0
27.494,1671.0
27.495,1693.0
27.496,1713.0
27.497,1728.0
27.498,1734.0
27.499,1741.0
27.5,1735.0
27.501,1741.0
27.502,1733.0
27.503,1574.0
27.504,1548.0
27.505,1536.0
27.506,1546.0
27.507,1569.0
27.508,1586.0
27.509,1600.0
27.51,1620.0
27.511,1638.0
27.512,1663.0
27.513,1661.0
27.514,1665.0
27.515,1691.0
27.516,1699.0
27.517,1707.0
27.518,1708.0
27.519,1738.0
27.52,1762.0
27.521,1767.0
27.522,1759.0
27.523,1773.0
27.524,1791.0
27.525,1796.0
27.526,1805.0
27.527,1825.0
27.528,1839.0
27.529,1838.0
27.53,1837.0
27.531,1855.0
27.532,1863.0
27.533,1872.0
27.534,1877.0
27.535,1891.0
27.536,1902.0
27.537,1892.0
27.538,1901.0
27.539,1930.0
27.54,1938.0
27.541,1956.0
27.542,1978.0
27.543,1959.0
27.544,1953.0
27.545,1942.0
27.546,1933.0
27.547,1931.0
27.548,1931.0
27.549,1937.0
27.55,1943.0
27.551,1953.0
27.552,1952.0
27.553,1940.0
27.554,1940.0
27.555,1947.0
27.556,1945.0
27.557,1947.0
27.558,1962.0
27.559,1968.0
27.56,1943.0
27.561,1905.0
27.562,1893.0
27.563,1899.0
27.564,1883.0
27.565,1879.0
27.566,1879.0
27.567,1894.0
27.568,1881.0
27.569,1870.0
27.57,1881.0
27.571,1886.0
27.572,1879.0
27.573,1905.0
27.574,1891.0
27.575,2039.0
27.576,2005.0
27.577,1956.0
27.578,1946.0
27.579,1933.0
27.58,1926.0
27.581,1926.0
27.582,1933.0
27.583,1934.0
27.584,1927.0
27.585,1924.0
27.586,1933.0
27.587,1930.0
27.588,1902.0
27.589,1889.0
27.59,1883.0
27.591,1868.0
27.592,1861.0
27.593,1868.0
27.594,1866.0
27.595,1890.0
27.596,1890.0
27.597,1918.0
27.598,1925.0
27.599,1926.0
27.6,1942.0
27.601,1945.0
27.602,1955.0
27.603,1954.0
27.604,1961.0
27.605,1969.0
27.606,1975.0
27.607,1970.0
27.608,1994.0
27.609,2002.0
27.61,2003.0
27.611,2000.0
27.612,2006.0
27.613,2020.0
27.614,2018.0
27.615,2017.0
27.616,2025.0
27.617,2038.0
27.618,2116.0
27.619,2192.0
27.62,2215.0
27.621,2224.0
27.622,2212.0
27.623,2209.0
27.624,2212.0
27.625,2206.0
27.626,2199.0
27.627,2185.0
27.628,2202.0
27.629,2192.0
27.63,2191.0
27.631,2178.0
27.632,2175.0
27.633,2164.0
27.634,2153.0
27.635,2142.0
27.636,2141.0
27.637,2143.0
27.638,2132.0
27.639,2132.0
27.64,2135.0
27.641,2128.0
27.642,2124.0
27.643,2116.0
27.644,2126.0
27.645,2128.0
27.646,2114.0
27.647,2117.0
27.648,2126.0
27.649,2119.0
27.65,2113.0
27.651,2111.0
27.652,2113.0
27.653,2102.0
27.654,2107.0
27.655,2106.0
27.656,2116.0
27.657,2112.0
27.658,2107.0
27.659,2107.0
27.66,2105.0
27.661,2094.0
27.662,2079.0
27.663,2085.0
27.664,2082.0
27.665,2075.0
27.666,2071.0
27.667,2089.0
27.668,2097.0
27.669,2078.0
27.67,2071.0
27.671,2081.0
27.672,2105.0
27.673,2092.0
27.674,2079.0
27.675,2081.0
27.676,2099.0
27.677,2077.0
27.678,2076.0
27.679,2088.0
27.68,2095.0
27.681,2097.0
27.682,2089.0
27.683,2099.0
27.684,2097.0
27.685,2088.0
27.686,2083.0
27.687,2093.0
27.688,2087.0
27.689,2086.0
27.69,2076.0
27.691,2082.0
27.692,2081.0
27.693,2071.0
27.694,2069.0
27.695,2076.0
27.696,2075.0
27.697,2072.0
27.698,2070.0
27.699,2086.0
27.7,2082.0
27.701,2075.0
27.702,2082.0
27.703,2082.0
27.704,2074.0
27.705,2068.0
27.706,2063.0
27.707,2070.0
27.708,2058.0
27.709,2064.0
27.71,2062.0
27.711,2074.0
27.712,2079.0
27.713,2071.0
27.714,2039.0
27.715,1982.0
27.716,1887.0
27.717,1818.0
27.718,1775.0
27.719,1847.0
27.72,2027.0
27.721,2254.0
27.722,2447.0
27.723,2513.0
27.724,2558.0
27.725,2598.0
27.726,2627.0
27.727,2634.0
27.728,2634.0
27.729,2545.0
27.73,2427.0
27.731,2332.0
27.732,2264.0
27.733,2206.0
27.734,2148.0
27.735,2096.0
27.736,2055.0
27.737,2006.0
27.738,1936.0
27.739,1875.0
27.74,1837.0
27.741,1816.0
27.742,1795.0
27.743,1782.0
27.744,1792.0
27.745,1809.0
27.746,1820.0
27.747,1822.0
27.748,1833.0
27.749,1841.0
27.75,1850.0
27.751,1846.0
27.752,1844.0
27.753,1860.0
27.754,1869.0
27.755,1857.0
27.756,1886.0
27.757,1893.0
27.758,1897.0
27.759,1902.0
27.76,1925.0
27.761,1938.0
27.762,1938.0
27.763,1932.0
27.764,1927.0
27.765,1937.0
27.766,1899.0
27.767,1883.0
27.768,1883.0
27.769,1886.0
27.77,1876.0
27.771,1871.0
27.772,1877.0
27.773,1893.0
27.774,1879.0
27.775,1881.0
27.776,1897.0
27.777,1903.0
27.778,1900.0
27.779,1876.0
27.78,1876.0
27.781,1895.0
27.782,1888.0
27.783,1890.0
27.784,1916.0
27.785,1915.0
27.786,1911.0
27.787,1906.0
27.788,1909.0
27.789,1913.0
27.79,1920.0
27.791,1909.0
27.792,1918.0
27.793,1924.0
27.794,1916.0
27.795,1912.0
27.796,1923.0
27.797,1938.0
27.798,1932.0
27.799,1928.0
27.8,1947.0
27.801,1952.0
27.802,1953.0
27.803,1966.0
27.804,1983.0
27.805,1977.0
27.806,1986.0
27.807,2007.0
27.808,2021.0
27.809,2023.0
27.81,2030.0
27.811,2046.0
27.812,2060.0
27.813,2055.0
27.814,2059.0
27.815,2080.0
27.816,2098.0
27.817,2106.0
27.818,2105.0
27.819,2115.0
27.82,2126.0
27.821,2126.0
27.822,2134.0
27.823,2143.0
27.824,2157.0
27.825,2163.0
27.826,2144.0
27.827,2153.0
27.828,2159.0
27.829,2160.0
27.83,2156.0
27.831,2156.0
27.832,2168.0
27.833,2168.0
27.834,2160.0
27.835,2185.0
27.836,2217.0
27.837,2205.0
27.838,2204.0
27.839,2202.0
27.84,2201.0
27.841,2192.0
27.842,2192.0
27.843,2184.0
27.844,2187.0
27.845,2182.0
27.846,2172.0
27.847,2177.0
27.848,2180.0
27.849,2172.0
27.85,2164.0
27.851,2158.0
27.852,2154.0
27.853,2149.0
27.854,2158.0
27.855,2169.0
27.856,2164.0
27.857,2161.0
27.858,2147.0
27.859,2152.0
27.86,2144.0
27.861,2136.0
27.862,2138.0
27.863,2137.0
27.864,2130.0
27.865,2122.0
27.866,2124.0
27.867,2120.0
27.868,2107.0
27.869,2099.0
27.87,2110.0
27.871,2115.0
27.872,2120.0
27.873,2123.0
27.874,2126.0
27.875,2118.0
27.876,2110.0
27.877,2110.0
27.878,2103.0
27.879,2096.0
27.88,2088.0
27.881,2091.0
27.882,2091.0
27.883,2089.0
27.884,2096.0
27.885,2093.0
27.886,2090.0
27.887,2110.0
27.888,2101.0
27.889,2095.0
27.89,2093.0
27.891,2086.0
27.892,2084.0
27.893,2094.0
27.894,2084.0
27.895,2075.0
27.896,2074.0
27.897,2075.0
27.898,2067.0
27.899,2092.0
27.9,2113.0
27.901,2179.0
27.902,2200.0
27.903,2192.0
27.904,2189.0
27.905,2181.0
27.906,2245.0
27.907,2244.0
27.908,2249.0
27.909,2294.0
27.91,2324.0
27.911,2344.0
27.912,2329.0
27.913,2287.0
27.914,2266.0
27.915,2241.0
27.916,2248.0
27.917,2249.0
27.918,2255.0
27.919,2248.0
27.92,2247.0
27.921,2244.0
27.922,2236.0
27.923,2236.0
27.924,2237.0
27.925,2236.0
27.926,2227.0
27.927,2212.0
27.928,2418.0
27.929,2510.0
27.93,2494.0
27.931,2484.0
27.932,2480.0
27.933,2474.0
27.934,2447.0
27.935,2425.0
27.936,2414.0
27.937,2405.0
27.938,2390.0
27.939,2372.0
27.94,2362.0
27.941,2347.0
27.942,2322.0
27.943,2308.0
27.944,2292.0
27.945,2297.0
27.946,2259.0
27.947,2238.0
27.948,2222.0
27.949,2214.0
27.95,2199.0
27.951,2190.0
27.952,2196.0
27.953,2175.0
27.954,2164.0
27.955,2153.0
27.956,2149.0
27.957,2153.0
27.958,2158.0
27.959,2154.0
27.96,2152.0
27.961,2157.0
27.962,2144.0
27.963,2141.0
27.964,2146.0
27.965,2143.0
27.966,2143.0
27.967,2142.0
27.968,2130.0
27.969,2138.0
27.97,2100.0
27.971,2089.0
27.972,2085.0
27.973,2079.0
27.974,2083.0
27.975,2082.0
27.976,2078.0
27.977,2067.0
27.978,2053.0
27.979,2064.0
27.98,2063.0
27.981,2032.0
27.982,2033.0
27.983,2019.0
27.984,2009.0
27.985,1996.0
27.986,1995.0
27.987,1991.0
27.988,1988.0
27.989,1984.0
27.99,1997.0
27.991,2002.0
27.992,2011.0
27.993,2023.0
27.994,2042.0
27.995,2043.0
27.996,2051.0
27.997,2053.0
27.998,2049.0
27.999,2053.0
28.0,2057.0
28.001,2055.0
28.002,2008.0
28.003,2181.0
28.004,2296.0
28.005,2343.0
28.006,2385.0
28.007,2409.0
28.008,2387.0
28.009,2443.0
28.01,2490.0
28.011,2502.0
28.012,2507.0
28.013,2495.0
28.014,2496.0
28.015,2474.0
28.016,2459.0
28.017,2441.0
28.018,2431.0
28.019,2414.0
28.02,2398.0
28.021,2376.0
28.022,2360.0
28.023,2344.0
28.024,2326.0
28.025,2307.0
28.026,2260.0
28.027,2210.0
28.028,2133.0
28.029,2047.0
28.03,1952.0
28.031,1907.0
28.032,1978.0
28.033,2159.0
28.034,2355.0
28.035,2507.0
28.036,2588.0
28.037,2652.0
28.038,2680.0
28.039,2676.0
28.04,2653.0
28.041,2640.0
28.042,2581.0
28.043,2497.0
28.044,2414.0
28.045,2367.0
28.046,2335.0
28.047,2294.0
28.048,2242.0
28.049,2192.0
28.05,2143.0
28.051,2081.0
28.052,2018.0
28.053,1953.0
28.054,1905.0
28.055,1869.0
28.056,1845.0
28.057,1843.0
28.058,1842.0
28.059,1825.0
28.06,1818.0
28.061,1820.0
28.062,1811.0
28.063,1805.0
28.064,1806.0
28.065,1814.0
28.066,1805.0
28.067,1802.0
28.068,1809.0
28.069,1826.0
28.07,1814.0
28.071,1794.0
28.072,1793.0
28.073,1793.0
28.074,1792.0
28.075,1784.0
28.076,1790.0
28.077,1782.0
28.078,1777.0
28.079,1778.0
28.08,1780.0
28.081,1782.0
28.082,1780.0
28.083,1772.0
28.084,1779.0
28.085,1768.0
28.086,1766.0
28.087,1757.0
28.088,1764.0
28.089,1761.0
28.09,1748.0
28.091,1736.0
28.092,1741.0
28.093,1742.0
28.094,1739.0
28.095,1737.0
28.096,1738.0
28.097,1750.0
28.098,1740.0
28.099,1738.0
28.1,1735.0
28.101,1739.0
28.102,1732.0
28.103,1737.0
28.104,1728.0
28.105,1752.0
28.106,1750.0
28.107,1748.0
28.108,1760.0
28.109,1763.0
28.11,1763.0
28.111,1768.0
28.112,1777.0
28.113,1784.0
28.114,1787.0
28.115,1800.0
28.116,1811.0
28.117,1813.0
28.118,1817.0
28.119,1830.0
28.12,1845.0
28.121,1862.0
28.122,1868.0
28.123,1875.0
28.124,1907.0
28.125,1906.0
28.126,1921.0
28.127,1935.0
28.128,1929.0
28.129,1947.0
28.13,1947.0
28.131,1945.0
28.132,1958.0
28.133,1968.0
28.134,1963.0
28.135,1974.0
28.136,1981.0
28.137,1991.0
28.138,1993.0
28.139,1995.0
28.14,1996.0
28.141,1989.0
28.142,1992.0
28.143,1997.0
28.144,1993.0
28.145,2015.0
28.146,2001.0
28.147,2004.0
28.148,2004.0
28.149,2002.0
28.15,2009.0
28.151,2013.0
28.152,2015.0
28.153,2010.0
28.154,2006.0
28.155,2005.0
28.156,2009.0
28.157,1998.0
28.158,2001.0
28.159,2002.0
28.16,1998.0
28.161,2004.0
28.162,2003.0
28.163,1997.0
28.164,1996.0
28.165,1999.0
28.166,2002.0
28.167,1994.0
28.168,1979.0
28.169,1984.0
28.17,1995.0
28.171,1987.0
28.172,1987.0
28.173,1984.0
28.174,1980.0
28.175,1978.0
28.176,1984.0
28.177,1987.0
28.178,1987.0
28.179,1977.0
28.18,1979.0
28.181,1975.0
28.182,1978.0
28.183,1987.0
28.184,1977.0
28.185,1974.0
28.186,1979.0
28.187,1975.0
28.188,1968.0
28.189,1975.0
28.19,1974.0
28.191,1978.0
28.192,1972.0
28.193,1984.0
28.194,1985.0
28.195,1981.0
28.196,1974.0
28.197,1984.0
28.198,1976.0
28.199,1975.0
28.2,1985.0
28.201,1980.0
28.202,1980.0
28.203,1970.0
28.204,1966.0
28.205,1974.0
28.206,1982.0
28.207,1973.0
28.208,1974.0
28.209,1979.0
28.21,1988.0
28.211,1972.0
28.212,1978.0
28.213,1986.0
28.214,1977.0
28.215,1968.0
28.216,1965.0
28.217,1976.0
28.218,1983.0
28.219,1980.0
28.22,1976.0
28.221,1977.0
28.222,1977.0
28.223,1979.0
28.224,1993.0
28.225,1991.0
28.226,1992.0
28.227,1977.0
28.228,1981.0
28.229,1984.0
28.23,1981.0
28.231,1981.0
28.232,1994.0
28.233,2000.0
28.234,1999.0
28.235,1981.0
28.236,1981.0
28.237,1995.0
28.238,1981.0
28.239,1985.0
28.24,1993.0
28.241,1994.0
28.242,2000.0
28.243,1981.0
28.244,1989.0
28.245,2005.0
28.246,2005.0
28.247,1998.0
28.248,1987.0
28.249,1994.0
28.25,1995.0
28.251,1990.0
28.252,1996.0
28.253,2001.0
28.254,1995.0
28.255,1991.0
28.256,1993.0
28.257,1986.0
28.258,1989.0
28.259,1981.0
28.26,1988.0
28.261,1991.0
28.262,1989.0
28.263,1974.0
28.264,1971.0
28.265,1978.0
28.266,1967.0
28.267,1975.0
28.268,1976.0
28.269,1979.0
28.27,1966.0
28.271,1975.0
28.272,1990.0
28.273,1991.0
28.274,1983.0
28.275,1986.0
28.276,1988.0
28.277,1990.0
28.278,1988.0
28.279,2005.0
28.28,2001.0
28.281,1999.0
28.282,2003.0
28.283,2001.0
28.284,2016.0
28.285,2012.0
28.286,2020.0
28.287,2015.0
28.288,2017.0
28.289,2020.0
28.29,2010.0
28.291,2009.0
28.292,2016.0
28.293,2006.0
28.294,2018.0
28.295,2018.0
28.296,2015.0
28.297,2016.0
28.298,2044.0
28.299,2015.0
28.3,2017.0
28.301,2019.0
28.302,2019.0
28.303,2011.0
28.304,2012.0
28.305,2002.0
28.306,2019.0
28.307,2012.0
28.308,2009.0
28.309,2010.0
28.31,2010.0
28.311,2001.0
28.312,1991.0
28.313,1996.0
28.314,2002.0
28.315,1978.0
28.316,1915.0
28.317,1851.0
28.318,1759.0
28.319,1699.0
28.32,1688.0
28.321,1798.0
28.322,2020.0
28.323,2246.0
28.324,2409.0
28.325,2479.0
28.326,2549.0
28.327,2587.0
28.328,2575.0
28.329,2565.0
28.33,2556.0
28.331,2504.0
28.332,2411.0
28.333,2335.0
28.334,2280.0
28.335,2233.0
28.336,2181.0
28.337,2139.0
28.338,2098.0
28.339,2050.0
28.34,1982.0
28.341,1921.0
28.342,1876.0
28.343,1838.0
28.344,1810.0
28.345,1806.0
28.346,1816.0
28.347,1819.0
28.348,1810.0
28.349,1814.0
28.35,1816.0
28.351,1817.0
28.352,1822.0
28.353,1828.0
28.354,1835.0
28.355,1836.0
28.356,1842.0
28.357,1848.0
28.358,1847.0
28.359,1845.0
28.36,1846.0
28.361,1854.0
28.362,1862.0
28.363,1854.0
28.364,1855.0
28.365,1871.0
28.366,1870.0
28.367,1865.0
28.368,1871.0
28.369,1884.0
28.37,1886.0
28.371,1873.0
28.372,1871.0
28.373,1882.0
28.374,1882.0
28.375,1876.0
28.376,1884.0
28.377,1891.0
28.378,1890.0
28.379,1878.0
28.38,1884.0
28.381,1885.0
28.382,1877.0
28.383,1881.0
28.384,1880.0
28.385,1879.0
28.386,1885.0
28.387,1873.0
28.388,1886.0
28.389,1885.0
28.39,1877.0
28.391,1878.0
28.392,1874.0
28.393,1871.0
28.394,1889.0
28.395,1890.0
28.396,1895.0
28.397,1902.0
28.398,1898.0
28.399,1917.0
28.4,1903.0
28.401,1917.0
28.402,1925.0
28.403,1926.0
28.404,1936.0
28.405,1940.0
28.406,1976.0
28.407,1998.0
28.408,2012.0
28.409,2023.0
28.41,2027.0
28.411,2050.0
28.412,2061.0
28.413,2074.0
28.414,2077.0
28.415,2087.0
28.416,2101.0
28.417,2115.0
28.418,2115.0
28.419,2117.0
28.42,2129.0
28.421,2126.0
28.422,2129.0
28.423,2132.0
28.424,2141.0
28.425,2136.0
28.426,2143.0
28.427,2147.0
28.428,2143.0
28.429,2144.0
28.43,2147.0
28.431,2140.0
28.432,2146.0
28.433,2151.0
28.434,2146.0
28.435,2137.0
28.436,2140.0
28.437,2135.0
28.438,2137.0
28.439,2140.0
28.44,2136.0
28.441,2140.0
28.442,2127.0
28.443,2133.0
28.444,2113.0
28.445,2112.0
28.446,2114.0
28.447,2114.0
28.448,2111.0
28.449,2103.0
28.45,2107.0
28.451,2107.0
28.452,2102.0
28.453,2093.0
28.454,2092.0
28.455,2096.0
28.456,2097.0
28.457,2083.0
28.458,2089.0
28.459,2081.0
28.46,2067.0
28.461,2064.0
28.462,2044.0
28.463,2074.0
28.464,2052.0
28.465,2063.0
28.466,2054.0
28.467,2065.0
28.468,2056.0
28.469,2055.0
28.47,2060.0
28.471,2046.0
28.472,2047.0
28.473,2043.0
28.474,2045.0
28.475,2040.0
28.476,2033.0
28.477,2036.0
28.478,2040.0
28.479,2035.0
28.48,2034.0
28.481,2038.0
28.482,2037.0
28.483,2038.0
28.484,2034.0
28.485,2022.0
28.486,2029.0
28.487,2025.0
28.488,2026.0
28.489,2030.0
28.49,2046.0
28.491,2035.0
28.492,2028.0
28.493,2021.0
28.494,2033.0
28.495,2034.0
28.496,2019.0
28.497,2027.0
28.498,2036.0
28.499,2036.0
28.5,2024.0
28.501,2053.0
28.502,2025.0
28.503,2025.0
28.504,2025.0
28.505,2035.0
28.506,2022.0
28.507,2038.0
28.508,2023.0
28.509,2027.0
28.51,2031.0
28.511,2077.0
28.512,2028.0
28.513,2025.0
28.514,2037.0
28.515,2029.0
28.516,2025.0
28.517,2042.0
28.518,2038.0
28.519,2027.0
28.52,2020.0
28.521,2022.0
28.522,2026.0
28.523,2023.0
28.524,2024.0
28.525,2032.0
28.526,2027.0
28.527,2023.0
28.528,2023.0
28.529,2025.0
28.53,2020.0
28.531,2027.0
28.532,2023.0
28.533,2024.0
28.534,2024.0
28.535,2025.0
28.536,2024.0
28.537,2024.0
28.538,2026.0
28.539,2014.0
28.54,2022.0
28.541,2021.0
28.542,2020.0
28.543,2020.0
28.544,2021.0
28.545,2024.0
28.546,2024.0
28.547,2013.0
28.548,2014.0
28.549,2018.0
28.55,2011.0
28.551,2006.0
28.552,1992.0
28.553,1985.0
28.554,1986.0
28.555,1984.0
28.556,1985.0
28.557,1997.0
28.558,1997.0
28.559,1997.0
28.56,2002.0
28.561,2001.0
28.562,2010.0
28.563,2007.0
28.564,2007.0
28.565,2009.0
28.566,2004.0
28.567,2011.0
28.568,2013.0
28.569,2021.0
28.57,2020.0
28.571,2019.0
28.572,2037.0
28.573,2037.0
28.574,2029.0
28.575,2036.0
28.576,2035.0
28.577,2034.0
28.578,2032.0
28.579,2028.0
28.58,2027.0
28.581,2015.0
28.582,2024.0
28.583,2026.0
28.584,2029.0
28.585,2024.0
28.586,2031.0
28.587,2031.0
28.588,2034.0
28.589,2034.0
28.59,2039.0
28.591,2030.0
28.592,2020.0
28.593,2020.0
28.594,2029.0
28.595,2030.0
28.596,2018.0
28.597,2019.0
28.598,2012.0
28.599,2017.0
28.6,2009.0
28.601,2007.0
28.602,2012.0
28.603,2021.0
28.604,2011.0
28.605,1988.0
28.606,1926.0
28.607,1858.0
28.608,1764.0
28.609,1695.0
28.61,1739.0
28.611,1908.0
28.612,2142.0
28.613,2378.0
28.614,2481.0
28.615,2542.0
28.616,2592.0
28.617,2618.0
28.618,2603.0
28.619,2605.0
28.62,2558.0
28.621,2484.0
28.622,2385.0
28.623,2332.0
28.624,2264.0
28.625,2206.0
28.626,2152.0
28.627,2107.0
28.628,2062.0
28.629,1997.0
28.63,1931.0
28.631,1876.0
28.632,1830.0
28.633,1806.0
28.634,1795.0
28.635,1799.0
28.636,1790.0
28.637,1797.0
28.638,1800.0
28.639,1801.0
28.64,1801.0
28.641,1810.0
28.642,1815.0
28.643,1822.0
28.644,1820.0
28.645,1819.0
28.646,1830.0
28.647,1825.0
28.648,1832.0
28.649,1840.0
28.65,1847.0
28.651,1850.0
28.652,1846.0
28.653,1850.0
28.654,1861.0
28.655,1855.0
28.656,1854.0
28.657,1860.0
28.658,1864.0
28.659,1877.0
28.66,1870.0
28.661,1874.0
28.662,1881.0
28.663,1885.0
28.664,1878.0
28.665,1885.0
28.666,1879.0
28.667,1880.0
28.668,1875.0
28.669,1882.0
28.67,1883.0
28.671,1880.0
28.672,1879.0
28.673,1879.0
28.674,1884.0
28.675,1878.0
28.676,1878.0
28.677,1883.0
28.678,1882.0
28.679,1876.0
28.68,1871.0
28.681,1873.0
28.682,1885.0
28.683,1883.0
28.684,1888.0
28.685,1889.0
28.686,1897.0
28.687,1894.0
28.688,1907.0
28.689,1923.0
28.69,1910.0
28.691,1925.0
28.692,1920.0
28.693,1934.0
28.694,1947.0
28.695,1985.0
28.696,1966.0
28.697,1969.0
28.698,1989.0
28.699,2004.0
28.7,2009.0
28.701,2026.0
28.702,2029.0
28.703,2035.0
28.704,2052.0
28.705,2062.0
28.706,2070.0
28.707,2083.0
28.708,2088.0
28.709,2087.0
28.71,2097.0
28.711,2098.0
28.712,2107.0
28.713,2120.0
28.714,2117.0
28.715,2141.0
28.716,2130.0
28.717,2125.0
28.718,2122.0
28.719,2126.0
28.72,2128.0
28.721,2122.0
28.722,2136.0
28.723,2157.0
28.724,2138.0
28.725,2130.0
28.726,2123.0
28.727,2128.0
28.728,2137.0
28.729,2133.0
28.73,2132.0
28.731,2128.0
28.732,2119.0
28.733,2118.0
28.734,2124.0
28.735,2121.0
28.736,2121.0
28.737,2125.0
28.738,2123.0
28.739,2115.0
28.74,2103.0
28.741,2094.0
28.742,2094.0
28.743,2099.0
28.744,2101.0
28.745,2091.0
28.746,2094.0
28.747,2098.0
28.748,2093.0
28.749,2091.0
28.75,2093.0
28.751,2087.0
28.752,2085.0
28.753,2065.0
28.754,2069.0
28.755,2080.0
28.756,2071.0
28.757,2062.0
28.758,2068.0
28.759,2071.0
28.76,2064.0
28.761,2066.0
28.762,2062.0
28.763,2078.0
28.764,2063.0
28.765,2045.0
28.766,2049.0
28.767,2061.0
28.768,2060.0
28.769,2061.0
28.77,2054.0
28.771,2064.0
28.772,2050.0
28.773,2051.0
28.774,2050.0
28.775,2055.0
28.776,2062.0
28.777,2050.0
28.778,2041.0
28.779,2050.0
28.78,2048.0
28.781,2044.0
28.782,2045.0
28.783,2045.0
28.784,2049.0
28.785,2052.0
28.786,2055.0
28.787,2052.0
28.788,2057.0
28.789,2056.0
28.79,2049.0
28.791,2056.0
28.792,2057.0
28.793,2051.0
28.794,2054.0
28.795,2046.0
28.796,2040.0
28.797,2044.0
28.798,2048.0
28.799,2049.0
28.8,2047.0
28.801,2051.0
28.802,2050.0
28.803,2057.0
28.804,2058.0
28.805,2057.0
28.806,2058.0
28.807,2047.0
28.808,2045.0
28.809,2054.0
28.81,2058.0
28.811,2056.0
28.812,2042.0
28.813,2047.0
28.814,2059.0
28.815,2063.0
28.816,2047.0
28.817,2049.0
28.818,2048.0
28.819,2051.0
28.82,2043.0
28.821,2048.0
28.822,2053.0
28.823,2056.0
28.824,2049.0
28.825,2046.0
28.826,2044.0
28.827,2044.0
28.828,2036.0
28.829,2039.0
28.83,2040.0
28.831,2042.0
28.832,2047.0
28.833,2041.0
28.834,2040.0
28.835,2042.0
28.836,2037.0
28.837,2041.0
28.838,2036.0
28.839,2034.0
28.84,2046.0
28.841,2039.0
28.842,2034.0
28.843,2033.0
28.844,2036.0
28.845,2037.0
28.846,2038.0
28.847,2037.0
28.848,2024.0
28.849,2023.0
28.85,2006.0
28.851,1994.0
28.852,2006.0
28.853,2004.0
28.854,2024.0
28.855,2017.0
28.856,2024.0
28.857,2018.0
28.858,2019.0
28.859,2028.0
28.86,2028.0
28.861,2029.0
28.862,2031.0
28.863,2028.0
28.864,2036.0
28.865,2047.0
28.866,2053.0
28.867,2047.0
28.868,2055.0
28.869,2047.0
28.87,2058.0
28.871,2069.0
28.872,2067.0
28.873,2049.0
28.874,2058.0
28.875,2070.0
28.876,2066.0
28.877,2052.0
28.878,2062.0
28.879,2064.0
28.88,2068.0
28.881,2059.0
28.882,2067.0
28.883,2063.0
28.884,2082.0
28.885,2065.0
28.886,2067.0
28.887,2077.0
28.888,2062.0
28.889,2055.0
28.89,2059.0
28.891,2061.0
28.892,2065.0
28.893,2062.0
28.894,2062.0
28.895,2052.0
28.896,2052.0
28.897,2038.0
28.898,2044.0
28.899,2066.0
28.9,2068.0
28.901,2059.0
28.902,2023.0
28.903,1958.0
28.904,1876.0
28.905,1806.0
28.906,1761.0
28.907,1853.0
28.908,2050.0
28.909,2256.0
28.91,2459.0
28.911,2539.0
28.912,2596.0
28.913,2640.0
28.914,2652.0
28.915,2654.0
28.916,2648.0
28.917,2592.0
28.918,2505.0
28.919,2427.0
28.92,2363.0
28.921,2299.0
28.922,2245.0
28.923,2191.0
28.924,2143.0
28.925,2089.0
28.926,2020.0
28.927,1950.0
28.928,1887.0
28.929,1857.0
28.93,1846.0
28.931,1848.0
28.932,1838.0
28.933,1841.0
28.934,1848.0
28.935,1848.0
28.936,1848.0
28.937,1851.0
28.938,1855.0
28.939,1859.0
28.94,1866.0
28.941,1859.0
28.942,1863.0
28.943,1871.0
28.944,1869.0
28.945,1875.0
28.946,1879.0
28.947,1881.0
28.948,1887.0
28.949,1893.0
28.95,1895.0
28.951,1889.0
28.952,1899.0
28.953,1903.0
28.954,1909.0
28.955,1911.0
28.956,1911.0
28.957,1909.0
28.958,1915.0
28.959,1918.0
28.96,1917.0
28.961,1912.0
28.962,1914.0
28.963,1921.0
28.964,1926.0
28.965,1927.0
28.966,1930.0
28.967,1922.0
28.968,1936.0
28.969,1928.0
28.97,1914.0
28.971,1924.0
28.972,1931.0
28.973,1918.0
28.974,1913.0
28.975,1914.0
28.976,1923.0
28.977,1923.0
28.978,1935.0
28.979,1920.0
28.98,1933.0
28.981,1928.0
28.982,1928.0
28.983,1938.0
28.984,1946.0
28.985,1946.0
28.986,1953.0
28.987,1966.0
28.988,1974.0
28.989,1985.0
28.99,1983.0
28.991,1995.0
28.992,2003.0
28.993,2015.0
28.994,2019.0
28.995,2029.0
28.996,2029.0
28.997,2040.0
28.998,2057.0
28.999,2085.0
29.0,2070.0
29.001,2087.0
29.002,2106.0
29.003,2120.0
29.004,2119.0
29.005,2113.0
29.006,2120.0
29.007,2135.0
29.008,2145.0
29.009,2149.0
29.01,2155.0
29.011,2153.0
29.012,2164.0
29.013,2158.0
29.014,2158.0
29.015,2164.0
29.016,2174.0
29.017,2172.0
29.018,2172.0
29.019,2178.0
29.02,2168.0
29.021,2162.0
29.022,2153.0
29.023,2161.0
29.024,2165.0
29.025,2163.0
29.026,2161.0
29.027,2161.0
29.028,2161.0
29.029,2152.0
29.03,2145.0
29.031,2144.0
29.032,2152.0
29.033,2139.0
29.034,2143.0
29.035,2145.0
29.036,2148.0
29.037,2130.0
29.038,2126.0
29.039,2133.0
29.04,2137.0
29.041,2128.0
29.042,2125.0
29.043,2135.0
29.044,2131.0
29.045,2121.0
29.046,2101.0
29.047,2109.0
29.048,2116.0
29.049,2108.0
29.05,2100.0
29.051,2107.0
29.052,2107.0
29.053,2104.0
29.054,2112.0
29.055,2109.0
29.056,2102.0
29.057,2092.0
29.058,2098.0
29.059,2090.0
29.06,2089.0
29.061,2089.0
29.062,2091.0
29.063,2080.0
29.064,2091.0
29.065,2081.0
29.066,2091.0
29.067,2096.0
29.068,2086.0
29.069,2083.0
29.07,2095.0
29.071,2082.0
29.072,2091.0
29.073,2078.0
29.074,2087.0
29.075,2092.0
29.076,2093.0
29.077,2082.0
29.078,2081.0
29.079,2086.0
29.08,2071.0
29.081,2079.0
29.082,2080.0
29.083,2085.0
29.084,2093.0
29.085,2078.0
29.086,2074.0
29.087,2083.0
29.088,2093.0
29.089,2093.0
29.09,2088.0
29.091,2085.0
29.092,2075.0
29.093,2067.0
29.094,2073.0
29.095,2087.0
29.096,2077.0
29.097,2078.0
29.098,2076.0
29.099,2077.0
29.1,2079.0
29.101,2086.0
29.102,2089.0
29.103,2096.0
29.104,2079.0
29.105,2077.0
29.106,2083.0
29.107,2079.0
29.108,2074.0
29.109,2078.0
29.11,2084.0
29.111,2068.0
29.112,2066.0
29.113,2073.0
29.114,2086.0
29.115,2074.0
29.116,2080.0
29.117,2076.0
29.118,2072.0
29.119,2087.0
29.12,2085.0
29.121,2087.0
29.122,2062.0
29.123,2064.0
29.124,2068.0
29.125,2068.0
29.126,2075.0
29.127,2082.0
29.128,2082.0
29.129,2073.0
29.13,2076.0
29.131,2070.0
29.132,2075.0
29.133,2060.0
29.134,2068.0
29.135,2074.0
29.136,2069.0
29.137,2049.0
29.138,2052.0
29.139,2049.0
29.14,2059.0
29.141,2066.0
29.142,2061.0
29.143,2048.0
29.144,2048.0
29.145,2040.0
29.146,2039.0
29.147,2037.0
29.148,2048.0
29.149,2048.0
29.15,2051.0
29.151,2051.0
29.152,2053.0
29.153,2062.0
29.154,2052.0
29.155,2050.0
29.156,2057.0
29.157,2058.0
29.158,2051.0
29.159,2058.0
29.16,2055.0
29.161,2058.0
29.162,2063.0
29.163,2051.0
29.164,2066.0
29.165,2061.0
29.166,2071.0
29.167,2078.0
29.168,2077.0
29.169,2072.0
29.17,2080.0
29.171,2074.0
29.172,2079.0
29.173,2074.0
29.174,2065.0
29.175,2072.0
29.176,2081.0
29.177,2072.0
29.178,2066.0
29.179,2066.0
29.18,2083.0
29.181,2072.0
29.182,2074.0
29.183,2071.0
29.184,2073.0
29.185,2069.0
29.186,2064.0
29.187,2069.0
29.188,2069.0
29.189,2066.0
29.19,2061.0
29.191,2054.0
29.192,2049.0
29.193,2041.0
29.194,2042.0
29.195,2035.0
29.196,2021.0
29.197,1962.0
29.198,1887.0
29.199,1806.0
29.2,1731.0
29.201,1735.0
29.202,1873.0
29.203,2081.0
29.204,2304.0
29.205,2424.0
29.206,2496.0
29.207,2557.0
29.208,2598.0
29.209,2576.0
29.21,2576.0
29.211,2551.0
29.212,2503.0
29.213,2405.0
29.214,2345.0
29.215,2295.0
29.216,2233.0
29.217,2190.0
29.218,2140.0
29.219,2107.0
29.22,2052.0
29.221,1995.0
29.222,1945.0
29.223,1908.0
29.224,1872.0
29.225,1856.0
29.226,1841.0
29.227,1852.0
29.228,1855.0
29.229,1848.0
29.23,1841.0
29.231,1852.0
29.232,1846.0
29.233,1821.0
29.234,1864.0
29.235,1869.0
29.236,1869.0
29.237,1866.0
29.238,1880.0
29.239,1872.0
29.24,1862.0
29.241,1862.0
29.242,1873.0
29.243,1881.0
29.244,1889.0
29.245,1895.0
29.246,1891.0
29.247,1891.0
29.248,1895.0
29.249,1895.0
29.25,1902.0
29.251,1900.0
29.252,1904.0
29.253,1908.0
29.254,1903.0
29.255,1901.0
29.256,1911.0
29.257,1915.0
29.258,1918.0
29.259,1905.0
29.26,1904.0
29.261,1910.0
29.262,1912.0
29.263,1903.0
29.264,1895.0
29.265,1898.0
29.266,1907.0
29.267,1918.0
29.268,1913.0
29.269,1898.0
29.27,1896.0
29.271,1896.0
29.272,1905.0
29.273,1915.0
29.274,1914.0
29.275,1925.0
29.276,1927.0
29.277,1917.0
29.278,1915.0
29.279,1928.0
29.28,1937.0
29.281,1943.0
29.282,1956.0
29.283,1959.0
29.284,1965.0
29.285,1981.0
29.286,1981.0
29.287,1984.0
29.288,2000.0
29.289,2006.0
29.29,2015.0
29.291,2024.0
29.292,2033.0
29.293,2037.0
29.294,2042.0
29.295,2047.0
29.296,2059.0
29.297,2071.0
29.298,2074.0
29.299,2078.0
29.3,2096.0
29.301,2102.0
29.302,2104.0
29.303,2110.0
29.304,2110.0
29.305,2114.0
29.306,2113.0
29.307,2128.0
29.308,2132.0
29.309,2130.0
29.31,2132.0
29.311,2140.0
29.312,2132.0
29.313,2133.0
29.314,2136.0
29.315,2142.0
29.316,2156.0
29.317,2140.0
29.318,2145.0
29.319,2138.0
29.32,2137.0
29.321,2131.0
29.322,2129.0
29.323,2137.0
29.324,2140.0
29.325,2140.0
29.326,2130.0
29.327,2126.0
29.328,2132.0
29.329,2130.0
29.33,2126.0
29.331,2127.0
29.332,2124.0
29.333,2122.0
29.334,2120.0
29.335,2124.0
29.336,2123.0
29.337,2114.0
29.338,2103.0
29.339,2114.0
29.34,2109.0
29.341,2103.0
29.342,2094.0
29.343,2099.0
29.344,2096.0
29.345,2102.0
29.346,2098.0
29.347,2080.0
29.348,2089.0
29.349,2095.0
29.35,2085.0
29.351,2081.0
29.352,2096.0
29.353,2086.0
29.354,2083.0
29.355,2081.0
29.356,2077.0
29.357,2079.0
29.358,2072.0
29.359,2078.0
29.36,2078.0
29.361,2074.0
29.362,2081.0
29.363,2073.0
29.364,2072.0
29.365,2071.0
29.366,2076.0
29.367,2079.0
29.368,2070.0
29.369,2076.0
29.37,2064.0
29.371,2057.0
29.372,2068.0
29.373,2069.0
29.374,2069.0
29.375,2072.0
29.376,2075.0
29.377,2059.0
29.378,2069.0
29.379,2063.0
29.38,2056.0
29.381,2063.0
29.382,2066.0
29.383,2064.0
29.384,2060.0
29.385,2061.0
29.386,2065.0
29.387,2060.0
29.388,2064.0
29.389,2063.0
29.39,2071.0
29.391,2080.0
29.392,2077.0
29.393,2070.0
29.394,2057.0
29.395,2057.0
29.396,2063.0
29.397,2068.0
29.398,2070.0
29.399,2065.0
29.4,2055.0
29.401,2068.0
29.402,2063.0
29.403,2065.0
29.404,2069.0
29.405,2072.0
29.406,2077.0
29.407,2070.0
29.408,2078.0
29.409,2077.0
29.41,2069.0
29.411,2062.0
29.412,2060.0
29.413,2068.0
29.414,2054.0
29.415,2055.0
29.416,2052.0
29.417,2053.0
29.418,2045.0
29.419,2034.0
29.42,2047.0
29.421,2057.0
29.422,2057.0
29.423,2047.0
29.424,2049.0
29.425,2040.0
29.426,2037.0
29.427,2036.0
29.428,2041.0
29.429,2046.0
29.43,2052.0
29.431,2057.0
29.432,2065.0
29.433,2058.0
29.434,2054.0
29.435,2062.0
29.436,2058.0
29.437,2058.0
29.438,2054.0
29.439,2018.0
29.44,2062.0
29.441,2066.0
29.442,2063.0
29.443,2078.0
29.444,2075.0
29.445,2063.0
29.446,2057.0
29.447,2057.0
29.448,2066.0
29.449,2079.0
29.45,2066.0
29.451,2074.0
29.452,2074.0
29.453,2076.0
29.454,2069.0
29.455,2060.0
29.456,2066.0
29.457,2060.0
29.458,2067.0
29.459,2055.0
29.46,2041.0
29.461,2061.0
29.462,2056.0
29.463,2054.0
29.464,2050.0
29.465,2059.0
29.466,2045.0
29.467,2037.0
29.468,2025.0
29.469,2023.0
29.47,2024.0
29.471,1986.0
29.472,1930.0
29.473,1868.0
29.474,1779.0
29.475,1699.0
29.476,1719.0
29.477,1862.0
29.478,2076.0
29.479,2275.0
29.48,2417.0
29.481,2497.0
29.482,2563.0
29.483,2608.0
29.484,2595.0
29.485,2596.0
29.486,2565.0
29.487,2507.0
29.488,2416.0
29.489,2325.0
29.49,2275.0
29.491,2250.0
29.492,2215.0
29.493,2175.0
29.494,2130.0
29.495,2078.0
29.496,2026.0
29.497,1956.0
29.498,1912.0
29.499,1886.0
29.5,1869.0
29.501,1862.0
29.502,1855.0
29.503,1860.0
29.504,1857.0
29.505,1855.0
29.506,1858.0
29.507,1864.0
29.508,1866.0
29.509,1868.0
29.51,1877.0
29.511,1877.0
29.512,1875.0
29.513,1873.0
29.514,1886.0
29.515,1894.0
29.516,1887.0
29.517,1892.0
29.518,1893.0
29.519,1886.0
29.52,1888.0
29.521,1890.0
29.522,1900.0
29.523,1911.0
29.524,1908.0
29.525,1908.0
29.526,1907.0
29.527,1912.0
29.528,1917.0
29.529,1915.0
29.53,1912.0
29.531,1906.0
29.532,1915.0
29.533,1924.0
29.534,1917.0
29.535,1919.0
29.536,1915.0
29.537,1908.0
29.538,1913.0
29.539,1914.0
29.54,1915.0
29.541,1922.0
29.542,1916.0
29.543,1900.0
29.544,1903.0
29.545,1903.0
29.546,1917.0
29.547,1926.0
29.548,1915.0
29.549,1925.0
29.55,1916.0
29.551,1895.0
29.552,1922.0
29.553,1936.0
29.554,1934.0
29.555,1941.0
29.556,1946.0
29.557,1950.0
29.558,1963.0
29.559,1968.0
29.56,1978.0
29.561,1982.0
29.562,1995.0
29.563,1998.0
29.564,2010.0
29.565,2027.0
29.566,2034.0
29.567,2040.0
29.568,2053.0
29.569,2065.0
29.57,2079.0
29.571,2079.0
29.572,2087.0
29.573,2095.0
29.574,2108.0
29.575,2110.0
29.576,2096.0
29.577,2105.0
29.578,2117.0
29.579,2118.0
29.58,2131.0
29.581,2139.0
29.582,2135.0
29.583,2122.0
29.584,2126.0
29.585,2140.0
29.586,2141.0
29.587,2136.0
29.588,2148.0
29.589,2155.0
29.59,2136.0
29.591,2138.0
29.592,2141.0
29.593,2147.0
29.594,2141.0
29.595,2133.0
29.596,2141.0
29.597,2143.0
29.598,2135.0
29.599,2114.0
29.6,2122.0
29.601,2129.0
29.602,2122.0
29.603,2124.0
29.604,2112.0
29.605,2118.0
29.606,2113.0
29.607,2107.0
29.608,2111.0
29.609,2115.0
29.61,2116.0
29.611,2115.0
29.612,2105.0
29.613,2101.0
29.614,2094.0
29.615,2091.0
29.616,2094.0
29.617,2103.0
29.618,2105.0
29.619,2093.0
29.62,2095.0
29.621,2092.0
29.622,2074.0
29.623,2077.0
29.624,2082.0
29.625,2092.0
29.626,2084.0
29.627,2057.0
29.628,2068.0
29.629,2079.0
29.63,2077.0
29.631,2074.0
29.632,2073.0
29.633,2070.0
29.634,2069.0
29.635,2070.0
29.636,2078.0
29.637,2079.0
29.638,2069.0
29.639,2064.0
29.64,2073.0
29.641,2077.0
29.642,2068.0
29.643,2071.0
29.644,2068.0
29.645,2064.0
29.646,2053.0
29.647,2060.0
29.648,2070.0
29.649,2085.0
29.65,2071.0
29.651,2057.0
29.652,2064.0
29.653,2067.0
29.654,2068.0
29.655,2070.0
29.656,2069.0
29.657,2062.0
29.658,2066.0
29.659,2071.0
29.66,2066.0
29.661,2068.0
29.662,2073.0
29.663,2080.0
29.664,2064.0
29.665,2059.0
29.666,2065.0
29.667,2071.0
29.668,2067.0
29.669,2069.0
29.67,2061.0
29.671,2065.0
29.672,2065.0
29.673,2055.0
29.674,2063.0
29.675,2055.0
29.676,2060.0
29.677,2066.0
29.678,2067.0
29.679,2065.0
29.68,2067.0
29.681,2061.0
29.682,2062.0
29.683,2057.0
29.684,2062.0
29.685,2055.0
29.686,2058.0
29.687,2066.0
29.688,2071.0
29.689,2057.0
29.69,2051.0
29.691,2042.0
29.692,2042.0
29.693,2039.0
29.694,2030.0
29.695,2037.0
29.696,2037.0
29.697,2048.0
29.698,2049.0
29.699,2042.0
29.7,2037.0
29.701,2041.0
29.702,2046.0
29.703,2043.0
29.704,2044.0
29.705,2062.0
29.706,2051.0
29.707,2050.0
29.708,2052.0
29.709,2059.0
29.71,2057.0
29.711,2069.0
29.712,2062.0
29.713,2073.0
29.714,2070.0
29.715,2068.0
29.716,2072.0
29.717,2075.0
29.718,2086.0
29.719,2080.0
29.72,2061.0
29.721,2086.0
29.722,2073.0
29.723,2059.0
29.724,2060.0
29.725,2076.0
29.726,2075.0
29.727,2068.0
29.728,2071.0
29.729,2078.0
29.73,2077.0
29.731,2072.0
29.732,2064.0
29.733,2070.0
29.734,2070.0
29.735,2069.0
29.736,2063.0
29.737,2061.0
29.738,2062.0
29.739,2048.0
29.74,2048.0
29.741,2060.0
29.742,2065.0
29.743,2063.0
29.744,2052.0
29.745,2031.0
29.746,1969.0
29.747,1904.0
29.748,1821.0
29.749,1769.0
29.75,1788.0
29.751,1938.0
29.752,2180.0
29.753,2407.0
29.754,2531.0
29.755,2567.0
29.756,2646.0
29.757,2681.0
29.758,2657.0
29.759,2639.0
29.76,2604.0
29.761,2530.0
29.762,2436.0
29.763,2387.0
29.764,2324.0
29.765,2275.0
29.766,2213.0
29.767,2149.0
29.768,2092.0
29.769,2012.0
29.77,1945.0
29.771,1892.0
29.772,1864.0
29.773,1837.0
29.774,1839.0
29.775,1836.0
29.776,1832.0
29.777,1816.0
29.778,1827.0
29.779,1838.0
29.78,1855.0
29.781,1856.0
29.782,1847.0
29.783,1846.0
29.784,1845.0
29.785,1860.0
29.786,1854.0
29.787,1868.0
29.788,1881.0
29.789,1878.0
29.79,1867.0
29.791,1865.0
29.792,1883.0
29.793,1883.0
29.794,1885.0
29.795,1896.0
29.796,1897.0
29.797,1889.0
29.798,1901.0
29.799,1896.0
29.8,1905.0
29.801,1900.0
29.802,1899.0
29.803,1904.0
29.804,1904.0
29.805,1896.0
29.806,1903.0
29.807,1897.0
29.808,1894.0
29.809,1903.0
29.81,1897.0
29.811,1907.0
29.812,1923.0
29.813,1917.0
29.814,1912.0
29.815,1893.0
29.816,1895.0
29.817,1890.0
29.818,1901.0
29.819,1909.0
29.82,1914.0
29.821,1915.0
29.822,1918.0
29.823,1909.0
29.824,1917.0
29.825,1919.0
29.826,1925.0
29.827,1928.0
29.828,1937.0
29.829,1931.0
29.83,1952.0
29.831,1957.0
29.832,1964.0
29.833,1970.0
29.834,1987.0
29.835,1995.0
29.836,2001.0
29.837,2015.0
29.838,2019.0
29.839,2036.0
29.84,2034.0
29.841,2044.0
29.842,2050.0
29.843,2066.0
29.844,2076.0
29.845,2093.0
29.846,2107.0
29.847,2103.0
29.848,2112.0
29.849,2117.0
29.85,2128.0
29.851,2141.0
29.852,2128.0
29.853,2144.0
29.854,2143.0
29.855,2134.0
29.856,2137.0
29.857,2158.0
29.858,2166.0
29.859,2160.0
29.86,2157.0
29.861,2177.0
29.862,2154.0
29.863,2153.0
29.864,2154.0
29.865,2147.0
29.866,2149.0
29.867,2159.0
29.868,2153.0
29.869,2150.0
29.87,2140.0
29.871,2132.0
29.872,2136.0
29.873,2143.0
29.874,2133.0
29.875,2140.0
29.876,2143.0
29.877,2148.0
29.878,2139.0
29.879,2129.0
29.88,2112.0
29.881,2109.0
29.882,2107.0
29.883,2116.0
29.884,2109.0
29.885,2099.0
29.886,2109.0
29.887,2100.0
29.888,2102.0
29.889,2104.0
29.89,2090.0
29.891,2080.0
29.892,2089.0
29.893,2094.0
29.894,2092.0
29.895,2092.0
29.896,2082.0
29.897,2074.0
29.898,2085.0
29.899,2079.0
29.9,2075.0
29.901,2074.0
29.902,2083.0
29.903,2076.0
29.904,2071.0
29.905,2067.0
29.906,2070.0
29.907,2066.0
29.908,2070.0
29.909,2075.0
29.91,2058.0
29.911,2057.0
29.912,2054.0
29.913,2067.0
29.914,2061.0
29.915,2057.0
29.916,2063.0
29.917,2073.0
29.918,2063.0
29.919,2052.0
29.92,2055.0
29.921,2053.0
29.922,2050.0
29.923,2067.0
29.924,2069.0
29.925,2062.0
29.926,2064.0
29.927,2062.0
29.928,2069.0
29.929,2064.0
29.93,2064.0
29.931,2065.0
29.932,2065.0
29.933,2064.0
29.934,2066.0
29.935,2062.0
29.936,2070.0
29.937,2076.0
29.938,2070.0
29.939,2064.0
29.94,2060.0
29.941,2056.0
29.942,2062.0
29.943,2062.0
29.944,2056.0
29.945,2068.0
29.946,2065.0
29.947,2068.0
29.948,2068.0
29.949,2070.0
29.95,2069.0
29.951,2070.0
29.952,2069.0
29.953,2068.0
29.954,2057.0
29.955,2065.0
29.956,2068.0
29.957,2057.0
29.958,2062.0
29.959,2069.0
29.96,2065.0
29.961,2069.0
29.962,2068.0
29.963,2070.0
29.964,2066.0
29.965,2064.0
29.966,2057.0
29.967,2060.0
29.968,2050.0
29.969,2051.0
29.97,2056.0
29.971,2031.0
29.972,2037.0
29.973,2031.0
29.974,2044.0
29.975,2018.0
29.976,2053.0
29.977,2061.0
29.978,2050.0
29.979,2035.0
29.98,2031.0
29.981,2040.0
29.982,2036.0
29.983,2041.0
29.984,2044.0
29.985,2046.0
29.986,2061.0
29.987,2064.0
29.988,2071.0
29.989,2064.0
29.99,2072.0
29.991,2085.0
29.992,2074.0
29.993,2078.0
29.994,2082.0
29.995,2076.0
29.996,2066.0
29.997,2079.0
29.998,2080.0
29.999,2084.0
30.0,2078.0
30.001,2071.0
30.002,2065.0
30.003,2072.0
30.004,2074.0
30.005,2085.0
30.006,2086.0
30.007,2075.0
30.008,2070.0
30.009,2076.0
30.01,2078.0
30.011,2078.0
30.012,2065.0
30.013,2076.0
30.014,2070.0
30.015,2077.0
30.016,2069.0
30.017,2071.0
30.018,2069.0
30.019,2053.0
30.02,2057.0
30.021,2065.0
30.022,2076.0
30.023,2070.0
30.024,2055.0
30.025,1998.0
30.026,1933.0
30.027,1848.0
30.028,1804.0
30.029,1797.0
30.03,1949.0
30.031,2177.0
30.032,2387.0
30.033,2523.0
30.034,2571.0
30.035,2625.0
30.036,2668.0
30.037,2657.0
30.038,2646.0
30.039,2615.0
30.04,2547.0
30.041,2462.0
30.042,2394.0
30.043,2329.0
30.044,2270.0
30.045,2209.0
30.046,2145.0
30.047,2101.0
30.048,2030.0
30.049,1963.0
30.05,1912.0
30.051,1883.0
30.052,1847.0
30.053,1842.0
30.054,1842.0
30.055,1842.0
30.056,1846.0
30.057,1850.0
30.058,1845.0
30.059,1855.0
30.06,1855.0
30.061,1856.0
30.062,1859.0
30.063,1864.0
30.064,1864.0
30.065,1875.0
30.066,1877.0
30.067,1882.0
30.068,1889.0
30.069,1898.0
30.07,1896.0
30.071,1903.0
30.072,1895.0
30.073,1899.0
30.074,1896.0
30.075,1892.0
30.076,1896.0
30.077,1904.0
30.078,1922.0
30.079,1927.0
30.08,1930.0
30.081,1919.0
30.082,1927.0
30.083,1920.0
30.084,1923.0
30.085,1933.0
30.086,1927.0
30.087,1928.0
30.088,1929.0
30.089,1921.0
30.09,1924.0
30.091,1926.0
30.092,1922.0
30.093,1926.0
30.094,1924.0
30.095,1933.0
30.096,1927.0
30.097,1922.0
30.098,1941.0
30.099,1937.0
30.1,1931.0
30.101,1925.0
30.102,1932.0
30.103,1937.0
30.104,1937.0
30.105,1941.0
30.106,1953.0
30.107,1964.0
30.108,1968.0
30.109,1972.0
30.11,1975.0
30.111,1975.0
30.112,1977.0
30.113,1991.0
30.114,2000.0
30.115,2010.0
30.116,2020.0
30.117,2032.0
30.118,2050.0
30.119,2064.0
30.12,2062.0
30.121,2070.0
30.122,2080.0
30.123,2096.0
30.124,2100.0
30.125,2107.0
30.126,2118.0
30.127,2128.0
30.128,2124.0
30.129,2136.0
30.13,2143.0
30.131,2148.0
30.132,2148.0
30.133,2158.0
30.134,2156.0
30.135,2151.0
30.136,2152.0
30.137,2158.0
30.138,2159.0
30.139,2163.0
30.14,2164.0
30.141,2169.0
30.142,2174.0
30.143,2169.0
30.144,2164.0
30.145,2169.0
30.146,2167.0
30.147,2156.0
30.148,2162.0
30.149,2165.0
30.15,2169.0
30.151,2161.0
30.152,2158.0
30.153,2150.0
30.154,2150.0
30.155,2152.0
30.156,2148.0
30.157,2158.0
30.158,2161.0
30.159,2148.0
30.16,2130.0
30.161,2138.0
30.162,2129.0
30.163,2127.0
30.164,2120.0
30.165,2137.0
30.166,2127.0
30.167,2127.0
30.168,2116.0
30.169,2118.0
30.17,2114.0
30.171,2114.0
30.172,2114.0
30.173,2116.0
30.174,2116.0
30.175,2110.0
30.176,2108.0
30.177,2114.0
30.178,2113.0
30.179,2108.0
30.18,2104.0
30.181,2111.0
30.182,2102.0
30.183,2090.0
30.184,2085.0
30.185,2089.0
30.186,2094.0
30.187,2094.0
30.188,2087.0
30.189,2089.0
30.19,2087.0
30.191,2084.0
30.192,2078.0
30.193,2087.0
30.194,2094.0
30.195,2087.0
30.196,2076.0
30.197,2084.0
30.198,2090.0
30.199,2084.0
30.2,2088.0
30.201,2083.0
30.202,2086.0
30.203,2086.0
30.204,2087.0
30.205,2089.0
30.206,2092.0
30.207,2097.0
30.208,2078.0
30.209,2084.0
30.21,2084.0
30.211,2076.0
30.212,2082.0
30.213,2084.0
30.214,2083.0
30.215,2067.0
30.216,2079.0
30.217,2068.0
30.218,2074.0
30.219,2086.0
30.22,2075.0
30.221,2089.0
30.222,2089.0
30.223,2089.0
30.224,2081.0
30.225,2087.0
30.226,2078.0
30.227,2084.0
30.228,2082.0
30.229,2069.0
30.23,2077.0
30.231,2077.0
30.232,2083.0
30.233,2078.0
30.234,2086.0
30.235,2080.0
30.236,2073.0
30.237,2078.0
30.238,2067.0
30.239,2081.0
30.24,2074.0
30.241,2074.0
30.242,2073.0
30.243,2074.0
30.244,2076.0
30.245,2069.0
30.246,2071.0
30.247,2073.0
30.248,2080.0
30.249,2074.0
30.25,2068.0
30.251,2069.0
30.252,2066.0
30.253,2054.0
30.254,2063.0
30.255,2058.0
30.256,2058.0
30.257,2062.0
30.258,2056.0
30.259,2047.0
30.26,2039.0
30.261,2049.0
30.262,2049.0
30.263,2057.0
30.264,2054.0
30.265,2052.0
30.266,2042.0
30.267,2040.0
30.268,2051.0
30.269,2054.0
30.27,2063.0
30.271,2075.0
30.272,2064.0
30.273,2065.0
30.274,2076.0
30.275,2037.0
30.276,2066.0
30.277,2056.0
30.278,2071.0
30.279,2079.0
30.28,2079.0
30.281,2084.0
30.282,2084.0
30.283,2074.0
30.284,2070.0
30.285,2069.0
30.286,2082.0
30.287,2087.0
30.288,2075.0
30.289,2075.0
30.29,2078.0
30.291,2077.0
30.292,2071.0
30.293,2072.0
30.294,2079.0
30.295,2081.0
30.296,2069.0
30.297,2072.0
30.298,2074.0
30.299,2077.0
30.3,2066.0
30.301,2071.0
30.302,2073.0
30.303,2069.0
30.304,2066.0
30.305,2055.0
30.306,2052.0
30.307,2050.0
30.308,2059.0
30.309,2065.0
30.31,2059.0
30.311,2035.0
30.312,1961.0
30.313,1887.0
30.314,1814.0
30.315,1755.0
30.316,1798.0
30.317,1982.0
30.318,2212.0
30.319,2432.0
30.32,2515.0
30.321,2573.0
30.322,2621.0
30.323,2635.0
30.324,2624.0
30.325,2627.0
30.326,2582.0
30.327,2509.0
30.328,2413.0
30.329,2345.0
30.33,2288.0
30.331,2235.0
30.332,2171.0
30.333,2126.0
30.334,2078.0
30.335,2030.0
30.336,1954.0
30.337,1900.0
30.338,1881.0
30.339,1862.0
30.34,1848.0
30.341,1842.0
30.342,1841.0
30.343,1845.0
30.344,1843.0
30.345,1852.0
30.346,1859.0
30.347,1863.0
30.348,1861.0
30.349,1860.0
30.35,1857.0
30.351,1868.0
30.352,1870.0
30.353,1869.0
30.354,1879.0
30.355,1874.0
30.356,1886.0
30.357,1888.0
30.358,1889.0
30.359,1896.0
30.36,1898.0
30.361,1907.0
30.362,1904.0
30.363,1906.0
30.364,1904.0
30.365,1901.0
30.366,1913.0
30.367,1920.0
30.368,1923.0
30.369,1915.0
30.37,1914.0
30.371,1912.0
30.372,1918.0
30.373,1908.0
30.374,1915.0
30.375,1920.0
30.376,1920.0
30.377,1931.0
30.378,1912.0
30.379,1925.0
30.38,1922.0
30.381,1928.0
30.382,1905.0
30.383,1920.0
30.384,1915.0
30.385,1923.0
30.386,1914.0
30.387,1944.0
30.388,1914.0
30.389,1925.0
30.39,1934.0
30.391,1942.0
30.392,1942.0
30.393,1934.0
30.394,1948.0
30.395,1958.0
30.396,1966.0
30.397,1972.0
30.398,1974.0
30.399,1969.0
30.4,1978.0
30.401,1987.0
30.402,2003.0
30.403,2008.0
30.404,2022.0
30.405,2028.0
30.406,2050.0
30.407,2057.0
30.408,2068.0
30.409,2070.0
30.41,2076.0
30.411,2085.0
30.412,2101.0
30.413,2112.0
30.414,2114.0
30.415,2115.0
30.416,2114.0
30.417,2116.0
30.418,2124.0
30.419,2134.0
30.42,2145.0
30.421,2140.0
30.422,2144.0
30.423,2156.0
30.424,2156.0
30.425,2137.0
30.426,2141.0
30.427,2146.0
30.428,2150.0
30.429,2139.0
30.43,2147.0
30.431,2160.0
30.432,2153.0
30.433,2152.0
30.434,2154.0
30.435,2148.0
30.436,2149.0
30.437,2141.0
30.438,2137.0
30.439,2146.0
30.44,2134.0
30.441,2132.0
30.442,2138.0
30.443,2131.0
30.444,2130.0
30.445,2130.0
30.446,2131.0
30.447,2129.0
30.448,2127.0
30.449,2125.0
30.45,2123.0
30.451,2116.0
30.452,2121.0
30.453,2117.0
30.454,2116.0
30.455,2105.0
30.456,2101.0
30.457,2097.0
30.458,2098.0
30.459,2113.0
30.46,2103.0
30.461,2091.0
30.462,2093.0
30.463,2095.0
30.464,2080.0
30.465,2084.0
30.466,2087.0
30.467,2082.0
30.468,2084.0
30.469,2083.0
30.47,2083.0
30.471,2090.0
30.472,2075.0
30.473,2080.0
30.474,2076.0
30.475,2069.0
30.476,2075.0
30.477,2081.0
30.478,2076.0
30.479,2079.0
30.48,2068.0
30.481,2068.0
30.482,2068.0
30.483,2074.0
30.484,2067.0
30.485,2074.0
30.486,2067.0
30.487,2069.0
30.488,2067.0
30.489,2062.0
30.49,2065.0
30.491,2069.0
30.492,2063.0
30.493,2070.0
30.494,2070.0
30.495,2073.0
30.496,2066.0
30.497,2067.0
30.498,2064.0
30.499,2068.0
30.5,2064.0
30.501,2053.0
30.502,2058.0
30.503,2060.0
30.504,2074.0
30.505,2080.0
30.506,2075.0
30.507,2072.0
30.508,2068.0
30.509,2068.0
30.51,2053.0
30.511,2062.0
30.512,2069.0
30.513,2076.0
30.514,2074.0
30.515,2071.0
30.516,2066.0
30.517,2059.0
30.518,2064.0
30.519,2070.0
30.52,2070.0
30.521,2063.0
30.522,2054.0
30.523,2064.0
30.524,2068.0
30.525,2061.0
30.526,2054.0
30.527,2055.0
30.528,2069.0
30.529,2064.0
30.53,2065.0
30.531,2070.0
30.532,2062.0
30.533,2045.0
30.534,2048.0
30.535,2052.0
30.536,2052.0
30.537,2051.0
30.538,2057.0
30.539,2053.0
30.54,2044.0
30.541,2030.0
30.542,2031.0
30.543,2045.0
30.544,2054.0
30.545,2040.0
30.546,2040.0
30.547,2043.0
30.548,2035.0
30.549,2034.0
30.55,2039.0
30.551,2048.0
30.552,2053.0
30.553,2044.0
30.554,2044.0
30.555,2046.0
30.556,2049.0
30.557,2056.0
30.558,2059.0
30.559,2054.0
30.56,2057.0
30.561,2059.0
30.562,2068.0
30.563,2072.0
30.564,2068.0
30.565,2063.0
30.566,2060.0
30.567,2064.0
30.568,2066.0
30.569,2059.0
30.57,2059.0
30.571,2065.0
30.572,2058.0
30.573,2054.0
30.574,2067.0
30.575,2069.0
30.576,2073.0
30.577,2069.0
30.578,2071.0
30.579,2079.0
30.58,2064.0
30.581,2059.0
30.582,2054.0
30.583,2049.0
30.584,2059.0
30.585,2052.0
30.586,2044.0
30.587,2050.0
30.588,2043.0
30.589,2031.0
30.59,2045.0
30.591,2042.0
30.592,2032.0
30.593,1990.0
30.594,1915.0
30.595,1855.0
30.596,1768.0
30.597,1697.0
30.598,1720.0
30.599,1866.0
30.6,2086.0
30.601,2275.0
30.602,2406.0
30.603,2480.0
30.604,2552.0
30.605,2584.0
30.606,2589.0
30.607,2578.0
30.608,2565.0
30.609,2491.0
30.61,2384.0
30.611,2306.0
30.612,2257.0
30.613,2237.0
30.614,2215.0
30.615,2174.0
30.616,2130.0
30.617,2074.0
30.618,2036.0
30.619,1974.0
30.62,1927.0
30.621,1892.0
30.622,1884.0
30.623,1870.0
30.624,1868.0
30.625,1865.0
30.626,1875.0
30.627,1873.0
30.628,1867.0
30.629,1862.0
30.63,1870.0
30.631,1879.0
30.632,1882.0
30.633,1881.0
30.634,1880.0
30.635,1888.0
30.636,1890.0
30.637,1896.0
30.638,1900.0
30.639,1901.0
30.64,1904.0
30.641,1902.0
30.642,1902.0
30.643,1909.0
30.644,1910.0
30.645,1921.0
30.646,1920.0
30.647,1921.0
30.648,1918.0
30.649,1921.0
30.65,1915.0
30.651,1913.0
30.652,1919.0
30.653,1925.0
30.654,1929.0
30.655,1932.0
30.656,1939.0
30.657,1926.0
30.658,1913.0
30.659,1915.0
30.66,1913.0
30.661,1922.0
30.662,1930.0
30.663,1931.0
30.664,1930.0
30.665,1921.0
30.666,1924.0
30.667,1931.0
30.668,1925.0
30.669,1921.0
30.67,1923.0
30.671,1936.0
30.672,1935.0
30.673,1944.0
30.674,1943.0
30.675,1963.0
30.676,1977.0
30.677,1963.0
30.678,1969.0
30.679,1980.0
30.68,1991.0
30.681,1986.0
30.682,1992.0
30.683,2007.0
30.684,2022.0
30.685,2026.0
30.686,2034.0
30.687,2051.0
30.688,2064.0
30.689,2063.0
30.69,2077.0
30.691,2090.0
30.692,2099.0
30.693,2098.0
30.694,2100.0
30.695,2086.0
30.696,2127.0
30.697,2124.0
30.698,2128.0
30.699,2118.0
30.7,2120.0
30.701,2135.0
30.702,2138.0
30.703,2144.0
30.704,2147.0
30.705,2145.0
30.706,2147.0
30.707,2153.0
30.708,2157.0
30.709,2148.0
30.71,2160.0
30.711,2166.0
30.712,2157.0
30.713,2153.0
30.714,2152.0
30.715,2156.0
30.716,2161.0
30.717,2160.0
30.718,2158.0
30.719,2163.0
30.72,2165.0
30.721,2147.0
30.722,2145.0
30.723,2143.0
30.724,2143.0
30.725,2147.0
30.726,2150.0
30.727,2142.0
30.728,2123.0
30.729,2125.0
30.73,2125.0
30.731,2128.0
30.732,2131.0
30.733,2126.0
30.734,2129.0
30.735,2122.0
30.736,2118.0
30.737,2100.0
30.738,2115.0
30.739,2108.0
30.74,2098.0
30.741,2110.0
30.742,2109.0
30.743,2099.0
30.744,2091.0
30.745,2093.0
30.746,2093.0
30.747,2099.0
30.748,2095.0
30.749,2089.0
30.75,2086.0
30.751,2087.0
30.752,2087.0
30.753,2082.0
30.754,2083.0
30.755,2081.0
30.756,2087.0
30.757,2083.0
30.758,2079.0
30.759,2075.0
30.76,2071.0
30.761,2072.0
30.762,2079.0
30.763,2083.0
30.764,2075.0
30.765,2076.0
30.766,2072.0
30.767,2079.0
30.768,2073.0
30.769,2074.0
30.77,2074.0
30.771,2077.0
30.772,2070.0
30.773,2073.0
30.774,2069.0
30.775,2069.0
30.776,2067.0
30.777,2076.0
30.778,2075.0
30.779,2078.0
30.78,2079.0
30.781,2079.0
30.782,2073.0
30.783,2074.0
30.784,2072.0
30.785,2076.0
30.786,2063.0
30.787,2073.0
30.788,2081.0
30.789,2078.0
30.79,2073.0
30.791,2070.0
30.792,2076.0
30.793,2078.0
30.794,2063.0
30.795,2066.0
30.796,2072.0
30.797,2035.0
30.798,2075.0
30.799,2064.0
30.8,2059.0
30.801,2068.0
30.802,2069.0
30.803,2079.0
30.804,2084.0
30.805,2076.0
30.806,2052.0
30.807,2060.0
30.808,2067.0
30.809,2057.0
30.81,2062.0
30.811,2064.0
30.812,2064.0
30.813,2063.0
30.814,2058.0
30.815,2061.0
30.816,2068.0
30.817,2064.0
30.818,2062.0
30.819,2061.0
30.82,2074.0
30.821,2064.0
30.822,2054.0
30.823,2062.0
30.824,2060.0
30.825,2057.0
30.826,2047.0
30.827,2057.0
30.828,2057.0
30.829,2045.0
30.83,2038.0
30.831,2041.0
30.832,2038.0
30.833,2039.0
30.834,2035.0
30.835,2055.0
30.836,2063.0
30.837,2030.0
30.838,2028.0
30.839,2031.0
30.84,2046.0
30.841,2037.0
30.842,2039.0
30.843,2054.0
30.844,2054.0
30.845,2050.0
30.846,2059.0
30.847,2060.0
30.848,2066.0
30.849,2071.0
30.85,2060.0
30.851,2055.0
30.852,2062.0
30.853,2072.0
30.854,2059.0
30.855,2069.0
30.856,2078.0
30.857,2076.0
30.858,2065.0
30.859,2069.0
30.86,2064.0
30.861,2059.0
30.862,2062.0
30.863,2073.0
30.864,2067.0
30.865,2051.0
30.866,2067.0
30.867,2070.0
30.868,2066.0
30.869,2063.0
30.87,2072.0
30.871,2067.0
30.872,2066.0
30.873,2063.0
30.874,2054.0
30.875,2057.0
30.876,2051.0
30.877,2052.0
30.878,2047.0
30.879,2054.0
30.88,2053.0
30.881,2052.0
30.882,2047.0
30.883,2032.0
30.884,1965.0
30.885,1894.0
30.886,1818.0
30.887,1758.0
30.888,1743.0
30.889,1865.0
30.89,2074.0
30.891,2290.0
30.892,2446.0
30.893,2513.0
30.894,2575.0
30.895,2610.0
30.896,2603.0
30.897,2606.0
30.898,2586.0
30.899,2531.0
30.9,2436.0
30.901,2345.0
30.902,2293.0
30.903,2257.0
30.904,2211.0
30.905,2161.0
30.906,2117.0
30.907,2070.0
30.908,2005.0
30.909,1928.0
30.91,1908.0
30.911,1885.0
30.912,1860.0
30.913,1857.0
30.914,1846.0
30.915,1833.0
30.916,1841.0
30.917,1854.0
30.918,1849.0
30.919,1855.0
30.92,1868.0
30.921,1877.0
30.922,1873.0
30.923,1873.0
30.924,1871.0
30.925,1880.0
30.926,1872.0
30.927,1875.0
30.928,1879.0
30.929,1884.0
30.93,1885.0
30.931,1895.0
30.932,1903.0
30.933,1910.0
30.934,1900.0
30.935,1893.0
30.936,1898.0
30.937,1900.0
30.938,1903.0
30.939,1913.0
30.94,1912.0
30.941,1909.0
30.942,1910.0
30.943,1918.0
30.944,1915.0
30.945,1920.0
30.946,1911.0
30.947,1901.0
30.948,1906.0
30.949,1911.0
30.95,1917.0
30.951,1913.0
30.952,1914.0
30.953,1913.0
30.954,1903.0
30.955,1910.0
30.956,1915.0
30.957,1914.0
30.958,1911.0
30.959,1919.0
30.96,1923.0
30.961,1923.0
30.962,1914.0
30.963,1912.0
30.964,1921.0
30.965,1929.0
30.966,1932.0
30.967,1939.0
30.968,1946.0
30.969,1954.0
30.97,1959.0
30.971,1976.0
30.972,1978.0
30.973,1983.0
30.974,1995.0
30.975,2011.0
30.976,2015.0
30.977,2022.0
30.978,2030.0
30.979,2055.0
30.98,2070.0
30.981,2078.0
30.982,2075.0
30.983,2092.0
30.984,2100.0
30.985,2103.0
30.986,2098.0
30.987,2111.0
30.988,2118.0
30.989,2134.0
30.99,2131.0
30.991,2138.0
30.992,2146.0
30.993,2110.0
30.994,2136.0
30.995,2145.0
30.996,2158.0
30.997,2158.0
30.998,2147.0
30.999,2155.0
31.0,2157.0
31.001,2153.0
31.002,2149.0
31.003,2154.0
31.004,2155.0
31.005,2150.0
31.006,2145.0
31.007,2155.0
31.008,2152.0
31.009,2145.0
31.01,2142.0
31.011,2144.0
31.012,2143.0
31.013,2140.0
31.014,2132.0
31.015,2131.0
31.016,2128.0
31.017,2134.0
31.018,2123.0
31.019,2129.0
31.02,2125.0
31.021,2116.0
31.022,2120.0
31.023,2117.0
31.024,2113.0
31.025,2109.0
31.026,2100.0
31.027,2102.0
31.028,2117.0
31.029,2108.0
31.03,2093.0
31.031,2096.0
31.032,2096.0
31.033,2093.0
31.034,2087.0
31.035,2090.0
31.036,2086.0
31.037,2083.0
31.038,2085.0
31.039,2087.0
31.04,2080.0
31.041,2075.0
31.042,2080.0
31.043,2072.0
31.044,2077.0
31.045,2076.0
31.046,2076.0
31.047,2066.0
31.048,2061.0
31.049,2066.0
31.05,2068.0
31.051,2067.0
31.052,2062.0
31.053,2070.0
31.054,2060.0
31.055,2065.0
31.056,2072.0
31.057,2068.0
31.058,2056.0
31.059,2060.0
31.06,2054.0
31.061,2064.0
31.062,2063.0
31.063,2063.0
31.064,2061.0
31.065,2059.0
31.066,2051.0
31.067,2061.0
31.068,2062.0
31.069,2064.0
31.07,2052.0
31.071,2056.0
31.072,2052.0
31.073,2062.0
31.074,2066.0
31.075,2062.0
31.076,2065.0
31.077,2060.0
31.078,2050.0
31.079,2052.0
31.08,2062.0
31.081,2068.0
31.082,2060.0
31.083,2052.0
31.084,2063.0
31.085,2056.0
31.086,2054.0
31.087,2059.0
31.088,2058.0
31.089,2064.0
31.09,2057.0
31.091,2049.0
31.092,2052.0
31.093,2052.0
31.094,2058.0
31.095,2053.0
31.096,2058.0
31.097,2053.0
31.098,2057.0
31.099,2052.0
31.1,2059.0
31.101,2053.0
31.102,2050.0
31.103,2050.0
31.104,2049.0
31.105,2050.0
31.106,2052.0
31.107,2010.0
31.108,2062.0
31.109,2052.0
31.11,2041.0
31.111,2037.0
31.112,2046.0
31.113,2052.0
31.114,2049.0
31.115,2062.0
31.116,2050.0
31.117,2046.0
31.118,2044.0
31.119,2052.0
31.12,2049.0
31.121,2044.0
31.122,2042.0
31.123,2045.0
31.124,2048.0
31.125,2031.0
31.126,2035.0
31.127,2041.0
31.128,2040.0
31.129,2045.0
31.13,2037.0
31.131,2039.0
31.132,2051.0
31.133,2052.0
31.134,2049.0
31.135,2047.0
31.136,2041.0
31.137,2039.0
31.138,2039.0
31.139,2040.0
31.14,2044.0
31.141,2037.0
31.142,2035.0
31.143,2027.0
31.144,2034.0
31.145,2040.0
31.146,2034.0
31.147,2037.0
31.148,2016.0
31.149,2002.0
31.15,2009.0
31.151,2014.0
31.152,2023.0
31.153,2029.0
31.154,2025.0
31.155,2019.0
31.156,2018.0
31.157,2016.0
31.158,2029.0
31.159,2030.0
31.16,2035.0
31.161,2041.0
31.162,2030.0
31.163,2025.0
31.164,2023.0
31.165,2033.0
31.166,2040.0
31.167,2047.0
31.168,2060.0
31.169,2067.0
31.17,2064.0
31.171,2050.0
31.172,2051.0
31.173,2058.0
31.174,2074.0
31.175,2070.0
31.176,2061.0
31.177,2043.0
31.178,2051.0
31.179,2046.0
31.18,2049.0
31.181,2054.0
31.182,2049.0
31.183,2049.0
31.184,2056.0
31.185,2067.0
31.186,2061.0
31.187,2064.0
31.188,2062.0
31.189,2062.0
31.19,2056.0
31.191,2046.0
31.192,2048.0
31.193,2053.0
31.194,2041.0
31.195,2037.0
31.196,2035.0
31.197,2042.0
31.198,2051.0
31.199,2052.0
31.2,2041.0
31.201,1996.0
31.202,1933.0
31.203,1842.0
31.204,1780.0
31.205,1775.0
31.206,1910.0
31.207,2128.0
31.208,2346.0
31.209,2512.0
31.21,2561.0
31.211,2601.0
31.212,2627.0
31.213,2622.0
31.214,2624.0
31.215,2616.0
31.216,2548.0
31.217,2450.0
31.218,2366.0
31.219,2302.0
31.22,2240.0
31.221,2195.0
31.222,2145.0
31.223,2110.0
31.224,2057.0
31.225,1974.0
31.226,1922.0
31.227,1862.0
31.228,1839.0
31.229,1829.0
31.23,1828.0
31.231,1838.0
31.232,1847.0
31.233,1848.0
31.234,1846.0
31.235,1849.0
31.236,1841.0
31.237,1849.0
31.238,1853.0
31.239,1855.0
31.24,1860.0
31.241,1870.0
31.242,1869.0
31.243,1860.0
31.244,1871.0
31.245,1878.0
31.246,1884.0
31.247,1881.0
31.248,1876.0
31.249,1891.0
31.25,1892.0
31.251,1894.0
31.252,1895.0
31.253,1904.0
31.254,1901.0
31.255,1900.0
31.256,1904.0
31.257,1904.0
31.258,1901.0
31.259,1911.0
31.26,1907.0
31.261,1910.0
31.262,1909.0
31.263,1912.0
31.264,1920.0
31.265,1918.0
31.266,1911.0
31.267,1906.0
31.268,1910.0
31.269,1904.0
31.27,1905.0
31.271,1906.0
31.272,1913.0
31.273,1902.0
31.274,1901.0
31.275,1909.0
31.276,1902.0
31.277,1900.0
31.278,1900.0
31.279,1908.0
31.28,1913.0
31.281,1926.0
31.282,1923.0
31.283,1925.0
31.284,1935.0
31.285,1938.0
31.286,1945.0
31.287,1956.0
31.288,1960.0
31.289,1976.0
31.29,1978.0
31.291,1986.0
31.292,1994.0
31.293,2008.0
31.294,2007.0
31.295,2019.0
31.296,2038.0
31.297,2051.0
31.298,2064.0
31.299,2074.0
31.3,2076.0
31.301,2087.0
31.302,2099.0
31.303,2104.0
31.304,2112.0
31.305,2134.0
31.306,2128.0
31.307,2137.0
31.308,2122.0
31.309,2141.0
31.31,2147.0
31.311,2141.0
31.312,2151.0
31.313,2161.0
31.314,2168.0
31.315,2150.0
31.316,2150.0
31.317,2156.0
31.318,2160.0
31.319,2162.0
31.32,2162.0
31.321,2161.0
31.322,2158.0
31.323,2157.0
31.324,2163.0
31.325,2153.0
31.326,2163.0
31.327,2144.0
31.328,2151.0
31.329,2141.0
31.33,2150.0
31.331,2150.0
31.332,2131.0
31.333,2130.0
31.334,2140.0
31.335,2141.0
31.336,2143.0
31.337,2140.0
31.338,2135.0
31.339,2123.0
31.34,2126.0
31.341,2124.0
31.342,2127.0
31.343,2122.0
31.344,2125.0
31.345,2129.0
31.346,2122.0
31.347,2116.0
31.348,2108.0
31.349,2109.0
31.35,2111.0
31.351,2102.0
31.352,2108.0
31.353,2112.0
31.354,2109.0
31.355,2092.0
31.356,2091.0
31.357,2101.0
31.358,2098.0
31.359,2090.0
31.36,2091.0
31.361,2082.0
31.362,2093.0
31.363,2089.0
31.364,2085.0
31.365,2091.0
31.366,2096.0
31.367,2085.0
31.368,2083.0
31.369,2055.0
31.37,2086.0
31.371,2074.0
31.372,2081.0
31.373,2095.0
31.374,2087.0
31.375,2070.0
31.376,2081.0
31.377,2083.0
31.378,2081.0
31.379,2082.0
31.38,2074.0
31.381,2082.0
31.382,2078.0
31.383,2066.0
31.384,2069.0
31.385,2080.0
31.386,2076.0
31.387,2070.0
31.388,2068.0
31.389,2075.0
31.39,2070.0
31.391,2067.0
31.392,2064.0
31.393,2079.0
31.394,2080.0
31.395,2070.0
31.396,2079.0
31.397,2075.0
31.398,2061.0
31.399,2062.0
31.4,2070.0
31.401,2065.0
31.402,2080.0
31.403,2067.0
31.404,2067.0
31.405,2075.0
31.406,2078.0
31.407,2066.0
31.408,2052.0
31.409,2066.0
31.41,2065.0
31.411,2050.0
31.412,2058.0
31.413,2067.0
31.414,2056.0
31.415,2056.0
31.416,2059.0
31.417,2057.0
31.418,2064.0
31.419,2059.0
31.42,2063.0
31.421,2060.0
31.422,2047.0
31.423,2049.0
31.424,2051.0
31.425,2056.0
31.426,2056.0
31.427,2052.0
31.428,2053.0
31.429,2057.0
31.43,2051.0
31.431,2049.0
31.432,2064.0
31.433,2058.0
31.434,2054.0
31.435,2051.0
31.436,2062.0
31.437,2062.0
31.438,2066.0
31.439,2054.0
31.44,2056.0
31.441,2058.0
31.442,2052.0
31.443,2058.0
31.444,2066.0
31.445,2059.0
31.446,2056.0
31.447,2054.0
31.448,2064.0
31.449,2067.0
31.45,2064.0
31.451,2087.0
31.452,2051.0
31.453,2039.0
31.454,2050.0
31.455,2052.0
31.456,2057.0
31.457,2053.0
31.458,2056.0
31.459,2037.0
31.46,2054.0
31.461,2057.0
31.462,2048.0
31.463,2057.0
31.464,2063.0
31.465,2060.0
31.466,2060.0
31.467,2049.0
31.468,2054.0
31.469,2052.0
31.47,2063.0
31.471,2051.0
31.472,2066.0
31.473,2054.0
31.474,2057.0
31.475,2056.0
31.476,2057.0
31.477,2041.0
31.478,2052.0
31.479,2054.0
31.48,2049.0
31.481,2046.0
31.482,2050.0
31.483,2035.0
31.484,2031.0
31.485,2024.0
31.486,2034.0
31.487,2036.0
31.488,2037.0
31.489,2042.0
31.49,2037.0
31.491,2035.0
31.492,2032.0
31.493,2041.0
31.494,2012.0
31.495,2053.0
31.496,2058.0
31.497,2050.0
31.498,2056.0
31.499,2057.0
31.5,2028.0
31.501,2058.0
31.502,2071.0
31.503,2062.0
31.504,2067.0
31.505,2070.0
31.506,2072.0
31.507,2062.0
31.508,2062.0
31.509,2063.0
31.51,2060.0
31.511,2059.0
31.512,2055.0
31.513,2057.0
31.514,2057.0
31.515,2062.0
31.516,2060.0
31.517,2067.0
31.518,2046.0
31.519,2059.0
31.52,2063.0
31.521,2070.0
31.522,2071.0
31.523,2069.0
31.524,2053.0
31.525,2052.0
31.526,2051.0
31.527,2057.0
31.528,2047.0
31.529,2053.0
31.53,2053.0
31.531,2052.0
31.532,2057.0
31.533,2051.0
31.534,2022.0
31.535,1956.0
31.536,1891.0
31.537,1813.0
31.538,1752.0
31.539,1766.0
31.54,1917.0
31.541,2139.0
31.542,2350.0
31.543,2476.0
31.544,2527.0
31.545,2567.0
31.546,2615.0
31.547,2597.0
31.548,2604.0
31.549,2574.0
31.55,2512.0
31.551,2403.0
31.552,2329.0
31.553,2282.0
31.554,2236.0
31.555,2188.0
31.556,2141.0
31.557,2113.0
31.558,2051.0
31.559,1998.0
31.56,1945.0
31.561,1913.0
31.562,1888.0
31.563,1865.0
31.564,1850.0
31.565,1850.0
31.566,1841.0
31.567,1847.0
31.568,1853.0
31.569,1854.0
31.57,1856.0
31.571,1865.0
31.572,1872.0
31.573,1871.0
31.574,1876.0
31.575,1872.0
31.576,1876.0
31.577,1883.0
31.578,1889.0
31.579,1892.0
31.58,1889.0
31.581,1893.0
31.582,1894.0
31.583,1899.0
31.584,1894.0
31.585,1893.0
31.586,1909.0
31.587,1905.0
31.588,1914.0
31.589,1915.0
31.59,1915.0
31.591,1914.0
31.592,1913.0
31.593,1904.0
31.594,1914.0
31.595,1910.0
31.596,1915.0
31.597,1914.0
31.598,1912.0
31.599,1913.0
31.6,1919.0
31.601,1921.0
31.602,1916.0
31.603,1907.0
31.604,1911.0
31.605,1904.0
31.606,1912.0
31.607,1910.0
31.608,1914.0
31.609,1904.0
31.61,1914.0
31.611,1918.0
31.612,1918.0
31.613,1922.0
31.614,1932.0
31.615,1934.0
31.616,1935.0
31.617,1938.0
31.618,1928.0
31.619,1935.0
31.62,1946.0
31.621,1955.0
31.622,1963.0
31.623,1968.0
31.624,1967.0
31.625,1986.0
31.626,1992.0
31.627,2002.0
31.628,2012.0
31.629,2024.0
31.63,2046.0
31.631,2058.0
31.632,2060.0
31.633,2075.0
31.634,2078.0
31.635,2084.0
31.636,2094.0
31.637,2104.0
31.638,2109.0
31.639,2113.0
31.64,2112.0
31.641,2119.0
31.642,2128.0
31.643,2141.0
31.644,2140.0
31.645,2145.0
31.646,2148.0
31.647,2141.0
31.648,2145.0
31.649,2147.0
31.65,2155.0
31.651,2154.0
31.652,2152.0
31.653,2146.0
31.654,2154.0
31.655,2146.0
31.656,2151.0
31.657,2157.0
31.658,2157.0
31.659,2145.0
31.66,2148.0
31.661,2152.0
31.662,2143.0
31.663,2136.0
31.664,2136.0
31.665,2131.0
31.666,2134.0
31.667,2138.0
31.668,2129.0
31.669,2125.0
31.67,2126.0
31.671,2120.0
31.672,2119.0
31.673,2118.0
31.674,2128.0
31.675,2122.0
31.676,2116.0
31.677,2118.0
31.678,2116.0
31.679,2113.0
31.68,2109.0
31.681,2108.0
31.682,2112.0
31.683,2109.0
31.684,2098.0
31.685,2092.0
31.686,2093.0
31.687,2084.0
31.688,2089.0
31.689,2089.0
31.69,2089.0
31.691,2087.0
31.692,2081.0
31.693,2091.0
31.694,2087.0
31.695,2074.0
31.696,2083.0
31.697,2087.0
31.698,2084.0
31.699,2075.0
31.7,2073.0
31.701,2073.0
31.702,2068.0
31.703,2065.0
31.704,2070.0
31.705,2073.0
31.706,2067.0
31.707,2063.0
31.708,2060.0
31.709,2056.0
31.71,2061.0
31.711,2066.0
31.712,2058.0
31.713,2050.0
31.714,2054.0
31.715,2061.0
31.716,2065.0
31.717,2058.0
31.718,2061.0
31.719,2062.0
31.72,2062.0
31.721,2070.0
31.722,2073.0
31.723,2075.0
31.724,2065.0
31.725,2056.0
31.726,2054.0
31.727,2066.0
31.728,2071.0
31.729,2065.0
31.73,2065.0
31.731,2061.0
31.732,2057.0
31.733,2058.0
31.734,2054.0
31.735,2061.0
31.736,2067.0
31.737,2073.0
31.738,2067.0
31.739,2077.0
31.74,2071.0
31.741,2055.0
31.742,2052.0
31.743,2055.0
31.744,2061.0
31.745,2055.0
31.746,2055.0
31.747,2067.0
31.748,2061.0
31.749,2060.0
31.75,2060.0
31.751,2058.0
31.752,2065.0
31.753,2063.0
31.754,2057.0
31.755,2061.0
31.756,2054.0
31.757,2060.0
31.758,2066.0
31.759,2068.0
31.76,2063.0
31.761,2064.0
31.762,2070.0
31.763,2062.0
31.764,2058.0
31.765,2048.0
31.766,2054.0
31.767,2056.0
31.768,2060.0
31.769,2059.0
31.77,2062.0
31.771,2044.0
31.772,2056.0
31.773,2047.0
31.774,2061.0
31.775,2075.0
31.776,2053.0
31.777,2050.0
31.778,2050.0
31.779,2055.0
31.78,2054.0
31.781,2056.0
31.782,2058.0
31.783,2055.0
31.784,2054.0
31.785,2060.0
31.786,2060.0
31.787,2064.0
31.788,2049.0
31.789,2053.0
31.79,2055.0
31.791,2062.0
31.792,2061.0
31.793,2049.0
31.794,2049.0
31.795,2057.0
31.796,2041.0
31.797,2039.0
31.798,2034.0
31.799,2034.0
31.8,2041.0
31.801,2042.0
31.802,2065.0
31.803,2051.0
31.804,2039.0
31.805,2038.0
31.806,2050.0
31.807,2052.0
31.808,2041.0
31.809,2046.0
31.81,2063.0
31.811,2055.0
31.812,2044.0
31.813,2051.0
31.814,2059.0
31.815,2074.0
31.816,2073.0
31.817,2068.0
31.818,2081.0
31.819,2071.0
31.82,2077.0
31.821,2074.0
31.822,2076.0
31.823,2083.0
31.824,2079.0
31.825,2082.0
31.826,2080.0
31.827,2071.0
31.828,2076.0
31.829,2073.0
31.83,2085.0
31.831,2089.0
31.832,2083.0
31.833,2083.0
31.834,2086.0
31.835,2085.0
31.836,2076.0
31.837,2073.0
31.838,2083.0
31.839,2080.0
31.84,2081.0
31.841,2078.0
31.842,2065.0
31.843,2072.0
31.844,2061.0
31.845,2058.0
31.846,2067.0
31.847,2065.0
31.848,2064.0
31.849,2058.0
31.85,2021.0
31.851,1951.0
31.852,1886.0
31.853,1793.0
31.854,1717.0
31.855,1760.0
31.856,1928.0
31.857,2149.0
31.858,2347.0
31.859,2456.0
31.86,2534.0
31.861,2568.0
31.862,2599.0
31.863,2590.0
31.864,2587.0
31.865,2576.0
31.866,2527.0
31.867,2409.0
31.868,2359.0
31.869,2311.0
31.87,2273.0
31.871,2227.0
31.872,2169.0
31.873,2133.0
31.874,2090.0
31.875,2035.0
31.876,1964.0
31.877,1931.0
31.878,1903.0
31.879,1895.0
31.88,1879.0
31.881,1853.0
31.882,1864.0
31.883,1875.0
31.884,1874.0
31.885,1876.0
31.886,1871.0
31.887,1882.0
31.888,1883.0
31.889,1887.0
31.89,1890.0
31.891,1895.0
31.892,1894.0
31.893,1889.0
31.894,1900.0
31.895,1907.0
31.896,1898.0
31.897,1898.0
31.898,1903.0
31.899,1904.0
31.9,1907.0
31.901,1914.0
31.902,1926.0
31.903,1933.0
31.904,1917.0
31.905,1913.0
31.906,1922.0
31.907,1928.0
31.908,1923.0
31.909,1914.0
31.91,1926.0
31.911,1919.0
31.912,1918.0
31.913,1923.0
31.914,1924.0
31.915,1924.0
31.916,1928.0
31.917,1920.0
31.918,1924.0
31.919,1925.0
31.92,1921.0
31.921,1916.0
31.922,1922.0
31.923,1922.0
31.924,1909.0
31.925,1905.0
31.926,1923.0
31.927,1922.0
31.928,1924.0
31.929,1925.0
31.93,1932.0
31.931,1934.0
31.932,1937.0
31.933,1949.0
31.934,1965.0
31.935,1957.0
31.936,1941.0
31.937,1953.0
31.938,1964.0
31.939,1982.0
31.94,1987.0
31.941,1999.0
31.942,2013.0
31.943,2031.0
31.944,2031.0
31.945,2043.0
31.946,2067.0
31.947,2072.0
31.948,2079.0
31.949,2084.0
31.95,2099.0
31.951,2107.0
31.952,2107.0
31.953,2114.0
31.954,2123.0
31.955,2132.0
31.956,2130.0
31.957,2131.0
31.958,2135.0
31.959,2141.0
31.96,2148.0
31.961,2156.0
31.962,2162.0
31.963,2167.0
31.964,2155.0
31.965,2162.0
31.966,2169.0
31.967,2165.0
31.968,2168.0
31.969,2163.0
31.97,2163.0
31.971,2161.0
31.972,2157.0
31.973,2155.0
31.974,2166.0
31.975,2158.0
31.976,2149.0
31.977,2150.0
31.978,2146.0
31.979,2154.0
31.98,2152.0
31.981,2160.0
31.982,2152.0
31.983,2145.0
31.984,2142.0
31.985,2135.0
31.986,2129.0
31.987,2132.0
31.988,2125.0
31.989,2128.0
31.99,2131.0
31.991,2126.0
31.992,2120.0
31.993,2118.0
31.994,2122.0
31.995,2116.0
31.996,2116.0
31.997,2120.0
31.998,2119.0
31.999,2113.0
32.0,2106.0
32.001,2101.0
32.002,2093.0
32.003,2093.0
32.004,2095.0
32.005,2092.0
32.006,2090.0
32.007,2088.0
32.008,2084.0
32.009,2087.0
32.01,2085.0
32.011,2080.0
32.012,2086.0
32.013,2082.0
32.014,2087.0
32.015,2082.0
32.016,2082.0
32.017,2081.0
32.018,2079.0
32.019,2079.0
32.02,2082.0
32.021,2075.0
32.022,2074.0
32.023,2073.0
32.024,2079.0
32.025,2074.0
32.026,2062.0
32.027,2073.0
32.028,2074.0
32.029,2070.0
32.03,2064.0
32.031,2078.0
32.032,2064.0
32.033,2077.0
32.034,2068.0
32.035,2072.0
32.036,2074.0
32.037,2071.0
32.038,2067.0
32.039,2068.0
32.04,2074.0
32.041,2075.0
32.042,2075.0
32.043,2079.0
32.044,2084.0
32.045,2071.0
32.046,2069.0
32.047,2066.0
32.048,2076.0
32.049,2083.0
32.05,2084.0
32.051,2068.0
32.052,2065.0
32.053,2061.0
32.054,2067.0
32.055,2068.0
32.056,2077.0
32.057,2068.0
32.058,2077.0
32.059,2085.0
32.06,2075.0
32.061,2060.0
32.062,2064.0
32.063,2069.0
32.064,2065.0
32.065,2064.0
32.066,2071.0
32.067,2075.0
32.068,2075.0
32.069,2064.0
32.07,2060.0
32.071,2072.0
32.072,2058.0
32.073,2049.0
32.074,2064.0
32.075,2069.0
32.076,2066.0
32.077,2065.0
32.078,2072.0
32.079,2073.0
32.08,2067.0
32.081,2069.0
32.082,2075.0
32.083,2074.0
32.084,2063.0
32.085,2053.0
32.086,2063.0
32.087,2063.0
32.088,2060.0
32.089,2051.0
32.09,2063.0
32.091,2075.0
32.092,2063.0
32.093,2041.0
32.094,2063.0
32.095,2060.0
32.096,2060.0
32.097,2059.0
32.098,2057.0
32.099,2061.0
32.1,2058.0
32.101,2054.0
32.102,2060.0
32.103,2064.0
32.104,2057.0
32.105,2062.0
32.106,2058.0
32.107,2056.0
32.108,2050.0
32.109,2052.0
32.11,2059.0
32.111,2064.0
32.112,2058.0
32.113,2053.0
32.114,2045.0
32.115,2052.0
32.116,2055.0
32.117,2051.0
32.118,2057.0
32.119,2058.0
32.12,2054.0
32.121,2046.0
32.122,2056.0
32.123,2044.0
32.124,2045.0
32.125,2047.0
32.126,2057.0
32.127,2057.0
32.128,2054.0
32.129,2055.0
32.13,2041.0
32.131,2033.0
32.132,2029.0
32.133,2032.0
32.134,2039.0
32.135,2047.0
32.136,2047.0
32.137,2040.0
32.138,2040.0
32.139,2041.0
32.14,2041.0
32.141,2046.0
32.142,2049.0
32.143,2055.0
32.144,2052.0
32.145,2047.0
32.146,2055.0
32.147,2049.0
32.148,2051.0
32.149,2067.0
32.15,2073.0
32.151,2083.0
32.152,2077.0
32.153,2072.0
32.154,2075.0
32.155,2083.0
32.156,2072.0
32.157,2070.0
32.158,2065.0
32.159,2066.0
32.16,2070.0
32.161,2065.0
32.162,2071.0
32.163,2067.0
32.164,2076.0
32.165,2077.0
32.166,2070.0
32.167,2069.0
32.168,2072.0
32.169,2075.0
32.17,2076.0
32.171,2070.0
32.172,2067.0
32.173,2063.0
32.174,2058.0
32.175,2071.0
32.176,2059.0
32.177,2042.0
32.178,2046.0
32.179,2055.0
32.18,2067.0
32.181,2058.0
32.182,2031.0
32.183,1980.0
32.184,1914.0
32.185,1805.0
32.186,1757.0
32.187,1805.0
32.188,1982.0
32.189,2202.0
32.19,2417.0
32.191,2546.0
32.192,2585.0
32.193,2598.0
32.194,2628.0
32.195,2618.0
32.196,2619.0
32.197,2589.0
32.198,2520.0
32.199,2427.0
32.2,2350.0
32.201,2282.0
32.202,2231.0
32.203,2190.0
32.204,2152.0
32.205,2101.0
32.206,2046.0
32.207,1979.0
32.208,1931.0
32.209,1882.0
32.21,1869.0
32.211,1862.0
32.212,1842.0
32.213,1842.0
32.214,1835.0
32.215,1853.0
32.216,1850.0
32.217,1851.0
32.218,1850.0
32.219,1862.0
32.22,1870.0
32.221,1863.0
32.222,1871.0
32.223,1881.0
32.224,1866.0
32.225,1867.0
32.226,1875.0
32.227,1890.0
32.228,1889.0
32.229,1895.0
32.23,1900.0
32.231,1907.0
32.232,1897.0
32.233,1903.0
32.234,1906.0
32.235,1912.0
32.236,1914.0
32.237,1910.0
32.238,1914.0
32.239,1917.0
32.24,1922.0
32.241,1917.0
32.242,1905.0
32.243,1921.0
32.244,1928.0
32.245,1926.0
32.246,1929.0
32.247,1925.0
32.248,1923.0
32.249,1924.0
32.25,1919.0
32.251,1914.0
32.252,1924.0
32.253,1920.0
32.254,1922.0
32.255,1917.0
32.256,1914.0
32.257,1919.0
32.258,1926.0
32.259,1930.0
32.26,1927.0
32.261,1922.0
32.262,1926.0
32.263,1924.0
32.264,1928.0
32.265,1939.0
32.266,1942.0
32.267,1954.0
32.268,1958.0
32.269,1964.0
32.27,1967.0
32.271,1980.0
32.272,1990.0
32.273,2001.0
32.274,2008.0
32.275,2024.0
32.276,2036.0
32.277,2044.0
32.278,2039.0
32.279,2064.0
32.28,2077.0
32.281,2082.0
32.282,2093.0
32.283,2117.0
32.284,2114.0
32.285,2132.0
32.286,2139.0
32.287,2153.0
32.288,2150.0
32.289,2134.0
32.29,2170.0
32.291,2162.0
32.292,2172.0
32.293,2164.0
32.294,2163.0
32.295,2170.0
32.296,2177.0
32.297,2175.0
32.298,2171.0
32.299,2170.0
32.3,2186.0
32.301,2174.0
32.302,2176.0
32.303,2179.0
32.304,2179.0
32.305,2171.0
32.306,2167.0
32.307,2172.0
32.308,2171.0
32.309,2167.0
32.31,2162.0
32.311,2160.0
32.312,2156.0
32.313,2152.0
32.314,2153.0
32.315,2155.0
32.316,2157.0
32.317,2154.0
32.318,2150.0
32.319,2146.0
32.32,2151.0
32.321,2145.0
32.322,2138.0
32.323,2142.0
32.324,2144.0
32.325,2139.0
32.326,2127.0
32.327,2128.0
32.328,2126.0
32.329,2124.0
32.33,2124.0
32.331,2125.0
32.332,2116.0
32.333,2109.0
32.334,2106.0
32.335,2106.0
32.336,2125.0
32.337,2112.0
32.338,2104.0
32.339,2098.0
32.34,2098.0
32.341,2093.0
32.342,2082.0
32.343,2082.0
32.344,2094.0
32.345,2094.0
32.346,2093.0
32.347,2090.0
32.348,2107.0
32.349,2096.0
32.35,2090.0
32.351,2087.0
32.352,2096.0
32.353,2087.0
32.354,2070.0
32.355,2071.0
32.356,2084.0
32.357,2081.0
32.358,2076.0
32.359,2080.0
32.36,2078.0
32.361,2073.0
32.362,2074.0
32.363,2078.0
32.364,2080.0
32.365,2076.0
32.366,2070.0
