-0.08
-0.08
-0.08
-0.08
-0.08
-0.08
-0.08
-0.08
-0.075
-0.075
-0.09
-0.065
-0.055
-0.05
-0.05
-0.065
-0.07
-0.075
-0.08
-0.08
-0.085
-0.085
-0.095
-0.075
-0.07
-0.065
-0.06
-0.07
-0.075
-0.075
-0.08
-0.075
-0.07
-0.06
-0.065
-0.055
-0.055
-0.05
-0.05
-0.05
-0.06
-0.065
-0.065
-0.08
-0.065
-0.065
-0.06
-0.055
-0.055
-0.05
-0.05
-0.065
-0.065
-0.06
-0.05
-0.05
-0.045
-0.045
-0.05
-0.05
-0.05
-0.045
-0.055
-0.05
-0.065
-0.08
-0.08
-0.065
-0.06
-0.055
-0.05
-0.05
-0.035
-0.02
-0.015
-0.02
-0.015
-0.01
0.005
0.015
0.025
0.035
0.06
0.075
0.09
0.115
0.135
0.13
0.125
0.105
0.095
0.105
0.095
0.1
0.105
0.105
0.085
0.07
0.045
0.01
-0.02
-0.05
-0.07
-0.09
-0.095
-0.08
-0.08
-0.075
-0.085
-0.09
-0.095
-0.11
-0.12
-0.125
-0.135
-0.135
-0.14
-0.125
-0.125
-0.115
-0.13
-0.12
-0.125
-0.14
-0.155
-0.135
-0.07
0.025
0.19
0.395
0.635
0.9
1.18
1.415
1.595
1.66
1.575
1.37
1.065
0.72
0.38
0.11
-0.09
-0.185
-0.23
-0.205
-0.165
-0.12
-0.11
-0.125
-0.14
-0.155
-0.17
-0.185
-0.19
-0.18
-0.175
-0.155
-0.18
-0.18
-0.18
-0.19
-0.205
-0.22
-0.215
-0.19
-0.17
-0.155
-0.15
-0.15
-0.17
-0.175
-0.165
-0.175
-0.19
-0.19
-0.185
-0.155
-0.14
-0.13
-0.13
-0.135
-0.135
-0.14
-0.14
-0.15
-0.155
-0.145
-0.15
-0.145
-0.12
-0.105
-0.095
-0.085
-0.08
-0.08
-0.08
-0.085
-0.08
-0.095
-0.075
-0.07
-0.065
-0.045
-0.025
-0.025
-0.02
-0.02
-0.03
-0.035
-0.03
-0.035
-0.035
-0.035
-0.035
-0.03
-0.025
-0.01
-0.01
-0.02
-0.035
-0.03
-0.025
-0.01
0
0.02
0.04
0.065
0.065
0.06
0.055
0.075
0.07
0.06
0.055
0.045
0.035
0.045
0.04
0.045
0.04
0.045
0.045
0.03
0.02
0.03
0.02
0.025
0.03
0.03
0.035
0.035
0.03
0.03
0.035
0.035
0.03
0.03
0.03
0.025
0.03
0.03
0.035
0.04
0.04
0.045
0.045
0.03
0.03
0.015
0.045
0.045
0.055
0.045
0.055
0.06
0.055
0.055
0.06
0.045
0.05
0.035
0.04
0.05
0.055
0.06
0.07
0.08
0.07
0.07
0.045
0.045
0.035
0.035
0.035
0.045
0.05
0.045
0.055
0.06
0.065
0.055
0.07
0.065
0.055
0.055
0.06
0.08
0.1
0.11
0.13
0.13
0.14
0.17
0.18
0.195
0.195
0.205
0.215
0.21
0.21
0.21
0.215
0.215
0.22
0.22
0.205
0.18
0.15
0.125
0.09
0.07
0.065
0.045
0.04
0.04
0.04
0.02
0.015
0.01
0.01
-0.01
-0.005
-0.01
-0.02
-0.02
-0.02
-0.01
-0.015
-0.01
-0.01
-0.02
-0.04
-0.035
-0.06
-0.065
-0.04
0.02
0.115
0.24
0.395
0.6
0.855
1.11
1.37
1.59
1.735
1.77
1.64
1.41
1.09
0.74
0.425
0.175
-0.01
-0.095
-0.11
-0.1
-0.06
-0.025
-0.01
-0.035
-0.055
-0.075
-0.11
-0.12
-0.125
-0.12
-0.12
-0.12
-0.14
-0.125
-0.125
-0.125
-0.12
-0.12
-0.115
-0.115
-0.11
-0.135
-0.135
-0.145
-0.14
-0.13
-0.12
-0.12
-0.12
-0.11
-0.105
-0.105
-0.115
-0.115
-0.125
-0.125
-0.115
-0.11
-0.1
-0.095
-0.085
-0.075
-0.07
-0.065
-0.08
-0.095
-0.095
-0.095
-0.09
-0.08
-0.08
-0.06
-0.06
-0.03
-0.03
-0.025
-0.035
-0.035
-0.055
-0.045
-0.05
-0.04
-0.03
-0.02
0
0.01
0.005
0.005
-0.015
-0.025
-0.025
-0.035
-0.025
-0.02
-0.03
-0.02
0
0.01
0.005
0
0.005
-0.005
0
0
0.015
0.015
0.02
0.04
0.06
0.07
0.07
0.07
0.05
0.035
0.025
0.02
0.03
0.015
0.015
0.02
0.03
0.035
0.035
0.04
0.045
0.025
0.025
0.015
0.01
0
-0.005
-0.005
-0.005
0.005
0.02
0.03
0.045
0.03
0.03
0.01
-0.005
-0.005
0.005
0.005
0.01
0.02
0.03
0.025
0.025
0.025
0.025
0.005
0.025
0.02
0.025
0.025
0.03
0.04
0.02
0.03
0.03
0.035
0.035
0.035
0.04
0.04
0.035
0.04
0.035
0.035
0.03
0.03
0.035
0.025
0.02
0.01
0.025
0.015
0.035
0.04
0.025
0.03
0.045
0.055
0.06
0.055
0.05
0.06
0.07
0.085
0.11
0.12
0.14
0.16
0.165
0.19
0.205
0.205
0.2
0.175
0.155
0.155
0.165
0.18
0.195
0.21
0.19
0.17
0.155
0.115
0.095
0.055
0.035
0.015
0.015
0.005
-0.005
0
-0.025
-0.035
-0.04
-0.04
-0.05
-0.065
-0.08
-0.09
-0.08
-0.075
-0.08
-0.065
-0.06
-0.07
-0.07
-0.07
-0.075
-0.105
-0.11
-0.11
-0.075
0.005
0.115
0.255
0.435
0.655
0.905
1.175
1.44
1.645
1.745
1.69
1.52
1.245
0.915
0.575
0.27
0.045
-0.09
-0.15
-0.155
-0.12
-0.095
-0.08
-0.085
-0.1
-0.12
-0.14
-0.16
-0.17
-0.18
-0.175
-0.165
-0.165
-0.185
-0.18
-0.175
-0.175
-0.17
-0.165
-0.175
-0.175
-0.185
-0.185
-0.185
-0.18
-0.18
-0.175
-0.16
-0.155
-0.16
-0.145
-0.15
-0.165
-0.16
-0.155
-0.175
-0.175
-0.165
-0.165
-0.16
-0.145
-0.125
-0.125
-0.125
-0.14
-0.135
-0.135
-0.135
-0.14
-0.14
-0.125
-0.11
-0.115
-0.1
-0.095
-0.095
-0.1
-0.09
-0.095
-0.09
-0.095
-0.1
-0.095
-0.08
-0.055
-0.04
-0.03
-0.025
-0.025
-0.035
-0.04
-0.05
-0.055
-0.07
-0.065
-0.05
-0.04
-0.025
-0.025
-0.005
-0.02
-0.01
-0.015
-0.015
-0.02
-0.015
-0.015
0
0.015
0.015
0.03
0.03
0.025
0.015
0.005
-0.005
-0.02
-0.03
-0.03
-0.02
-0.025
-0.015
-0.02
-0.015
-0.015
-0.02
-0.035
-0.045
-0.045
-0.06
-0.065
-0.06
-0.06
-0.045
-0.03
-0.02
-0.01
-0.015
-0.03
-0.035
-0.05
-0.05
-0.055
-0.045
-0.04
-0.03
-0.02
-0.015
-0.015
-0.015
-0.02
-0.035
-0.04
-0.045
-0.045
-0.035
-0.03
-0.02
-0.005
0.005
-0.005
0
-0.015
-0.03
-0.035
-0.035
-0.03
-0.05
-0.045
-0.055
-0.04
-0.035
-0.03
-0.03
-0.025
-0.03
-0.035
-0.035
-0.03
-0.015
-0.015
-0.005
0.02
0.04
0.045
0.05
0.045
0.045
0.05
0.065
0.085
0.095
0.105
0.125
0.13
0.145
0.125
0.11
0.12
0.115
0.12
0.12
0.105
0.09
0.07
0.035
0.025
0
-0.01
-0.02
-0.04
-0.06
-0.075
-0.09
-0.09
-0.095
-0.1
-0.105
-0.1
-0.1
-0.1
-0.1
-0.115
-0.12
-0.13
-0.13
-0.125
-0.115
-0.105
-0.11
-0.11
-0.13
-0.145
-0.13
-0.1
-0.04
0.055
0.18
0.36
0.575
0.835
1.115
1.375
1.585
1.69
1.68
1.525
1.255
0.95
0.63
0.32
0.085
-0.06
-0.135
-0.155
-0.145
-0.11
-0.085
-0.065
-0.085
-0.125
-0.165
-0.175
-0.195
-0.205
-0.195
-0.185
-0.18
-0.195
-0.18
-0.175
-0.185
-0.195
-0.2
-0.205
-0.205
-0.2
-0.195
-0.18
-0.19
-0.185
-0.18
-0.18
-0.18
-0.18
-0.185
-0.185
-0.19
-0.2
-0.18
-0.18
-0.18
-0.175
-0.17
-0.18
-0.175
-0.17
-0.17
-0.17
-0.175
-0.17
-0.145
-0.145
-0.15
-0.15
-0.145
-0.14
-0.135
-0.135
-0.125
-0.14
-0.12
-0.115
-0.11
-0.09
-0.085
-0.095
-0.095
-0.1
-0.09
-0.11
-0.09
-0.085
-0.08
-0.07
-0.075
-0.05
-0.055
-0.045
-0.05
-0.07
-0.075
-0.07
-0.08
-0.065
-0.07
-0.065
-0.045
-0.035
-0.04
-0.025
-0.025
-0.02
-0.025
-0.04
-0.045
-0.035
-0.03
-0.005
-0.01
0.01
0.01
0.015
0.02
0
-0.01
-0.01
-0.02
-0.025
-0.03
-0.035
-0.03
-0.01
0
-0.01
-0.01
-0.02
-0.03
-0.03
-0.04
-0.045
-0.035
-0.04
-0.035
-0.03
-0.015
-0.01
-0.01
-0.015
-0.01
-0.025
-0.035
-0.04
-0.045
-0.04
-0.04
-0.03
-0.015
-0.015
-0.025
-0.01
-0.02
-0.03
-0.02
-0.025
-0.025
-0.035
-0.035
-0.035
-0.01
-0.01
-0.01
-0.025
-0.03
-0.025
-0.03
-0.045
-0.025
-0.03
-0.03
-0.02
-0.03
-0.035
-0.045
-0.045
-0.05
-0.065
-0.05
-0.055
-0.025
-0.03
-0.015
0.005
0.005
0.01
0.015
0.015
0.02
0.03
0.04
0.06
0.075
0.11
0.145
0.145
0.15
0.145
0.12
0.105
0.1
0.095
0.095
0.095
0.075
0.085
0.075
0.05
0.015
0
-0.025
-0.05
-0.06
-0.07
-0.095
-0.1
-0.105
-0.1
-0.09
-0.085
-0.09
-0.095
-0.105
-0.12
-0.115
-0.125
-0.13
-0.14
-0.135
-0.125
-0.125
-0.125
-0.14
-0.145
-0.16
-0.17
-0.12
-0.06
0.03
0.145
0.31
0.52
0.775
1.05
1.315
1.525
1.645
1.65
1.505
1.26
0.955
0.63
0.335
0.1
-0.055
-0.14
-0.165
-0.15
-0.12
-0.09
-0.085
-0.09
-0.11
-0.155
-0.165
-0.185
-0.195
-0.2
-0.195
-0.19
-0.185
-0.195
-0.2
-0.2
-0.2
-0.195
-0.185
-0.185
-0.185
-0.19
-0.18
-0.175
-0.19
-0.205
-0.205
-0.2
-0.19
-0.185
-0.18
-0.165
-0.155
-0.155
-0.155
-0.145
-0.165
-0.165
-0.17
-0.18
-0.175
-0.17
-0.165
-0.165
-0.15
-0.145
-0.14
-0.125
-0.135
-0.13
-0.145
-0.15
-0.145
-0.16
-0.155
-0.14
-0.13
-0.11
-0.105
-0.105
-0.1
-0.09
-0.095
-0.1
-0.11
-0.11
-0.11
-0.09
-0.075
-0.07
-0.075
-0.07
-0.07
-0.065
-0.07
-0.07
-0.065
-0.07
-0.065
-0.065
-0.06
-0.045
-0.055
-0.06
-0.065
-0.065
-0.07
-0.055
-0.03
-0.015
-0.005
0.005
0.01
0.02
0.01
0.015
0.01
-0.01
-0.02
-0.035
-0.005
-0.005
0
0.005
0.01
0.01
0
0
-0.015
-0.025
-0.025
-0.03
-0.03
-0.03
-0.025
-0.025
-0.01
0.005
-0.005
0
-0.02
-0.03
-0.045
-0.045
-0.055
-0.04
-0.04
-0.025
-0.02
-0.01
0
0.01
-0.005
-0.015
-0.025
-0.02
-0.025
-0.03
-0.025
-0.02
-0.015
0
0
0
-0.005
0
-0.015
-0.015
-0.025
-0.02
-0.035
-0.03
-0.02
-0.015
-0.005
0
-0.01
-0.015
-0.02
-0.02
-0.02
-0.03
-0.03
-0.025
-0.02
-0.015
-0.02
-0.02
-0.015
-0.01
-0.02
-0.02
0
0.005
0.01
0.025
0.03
0.04
0.065
0.075
0.075
0.09
0.105
0.11
0.145
0.16
0.155
0.16
0.15
0.14
0.13
0.135
0.12
0.095
0.075
0.055
0.04
0.015
0.015
0
-0.015
-0.02
-0.045
-0.055
-0.075
-0.1
-0.115
-0.12
-0.115
-0.11
-0.09
-0.105
-0.095
-0.095
-0.105
-0.105
-0.11
-0.125
-0.125
-0.155
-0.16
-0.17
-0.155
-0.135
-0.08
0.015
0.155
0.345
0.585
0.85
1.105
1.355
1.55
1.62
1.55
1.33
1.005
0.64
0.305
0.03
-0.135
-0.215
-0.215
-0.195
-0.16
-0.12
-0.105
-0.11
-0.135
-0.135
-0.165
-0.175
-0.185
-0.2
-0.21
-0.23
-0.225
-0.225
-0.215
-0.205
-0.195
-0.18
-0.18
-0.185
-0.19
-0.2
-0.2
-0.21
-0.21
-0.22
-0.21
-0.21
-0.185
-0.17
-0.17
-0.175
-0.19
-0.185
-0.2
-0.205
-0.2
-0.19
-0.2
-0.185
-0.175
-0.155
-0.165
-0.15
-0.15
-0.145
-0.16
-0.155
-0.175
-0.18
-0.165
-0.145
-0.145
-0.13
-0.115
-0.12
-0.11
-0.115
-0.12
-0.11
-0.12
-0.12
-0.115
-0.115
-0.11
-0.105
-0.095
-0.1
-0.085
-0.085
-0.085
-0.1
-0.115
-0.115
-0.11
-0.105
-0.095
-0.08
-0.085
-0.08
-0.075
-0.07
-0.06
-0.06
-0.045
-0.04
-0.025
-0.02
-0.03
-0.025
-0.025
-0.025
-0.04
-0.045
-0.04
-0.045
-0.045
-0.05
-0.05
-0.055
-0.04
-0.04
-0.045
-0.05
-0.065
-0.085
-0.09
-0.09
-0.09
-0.085
-0.08
-0.075
-0.065
-0.05
-0.04
-0.045
-0.055
-0.06
-0.085
-0.08
-0.085
-0.08
-0.09
-0.065
-0.075
-0.045
-0.035
-0.05
-0.065
-0.07
-0.075
-0.09
-0.085
-0.095
-0.085
-0.07
-0.065
-0.045
-0.05
-0.045
-0.045
-0.065
-0.075
-0.07
-0.065
-0.075
-0.075
-0.08
-0.06
-0.06
-0.065
-0.06
-0.07
-0.065
-0.075
-0.08
-0.08
-0.085
-0.08
-0.07
-0.07
-0.06
-0.04
-0.025
-0.02
-0.02
0
0
0.01
0.02
0.035
0.045
0.06
0.08
0.105
0.115
0.105
0.1
0.09
0.075
0.055
0.055
0.05
0.05
0.045
0.035
0.005
-0.015
-0.04
-0.055
-0.07
-0.09
-0.1
-0.11
-0.115
-0.12
-0.13
-0.13
-0.13
-0.14
-0.145
-0.155
-0.15
-0.155
-0.16
-0.16
-0.165
-0.165
-0.16
-0.175
-0.18
-0.195
-0.21
-0.215
-0.2
-0.14
-0.055
0.07
0.25
0.475
0.715
0.965
1.19
1.415
1.525
1.53
1.39
1.14
0.825
0.49
0.21
-0.01
-0.15
-0.225
-0.245
-0.215
-0.185
-0.155
-0.15
-0.16
-0.19
-0.2
-0.21
-0.205
-0.215
-0.205
-0.22
-0.225
-0.225
-0.225
-0.24
-0.25
-0.26
-0.24
-0.225
-0.22
-0.195
-0.195
-0.2
-0.21
-0.21
-0.22
-0.24
-0.25
-0.245
-0.23
-0.235
-0.235
-0.22
-0.2
-0.19
-0.19
-0.2
-0.195
-0.21
-0.215
-0.215
-0.22
-0.195
-0.185
-0.17
-0.155
-0.155
-0.145
-0.15
-0.15
-0.16
-0.165
-0.16
-0.16
-0.13
-0.125
-0.12
-0.11
-0.11
-0.1
-0.11
-0.125
-0.125
-0.135
-0.12
-0.11
-0.11
-0.11
-0.105
-0.105
-0.1
-0.105
-0.115
-0.115
-0.125
-0.11
-0.1
-0.09
-0.095
-0.07
-0.065
-0.045
-0.025
-0.025
-0.015
-0.025
-0.03
-0.045
-0.04
-0.04
-0.05
-0.04
-0.035
-0.02
-0.02
-0.03
-0.04
-0.07
-0.065
-0.075
-0.07
-0.07
-0.075
-0.08
-0.07
-0.055
-0.045
-0.04
-0.05
-0.05
-0.05
-0.05
-0.05
-0.055
-0.055
-0.05
-0.04
-0.035
-0.035
-0.035
-0.04
-0.055
-0.045
-0.04
-0.04
-0.045
-0.045
-0.035
-0.025
-0.02
-0.025
-0.03
-0.035
-0.035
-0.04
-0.045
-0.035
-0.04
-0.03
-0.02
-0.025
-0.025
-0.02
-0.025
-0.025
-0.03
-0.035
-0.035
-0.04
-0.045
-0.05
-0.05
-0.05
-0.04
-0.045
-0.04
-0.05
-0.035
-0.04
-0.03
-0.015
-0.005
0.01
0.02
0.025
0.045
0.04
0.045
0.055
0.075
0.07
0.11
0.12
0.13
0.13
0.135
0.14
0.13
0.115
0.115
0.105
0.09
0.065
0.035
0.02
-0.005
-0.005
-0.02
-0.02
-0.045
-0.055
-0.075
-0.09
-0.095
-0.11
-0.12
-0.13
-0.11
-0.1
-0.095
-0.095
-0.095
-0.1
-0.11
-0.135
-0.13
-0.14
-0.16
-0.175
-0.16
-0.125
-0.06
0.045
0.16
0.325
0.52
0.76
1.015
1.255
1.47
1.61
1.645
1.54
1.34
1.035
0.71
0.385
0.125
-0.065
-0.175
-0.215
-0.22
-0.175
-0.135
-0.115
-0.11
-0.11
-0.14
-0.165
-0.175
-0.19
-0.195
-0.205
-0.215
-0.225
-0.23
-0.215
-0.22
-0.21
-0.195
-0.2
-0.2
-0.195
-0.195
-0.205
-0.205
-0.215
-0.22
-0.205
-0.205
-0.215
-0.195
-0.205
-0.195
-0.2
-0.195
-0.2
-0.205
-0.2
-0.21
-0.205
-0.195
-0.185
-0.185
-0.195
-0.185
-0.185
-0.185
-0.19
-0.19
-0.2
-0.2
-0.17
-0.155
-0.16
-0.145
-0.14
-0.14
-0.135
-0.155
-0.165
-0.15
-0.15
-0.15
-0.14
-0.13
-0.12
-0.11
-0.11
-0.11
-0.12
-0.125
-0.125
-0.125
-0.125
-0.12
-0.115
-0.115
-0.105
-0.09
-0.095
-0.1
-0.12
-0.12
-0.13
-0.12
-0.12
-0.1
-0.095
-0.07
-0.055
-0.04
-0.05
-0.045
-0.05
-0.065
-0.07
-0.07
-0.08
-0.095
-0.09
-0.095
-0.08
-0.06
-0.06
-0.065
-0.075
-0.09
-0.095
-0.11
-0.11
-0.12
-0.12
-0.115
-0.115
-0.105
-0.105
-0.105
-0.105
-0.105
-0.12
-0.13
-0.12
-0.115
-0.12
-0.115
-0.125
-0.12
-0.1
-0.095
-0.095
-0.105
-0.095
-0.11
-0.12
-0.115
-0.115
-0.1
-0.11
-0.105
-0.1
-0.09
-0.095
-0.1
-0.115
-0.11
-0.115
-0.125
-0.125
-0.115
-0.125
-0.105
-0.11
-0.105
-0.11
-0.105
-0.11
-0.115
-0.105
-0.11
-0.105
-0.095
-0.105
-0.105
-0.115
-0.105
-0.12
-0.14
-0.135
-0.155
-0.135
-0.125
-0.085
-0.085
-0.065
-0.07
-0.07
-0.06
-0.06
-0.07
-0.06
-0.05
-0.045
-0.02
0.01
0.04
0.055
0.06
0.055
0.045
0.02
0.01
0.005
-0.01
-0.02
-0.025
-0.04
-0.05
-0.07
-0.075
-0.1
-0.105
-0.125
-0.14
-0.165
-0.195
-0.205
-0.23
-0.22
-0.225
-0.22
-0.21
-0.205
-0.215
-0.215
-0.215
-0.225
-0.24
-0.255
-0.255
-0.245
-0.255
-0.23
-0.24
-0.255
-0.265
-0.27
-0.275
-0.225
-0.16
-0.07
0.045
0.215
0.42
0.665
0.94
1.2
1.415
1.55
1.56
1.41
1.16
0.83
0.48
0.165
-0.06
-0.19
-0.25
-0.265
-0.245
-0.225
-0.22
-0.225
-0.24
-0.255
-0.285
-0.305
-0.32
-0.325
-0.315
-0.31
-0.31
-0.325
-0.335
-0.34
-0.35
-0.345
-0.35
-0.335
-0.33
-0.32
-0.31
-0.3
-0.31
-0.315
-0.33
-0.34
-0.33
-0.34
-0.34
-0.325
-0.32
-0.305
-0.3
-0.305
-0.305
-0.305
-0.315
-0.32
-0.33
-0.335
-0.32
-0.315
-0.305
-0.29
-0.275
-0.27
-0.265
-0.265
-0.275
-0.285
-0.3
-0.305
-0.29
-0.285
-0.265
-0.265
-0.25
-0.25
-0.25
-0.235
-0.25
-0.235
-0.25
-0.24
-0.245
-0.245
-0.22
-0.21
-0.21
-0.205
-0.21
-0.215
-0.215
-0.215
-0.21
-0.21
-0.225
-0.215
-0.22
-0.215
-0.2
-0.195
-0.19
-0.19
-0.195
-0.205
-0.175
-0.185
-0.175
-0.165
-0.165
-0.17
-0.15
-0.16
-0.15
-0.155
-0.165
-0.165
-0.17
-0.185
-0.18
-0.16
-0.15
-0.15
-0.155
-0.155
-0.17
-0.165
-0.175
-0.185
-0.19
-0.205
-0.195
-0.2
-0.19
-0.18
-0.16
-0.165
-0.165
-0.18
-0.19
-0.19
-0.19
-0.18
-0.185
-0.205
-0.185
-0.19
-0.175
-0.185
-0.18
-0.18
-0.18
-0.175
-0.19
-0.19
-0.2
-0.195
-0.185
-0.17
-0.175
-0.17
-0.165
-0.165
-0.175
-0.17
-0.18
-0.19
-0.18
-0.175
-0.19
-0.18
-0.18
-0.175
-0.175
-0.175
-0.18
-0.18
-0.175
-0.17
-0.175
-0.185
-0.185
-0.205
-0.185
-0.205
-0.2
-0.19
-0.18
-0.19
-0.18
-0.165
-0.16
-0.135
-0.13
-0.11
-0.105
-0.105
-0.085
-0.09
-0.09
-0.085
-0.08
-0.055
-0.025
-0.005
0.01
0
-0.01
-0.03
-0.04
-0.035
-0.045
-0.055
-0.075
-0.085
-0.105
-0.11
-0.13
-0.155
-0.165
-0.18
-0.195
-0.22
-0.23
-0.255
-0.27
-0.28
-0.275
-0.27
-0.26
-0.25
-0.25
-0.26
-0.26
-0.265
-0.285
-0.29
-0.29
-0.3
-0.305
-0.315
-0.33
-0.305
-0.285
-0.235
-0.15
-0.04
0.115
0.305
0.53
0.79
1.045
1.275
1.43
1.46
1.34
1.08
0.76
0.415
0.12
-0.12
-0.27
-0.335
-0.345
-0.32
-0.28
-0.255
-0.25
-0.265
-0.275
-0.305
-0.32
-0.355
-0.355
-0.37
-0.36
-0.345
-0.345
-0.36
-0.36
-0.35
-0.345
-0.36
-0.355
-0.365
-0.37
-0.37
-0.37
-0.365
-0.36
-0.355
-0.35
-0.345
-0.34
-0.33
-0.335
-0.34
-0.34
-0.355
-0.345
-0.335
-0.335
-0.35
-0.33
-0.33
-0.33
-0.32
-0.32
-0.335
-0.335
-0.325
-0.32
-0.315
-0.31
-0.3
-0.29
-0.295
-0.295
-0.29
-0.285
-0.285
-0.285
-0.29
-0.285
-0.265
-0.255
-0.245
-0.235
-0.235
-0.235
-0.24
-0.245
-0.24
-0.24
-0.235
-0.23
-0.225
-0.235
-0.22
-0.225
-0.23
-0.23
-0.22
-0.245
-0.235
-0.24
-0.225
-0.21
-0.2
-0.18
-0.17
-0.155
-0.14
-0.135
-0.15
-0.155
-0.165
-0.175
-0.18
-0.17
-0.17
-0.17
-0.16
-0.155
-0.16
-0.16
-0.165
-0.18
-0.195
-0.2
-0.21
-0.205
-0.21
-0.205
-0.2
-0.185
-0.185
-0.175
-0.18
-0.19
-0.2
-0.205
-0.23
-0.21
-0.21
-0.2
-0.2
-0.185
-0.18
-0.19
-0.17
-0.18
-0.185
-0.2
-0.205
-0.205
-0.195
-0.195
-0.19
-0.185
-0.185
-0.175
-0.165
-0.17
-0.17
-0.19
-0.195
-0.21
-0.2
-0.19
-0.19
-0.19
-0.18
-0.18
-0.19
-0.195
-0.19
-0.2
-0.205
-0.2
-0.2
-0.19
-0.18
-0.165
-0.185
-0.195
-0.185
-0.18
-0.175
-0.17
-0.165
-0.17
-0.165
-0.145
-0.12
-0.11
-0.11
-0.12
-0.11
-0.11
-0.095
-0.07
-0.045
-0.03
-0.015
-0.005
0
-0.01
-0.01
-0.01
-0.03
-0.04
-0.055
-0.08
-0.11
-0.125
-0.15
-0.16
-0.16
-0.16
-0.185
-0.19
-0.215
-0.235
-0.225
-0.24
-0.265
-0.265
-0.26
-0.26
-0.25
-0.245
-0.245
-0.24
-0.245
-0.255
-0.26
-0.27
-0.285
-0.3
-0.31
-0.305
-0.26
-0.185
-0.09
0.065
0.27
0.48
0.725
0.975
1.21
1.395
1.45
1.395
1.195
0.91
0.555
0.25
-0.02
-0.21
-0.32
-0.37
-0.345
-0.31
-0.265
-0.24
-0.24
-0.24
-0.275
-0.3
-0.32
-0.32
-0.32
-0.32
-0.315
-0.315
-0.315
-0.325
-0.335
-0.325
-0.325
-0.325
-0.32
-0.31
-0.315
-0.315
-0.31
-0.32
-0.32
-0.31
-0.315
-0.305
-0.305
-0.295
-0.305
-0.295
-0.3
-0.295
-0.295
-0.29
-0.295
-0.285
-0.29
-0.29
-0.27
-0.27
-0.26
-0.26
-0.25
-0.25
-0.255
-0.265
-0.25
-0.25
-0.24
-0.235
-0.22
-0.23
-0.215
-0.215
-0.215
-0.215
-0.21
-0.205
-0.2
-0.2
-0.205
-0.19
-0.19
-0.185
-0.185
-0.19
-0.19
-0.19
-0.195
-0.195
-0.185
-0.185
-0.18
-0.165
-0.155
-0.15
-0.14
-0.14
-0.13
-0.12
-0.115
-0.11
-0.095
-0.09
-0.08
-0.075
-0.08
-0.085
-0.095
-0.105
-0.11
-0.12
-0.125
-0.12
-0.115
-0.12
-0.11
-0.09
-0.1
-0.11
-0.115
-0.12
-0.13
-0.135
-0.145
-0.14
-0.13
-0.12
-0.1
-0.1
-0.1
-0.105
-0.1
-0.105
-0.11
-0.12
-0.125
-0.13
-0.125
-0.12
-0.1
-0.085
-0.085
-0.085
-0.07
-0.11
-0.105
-0.115
-0.115
-0.105
-0.105
-0.09
-0.08
-0.075
-0.065
-0.07
-0.07
-0.08
-0.095
-0.105
-0.1
-0.125
-0.12
-0.12
-0.11
-0.085
-0.085
-0.1
-0.1
-0.1
-0.11
-0.11
-0.095
-0.09
-0.08
-0.05
-0.05
-0.025
-0.025
-0.015
-0.015
-0.01
-0.02
-0.01
-0.005
0.03
0.045
0.045
0.05
0.045
0.05
0.05
0.065
0.06
0.05
0.04
0.015
0
-0.03
-0.045
-0.065
-0.09
-0.1
-0.125
-0.135
-0.165
-0.16
-0.18
-0.185
-0.19
-0.175
-0.17
-0.175
-0.185
-0.18
-0.18
-0.17
-0.185
-0.19
-0.205
-0.205
-0.21
-0.195
-0.195
-0.195
-0.195
-0.195
-0.155
-0.085
0.02
0.155
0.33
0.535
0.77
1.04
1.285
1.48
1.585
1.545
1.395
1.135
0.82
0.51
0.215
-0.02
-0.16
-0.25
-0.255
-0.255
-0.21
-0.165
-0.165
-0.18
-0.21
-0.24
-0.29
-0.31
-0.325
-0.31
-0.315
-0.295
-0.275
-0.27
-0.27
-0.28
-0.29
-0.305
-0.305
-0.31
-0.31
-0.32
-0.31
-0.305
-0.3
-0.305
-0.3
-0.305
-0.285
-0.285
-0.3
-0.305
-0.31
-0.31
-0.315
-0.31
-0.3
-0.3
-0.295
-0.29
-0.295
-0.29
-0.295
-0.295
-0.3
-0.295
-0.285
-0.285
-0.285
-0.265
-0.26
-0.25
-0.25
-0.26
-0.255
-0.265
-0.265
-0.255
-0.24
-0.235
-0.23
-0.22
-0.225
-0.23
-0.235
-0.25
-0.225
-0.225
-0.215
-0.225
-0.205
-0.225
-0.22
-0.21
-0.215
-0.205
-0.22
-0.225
-0.22
-0.205
-0.195
-0.185
-0.175
-0.165
-0.165
-0.16
-0.16
-0.175
-0.17
-0.18
-0.185
-0.19
-0.17
-0.165
-0.16
-0.16
-0.18
-0.185
-0.195
-0.19
-0.2
-0.21
-0.21
-0.215
-0.205
-0.21
-0.185
-0.19
-0.175
-0.185
-0.185
-0.2
-0.21
-0.22
-0.23
-0.22
-0.23
-0.23
-0.21
-0.2
-0.19
-0.18
-0.185
-0.19
-0.21
-0.205
-0.235
-0.22
-0.215
-0.21
-0.21
-0.19
-0.18
-0.175
-0.175
-0.19
-0.195
-0.205
-0.22
-0.225
-0.215
-0.22
-0.215
-0.215
-0.2
-0.2
-0.185
-0.2
-0.215
-0.215
-0.225
-0.225
-0.23
-0.24
-0.225
-0.21
-0.2
-0.185
-0.18
-0.18
-0.18
-0.18
-0.175
-0.175
-0.165
-0.165
-0.16
-0.15
-0.135
-0.115
-0.095
-0.065
-0.05
-0.05
-0.06
-0.065
-0.075
-0.09
-0.09
-0.1
-0.08
-0.075
-0.095
-0.11
-0.135
-0.16
-0.19
-0.215
-0.24
-0.245
-0.26
-0.27
-0.275
-0.275
-0.28
-0.285
-0.3
-0.3
-0.305
-0.3
-0.32
-0.32
-0.32
-0.315
-0.315
-0.31
-0.315
-0.315
-0.33
-0.355
-0.36
-0.365
-0.34
-0.28
-0.19
-0.075
0.075
0.27
0.49
0.73
0.98
1.195
1.375
1.445
1.365
1.2
0.92
0.625
0.33
0.055
-0.145
-0.29
-0.355
-0.385
-0.37
-0.35
-0.325
-0.33
-0.335
-0.35
-0.37
-0.38
-0.39
-0.395
-0.41
-0.42
-0.43
-0.43
-0.43
-0.42
-0.415
-0.415
-0.41
-0.4
-0.405
-0.41
-0.415
-0.415
-0.43
-0.44
-0.435
-0.43
-0.42
-0.42
-0.41
-0.405
-0.39
-0.385
-0.395
-0.4
-0.415
-0.42
-0.425
-0.42
-0.4
-0.41
-0.395
-0.39
-0.39
-0.38
-0.39
-0.385
-0.385
-0.385
-0.385
-0.385
-0.385
-0.385
-0.375
-0.375
-0.365
-0.355
-0.365
-0.355
-0.355
-0.355
-0.35
-0.345
-0.335
-0.335
-0.335
-0.33
-0.32
-0.325
-0.32
-0.33
-0.325
-0.33
-0.335
-0.325
-0.315
-0.31
-0.305
-0.305
-0.305
-0.3
-0.305
-0.31
-0.3
-0.3
-0.29
-0.275
-0.265
-0.255
-0.265
-0.245
-0.255
-0.26
-0.265
-0.275
-0.29
-0.285
-0.285
-0.275
-0.28
-0.275
-0.28
-0.285
-0.29
-0.285
-0.305
-0.31
-0.315
-0.305
-0.295
-0.295
-0.295
-0.295
-0.295
-0.305
-0.3
-0.295
-0.305
-0.305
-0.32
-0.325
-0.325
-0.31
-0.295
-0.295
-0.29
-0.29
-0.285
-0.29
-0.295
-0.31
-0.32
-0.315
-0.32
-0.325
-0.295
-0.295
-0.3
-0.28
-0.29
-0.29
-0.295
-0.32
-0.315
-0.31
-0.31
-0.305
-0.3
-0.29
-0.28
-0.275
-0.285
-0.285
-0.31
-0.31
-0.315
-0.32
-0.32
-0.31
-0.29
-0.275
-0.25
-0.24
-0.235
-0.225
-0.23
-0.23
-0.24
-0.235
-0.225
-0.19
-0.16
-0.14
-0.115
-0.115
-0.125
-0.14
-0.15
-0.17
-0.175
-0.205
-0.22
-0.23
-0.24
-0.245
-0.26
-0.27
-0.285
-0.31
-0.325
-0.345
-0.375
-0.39
-0.4
-0.405
-0.39
-0.395
-0.375
-0.37
-0.375
-0.37
-0.38
-0.39
-0.4
-0.4
-0.41
-0.42
-0.42
-0.425
-0.44
-0.42
-0.385
-0.31
-0.21
-0.06
0.115
0.335
0.59
0.855
1.105
1.275
1.35
1.27
1.07
0.775
0.44
0.13
-0.135
-0.32
-0.425
-0.445
-0.435
-0.4
-0.365
-0.35
-0.36
-0.395
-0.43
-0.45
-0.475
-0.48
-0.48
-0.47
-0.455
-0.44
-0.445
-0.45
-0.465
-0.465
-0.46
-0.47
-0.475
-0.48
-0.485
-0.485
-0.48
-0.48
-0.46
-0.445
-0.455
-0.45
-0.445
-0.445
-0.455
-0.48
-0.475
-0.47
-0.46
-0.46
-0.45
-0.45
-0.445
-0.435
-0.435
-0.435
-0.425
-0.43
-0.44
-0.435
-0.435
-0.435
-0.42
-0.42
-0.415
-0.415
-0.405
-0.405
-0.4
-0.4
-0.395
-0.385
-0.385
-0.37
-0.37
-0.36
-0.365
-0.37
-0.375
-0.375
-0.37
-0.355
-0.355
-0.34
-0.34
-0.34
-0.33
-0.34
-0.34
-0.355
-0.36
-0.36
-0.365
-0.36
-0.36
-0.36
-0.335
-0.33
-0.31
-0.295
-0.295
-0.285
-0.28
-0.29
-0.295
-0.295
-0.29
-0.28
-0.29
-0.29
-0.275
-0.25
-0.27
-0.26
-0.27
-0.28
-0.3
-0.315
-0.31
-0.305
-0.3
-0.295
-0.295
-0.285
-0.295
-0.295
-0.3
-0.305
-0.31
-0.33
-0.33
-0.325
-0.325
-0.325
-0.325
-0.305
-0.3
-0.29
-0.285
-0.295
-0.31
-0.31
-0.305
-0.3
-0.295
-0.295
-0.29
-0.295
-0.3
-0.285
-0.29
-0.285
-0.3
-0.305
-0.29
-0.29
-0.285
-0.29
-0.285
-0.29
-0.285
-0.285
-0.29
-0.3
-0.3
-0.295
-0.3
-0.305
-0.285
-0.295
-0.27
-0.27
-0.285
-0.275
-0.275
-0.295
-0.295
-0.27
-0.265
-0.255
-0.24
-0.235
-0.215
-0.21
-0.205
-0.19
-0.19
-0.2
-0.17
-0.17
-0.13
-0.11
-0.105
-0.1
-0.11
-0.115
-0.115
-0.125
-0.135
-0.16
-0.18
-0.2
-0.215
-0.24
-0.245
-0.245
-0.26
-0.27
-0.29
-0.31
-0.325
-0.335
-0.345
-0.36
-0.355
-0.355
-0.35
-0.35
-0.33
-0.32
-0.335
-0.33
-0.355
-0.365
-0.38
-0.385
-0.4
-0.39
-0.38
-0.32
-0.235
-0.13
0.04
0.245
0.485
0.745
0.99
1.235
1.385
1.395
1.28
1.065
0.755
0.43
0.105
-0.12
-0.295
-0.395
-0.425
-0.415
-0.39
-0.365
-0.33
-0.32
-0.34
-0.355
-0.365
-0.395
-0.405
-0.415
-0.415
-0.435
-0.415
-0.41
-0.415
-0.41
-0.405
-0.4
-0.39
-0.4
-0.4
-0.395
-0.405
-0.415
-0.41
-0.405
-0.415
-0.425
-0.4
-0.395
-0.38
-0.38
-0.39
-0.39
-0.385
-0.385
-0.39
-0.395
-0.4
-0.385
-0.385
-0.37
-0.37
-0.365
-0.385
-0.385
-0.385
-0.375
-0.36
-0.365
-0.35
-0.335
-0.32
-0.315
-0.315
-0.32
-0.325
-0.34
-0.335
-0.33
-0.32
-0.315
-0.305
-0.3
-0.29
-0.28
-0.28
-0.29
-0.3
-0.3
-0.3
-0.3
-0.295
-0.275
-0.285
-0.285
-0.265
-0.27
-0.275
-0.27
-0.27
-0.28
-0.275
-0.27
-0.255
-0.235
-0.22
-0.2
-0.195
-0.17
-0.17
-0.175
-0.19
-0.21
-0.205
-0.22
-0.195
-0.195
-0.185
-0.195
-0.19
-0.185
-0.19
-0.19
-0.21
-0.21
-0.235
-0.23
-0.24
-0.235
-0.23
-0.225
-0.225
-0.21
-0.21
-0.205
-0.205
-0.21
-0.215
-0.225
-0.22
-0.235
-0.21
-0.205
-0.205
-0.2
-0.2
-0.205
-0.215
-0.205
-0.22
-0.215
-0.21
-0.195
-0.215
-0.195
-0.215
-0.215
-0.21
-0.21
-0.205
-0.215
-0.21
-0.21
-0.205
-0.2
-0.195
-0.195
-0.2
-0.19
-0.2
-0.2
-0.21
-0.22
-0.215
-0.225
-0.225
-0.22
-0.205
-0.19
-0.195
-0.185
-0.2
-0.205
-0.215
-0.21
-0.215
-0.225
-0.21
-0.195
-0.18
-0.17
-0.15
-0.14
-0.135
-0.13
-0.135
-0.11
-0.1
-0.08
-0.085
-0.07
-0.08
-0.07
-0.07
-0.065
-0.065
-0.065
-0.085
-0.09
-0.105
-0.14
-0.165
-0.185
-0.205
-0.225
-0.23
-0.245
-0.245
-0.27
-0.28
-0.29
-0.295
-0.315
-0.32
-0.32
-0.31
-0.31
-0.305
-0.305
-0.31
-0.32
-0.305
-0.33
-0.34
-0.35
-0.37
-0.375
-0.36
-0.315
-0.225
-0.12
0.025
0.22
0.43
0.685
0.94
1.17
1.355
1.45
1.43
1.28
1.015
0.68
0.34
0.035
-0.18
-0.315
-0.385
-0.4
-0.375
-0.34
-0.325
-0.305
-0.325
-0.345
-0.375
-0.415
-0.44
-0.435
-0.44
-0.44
-0.435
-0.435
-0.435
-0.445
-0.425
-0.42
-0.42
-0.43
-0.435
-0.44
-0.445
-0.455
-0.465
-0.465
-0.46
-0.455
-0.435
-0.425
-0.42
-0.425
-0.435
-0.455
-0.46
-0.455
-0.465
-0.465
-0.455
-0.44
-0.43
-0.42
-0.42
-0.41
-0.415
-0.42
-0.41
-0.425
-0.435
-0.43
-0.43
-0.415
-0.415
-0.39
-0.39
-0.395
-0.395
-0.38
-0.39
-0.39
-0.39
-0.385
-0.385
-0.375
-0.37
-0.365
-0.355
-0.355
-0.365
-0.355
-0.35
-0.355
-0.375
-0.37
-0.365
-0.37
-0.36
-0.355
-0.355
-0.36
-0.36
-0.36
-0.37
-0.365
-0.345
-0.34
-0.325
-0.305
-0.285
-0.29
-0.295
-0.3
-0.305
-0.31
-0.32
-0.32
-0.325
-0.33
-0.32
-0.32
-0.32
-0.315
-0.325
-0.335
-0.345
-0.345
-0.365
-0.365
-0.37
-0.36
-0.345
-0.345
-0.33
-0.335
-0.34
-0.34
-0.35
-0.355
-0.36
-0.375
-0.385
-0.37
-0.365
-0.36
-0.35
-0.335
-0.34
-0.34
-0.335
-0.34
-0.35
-0.37
-0.365
-0.36
-0.365
-0.355
-0.345
-0.345
-0.35
-0.335
-0.335
-0.35
-0.355
-0.365
-0.365
-0.37
-0.355
-0.355
-0.35
-0.345
-0.335
-0.34
-0.34
-0.345
-0.355
-0.365
-0.37
-0.38
-0.365
-0.355
-0.355
-0.325
-0.315
-0.3
-0.295
-0.29
-0.29
-0.295
-0.285
-0.275
-0.255
-0.235
-0.22
-0.195
-0.19
-0.185
-0.195
-0.2
-0.21
-0.22
-0.215
-0.215
-0.22
-0.23
-0.25
-0.275
-0.305
-0.33
-0.34
-0.36
-0.375
-0.395
-0.415
-0.415
-0.415
-0.43
-0.43
-0.43
-0.445
-0.445
-0.45
-0.46
-0.47
-0.475
-0.48
-0.465
-0.455
-0.475
-0.47
-0.475
-0.49
-0.51
-0.48
-0.445
-0.385
-0.31
-0.175
0.01
0.26
0.525
0.79
1.04
1.235
1.335
1.3
1.13
0.85
0.505
0.16
-0.125
-0.325
-0.45
-0.49
-0.485
-0.47
-0.445
-0.44
-0.455
-0.49
-0.52
-0.545
-0.56
-0.57
-0.565
-0.555
-0.545
-0.53
-0.545
-0.545
-0.54
-0.55
-0.575
-0.58
-0.58
-0.57
-0.575
-0.555
-0.545
-0.54
-0.545
-0.535
-0.55
-0.545
-0.555
-0.565
-0.57
-0.565
-0.55
-0.54
-0.53
-0.54
-0.54
-0.53
-0.525
-0.53
-0.53
-0.545
-0.54
-0.54
-0.53
-0.52
-0.51
-0.515
-0.5
-0.505
-0.495
-0.49
-0.495
-0.495
-0.495
-0.49
-0.495
-0.485
-0.48
-0.465
-0.46
-0.465
-0.46
-0.46
-0.465
-0.455
-0.455
-0.45
-0.445
-0.445
-0.435
-0.44
-0.43
-0.435
-0.45
-0.45
-0.455
-0.47
-0.465
-0.45
-0.425
-0.415
-0.41
-0.4
-0.395
-0.395
-0.4
-0.4
-0.41
-0.405
-0.415
-0.395
-0.395
-0.395
-0.395
-0.39
-0.39
-0.4
-0.41
-0.415
-0.435
-0.445
-0.41
-0.41
-0.415
-0.425
-0.405
-0.415
-0.415
-0.43
-0.435
-0.445
-0.445
-0.435
-0.43
-0.43
-0.415
-0.41
-0.395
-0.4
-0.4
-0.42
-0.43
-0.445
-0.435
-0.45
-0.435
-0.42
-0.42
-0.42
-0.41
-0.41
-0.415
-0.415
-0.42
-0.425
-0.42
-0.43
-0.425
-0.43
-0.42
-0.4
-0.395
-0.39
-0.39
-0.4
-0.405
-0.425
-0.43
-0.435
-0.44
-0.44
-0.425
-0.41
-0.395
-0.38
-0.37
-0.37
-0.37
-0.365
-0.355
-0.355
-0.35
-0.33
-0.33
-0.305
-0.28
-0.255
-0.235
-0.23
-0.225
-0.235
-0.265
-0.28
-0.265
-0.275
-0.27
-0.27
-0.285
-0.295
-0.33
-0.355
-0.38
-0.4
-0.425
-0.445
-0.46
-0.47
-0.47
-0.47
-0.47
-0.47
-0.465
-0.465
-0.48
-0.485
-0.49
-0.505
-0.51
-0.5
-0.495
-0.495
-0.495
-0.505
-0.51
-0.505
-0.485
-0.44
-0.35
-0.24
-0.06
0.15
0.425
0.72
1
1.215
1.325
1.285
1.125
0.83
0.475
0.12
-0.185
-0.395
-0.52
-0.565
-0.565
-0.525
-0.5
-0.47
-0.48
-0.495
-0.525
-0.555
-0.565
-0.57
-0.555
-0.555
-0.545
-0.555
-0.55
-0.56
-0.565
-0.565
-0.59
-0.59
-0.57
-0.565
-0.56
-0.55
-0.55
-0.56
-0.56
-0.555
-0.575
-0.575
-0.57
-0.56
-0.545
-0.54
-0.545
-0.52
-0.52
-0.52
-0.525
-0.525
-0.525
-0.525
-0.535
-0.545
-0.54
-0.525
-0.505
-0.495
-0.49
-0.49
-0.49
-0.48
-0.485
-0.485
-0.49
-0.5
-0.485
-0.475
-0.46
-0.455
-0.435
-0.445
-0.435
-0.43
-0.43
-0.435
-0.445
-0.45
-0.46
-0.45
-0.43
-0.415
-0.41
-0.41
-0.405
-0.405
-0.42
-0.425
-0.435
-0.46
-0.45
-0.425
-0.415
-0.385
-0.37
-0.355
-0.36
-0.35
-0.345
-0.355
-0.36
-0.37
-0.365
-0.35
-0.345
-0.335
-0.335
-0.33
-0.325
-0.33
-0.34
-0.345
-0.35
-0.375
-0.375
-0.37
-0.37
-0.365
-0.37
-0.365
-0.375
-0.38
-0.375
-0.38
-0.37
-0.38
-0.38
-0.365
-0.355
-0.355
-0.355
-0.365
-0.365
-0.355
-0.36
-0.355
-0.36
-0.36
-0.36
-0.355
-0.355
-0.34
-0.34
-0.345
-0.35
-0.35
-0.355
-0.36
-0.355
-0.355
-0.35
-0.345
-0.34
-0.325
-0.33
-0.335
-0.335
-0.345
-0.34
-0.335
-0.345
-0.345
-0.35
-0.34
-0.33
-0.325
-0.315
-0.325
-0.345
-0.34
-0.335
-0.34
-0.325
-0.315
-0.305
-0.305
-0.275
-0.26
-0.25
-0.24
-0.245
-0.22
-0.205
-0.19
-0.185
-0.17
-0.18
-0.165
-0.165
-0.175
-0.165
-0.16
-0.155
-0.16
-0.18
-0.2
-0.23
-0.25
-0.28
-0.295
-0.31
-0.32
-0.325
-0.345
-0.35
-0.35
-0.36
-0.385
-0.385
-0.39
-0.4
-0.41
-0.405
-0.38
-0.385
-0.375
-0.395
-0.375
-0.38
-0.375
-0.385
-0.405
-0.43
-0.425
-0.405
-0.35
-0.25
-0.115
0.06
0.28
0.52
0.775
1.03
1.245
1.38
1.415
1.315
1.12
0.82
0.48
0.145
-0.11
-0.295
-0.415
-0.47
-0.46
-0.425
-0.385
-0.355
-0.34
-0.345
-0.38
-0.415
-0.44
-0.475
-0.485
-0.48
-0.48
-0.49
-0.47
-0.455
-0.445
-0.44
-0.44
-0.45
-0.45
-0.46
-0.47
-0.47
-0.475
-0.47
-0.46
-0.455
-0.445
-0.435
-0.435
-0.435
-0.455
-0.455
-0.45
-0.475
-0.465
-0.45
-0.45
-0.46
-0.44
-0.425
-0.41
-0.41
-0.415
-0.43
-0.42
-0.43
-0.425
-0.425
-0.42
-0.415
-0.41
-0.39
-0.39
-0.385
-0.375
-0.38
-0.39
-0.395
-0.4
-0.41
-0.39
-0.38
-0.38
-0.36
-0.36
-0.34
-0.335
-0.34
-0.34
-0.345
-0.35
-0.35
-0.355
-0.345
-0.36
-0.355
-0.36
-0.35
-0.345
-0.345
-0.34
-0.335
-0.335
-0.32
-0.31
-0.315
-0.305
-0.295
-0.28
-0.27
-0.27
-0.28
-0.275
-0.285
-0.295
-0.275
-0.275
-0.27
-0.25
-0.25
-0.265
-0.255
-0.275
-0.275
-0.29
-0.29
-0.295
-0.3
-0.305
-0.295
-0.28
-0.28
-0.28
-0.275
-0.28
-0.29
-0.3
-0.31
-0.315
-0.31
-0.305
-0.295
-0.285
-0.27
-0.27
-0.27
-0.27
-0.27
-0.28
-0.285
-0.3
-0.305
-0.31
-0.305
-0.285
-0.275
-0.265
-0.26
-0.265
-0.26
-0.265
-0.265
-0.275
-0.29
-0.295
-0.28
-0.275
-0.265
-0.265
-0.265
-0.25
-0.27
-0.27
-0.265
-0.26
-0.27
-0.27
-0.28
-0.275
-0.275
-0.27
-0.27
-0.275
-0.275
-0.29
-0.285
-0.275
-0.27
-0.26
-0.245
-0.23
-0.23
-0.23
-0.225
-0.215
-0.205
-0.21
-0.215
-0.19
-0.17
-0.15
-0.115
-0.11
-0.105
-0.11
-0.11
-0.12
-0.13
-0.13
-0.145
-0.155
-0.15
-0.16
-0.185
-0.2
-0.205
-0.23
-0.245
-0.265
-0.285
-0.315
-0.345
-0.355
-0.37
-0.365
-0.355
-0.35
-0.335
-0.34
-0.36
-0.365
-0.37
-0.38
-0.39
-0.41
-0.405
-0.405
-0.415
-0.42
-0.415
-0.42
-0.405
-0.375
-0.31
-0.22
-0.105
0.055
0.275
0.515
0.795
1.06
1.285
1.45
1.49
1.395
1.19
0.89
0.55
0.21
-0.05
-0.24
-0.35
-0.4
-0.395
-0.39
-0.38
-0.37
-0.37
-0.385
-0.415
-0.43
-0.46
-0.475
-0.47
-0.465
-0.46
-0.46
-0.46
-0.47
-0.475
-0.48
-0.485
-0.48
-0.475
-0.47
-0.46
-0.48
-0.44
-0.445
-0.465
-0.48
-0.475
-0.47
-0.47
-0.475
-0.475
-0.46
-0.465
-0.455
-0.45
-0.445
-0.465
-0.465
-0.475
-0.48
-0.475
-0.475
-0.46
-0.45
-0.435
-0.43
-0.415
-0.41
-0.42
-0.42
-0.445
-0.44
-0.435
-0.445
-0.43
-0.425
-0.4
-0.39
-0.38
-0.375
-0.38
-0.385
-0.38
-0.38
-0.38
-0.395
-0.395
-0.385
-0.365
-0.355
-0.355
-0.355
-0.36
-0.36
-0.37
-0.37
-0.385
-0.38
-0.375
-0.365
-0.34
-0.335
-0.33
-0.32
-0.305
-0.295
-0.295
-0.31
-0.305
-0.315
-0.31
-0.31
-0.315
-0.315
-0.305
-0.315
-0.3
-0.32
-0.32
-0.315
-0.325
-0.335
-0.335
-0.32
-0.31
-0.325
-0.32
-0.315
-0.32
-0.33
-0.335
-0.335
-0.35
-0.36
-0.345
-0.34
-0.33
-0.32
-0.31
-0.315
-0.31
-0.325
-0.325
-0.35
-0.35
-0.35
-0.33
-0.32
-0.31
-0.31
-0.3
-0.31
-0.305
-0.315
-0.31
-0.32
-0.34
-0.34
-0.355
-0.345
-0.33
-0.315
-0.3
-0.295
-0.305
-0.305
-0.315
-0.32
-0.325
-0.335
-0.335
-0.33
-0.32
-0.315
-0.305
-0.3
-0.3
-0.3
-0.31
-0.3
-0.305
-0.295
-0.29
-0.285
-0.275
-0.26
-0.235
-0.225
-0.21
-0.21
-0.195
-0.175
-0.155
-0.15
-0.16
-0.165
-0.17
-0.165
-0.16
-0.16
-0.165
-0.18
-0.18
-0.2
-0.23
-0.25
-0.28
-0.3
-0.305
-0.31
-0.325
-0.36
-0.38
-0.38
-0.395
-0.39
-0.39
-0.4
-0.395
-0.405
-0.405
-0.405
-0.41
-0.41
-0.415
-0.415
-0.425
-0.425
-0.445
-0.455
-0.45
-0.44
-0.41
-0.335
-0.245
-0.13
0.02
0.215
0.435
0.715
0.99
1.24
1.375
1.405
1.295
1.06
0.765
0.44
0.115
-0.145
-0.335
-0.435
-0.47
-0.465
-0.435
-0.41
-0.385
-0.395
-0.405
-0.43
-0.45
-0.48
-0.505
-0.505
-0.515
-0.52
-0.52
-0.52
-0.515
-0.51
-0.505
-0.5
-0.49
-0.495
-0.5
-0.505
-0.51
-0.52
-0.515
-0.5
-0.515
-0.515
-0.515
-0.51
-0.475
-0.475
-0.485
-0.49
-0.5
-0.505
-0.5
-0.495
-0.49
-0.475
-0.475
-0.465
-0.46
-0.445
-0.45
-0.45
-0.465
-0.46
-0.455
-0.46
-0.45
-0.44
-0.43
-0.445
-0.425
-0.42
-0.425
-0.42
-0.425
-0.42
-0.425
-0.405
-0.405
-0.4
-0.385
-0.38
-0.38
-0.38
-0.385
-0.385
-0.395
-0.4
-0.385
-0.39
-0.385
-0.375
-0.375
-0.375
-0.375
-0.38
-0.38
-0.38
-0.37
-0.36
-0.36
-0.34
-0.33
-0.32
-0.305
-0.3
-0.31
-0.295
-0.31
-0.325
-0.32
-0.31
-0.3
-0.315
-0.31
-0.305
-0.31
-0.305
-0.315
-0.33
-0.345
-0.345
-0.345
-0.355
-0.34
-0.345
-0.33
-0.33
-0.33
-0.32
-0.33
-0.335
-0.35
-0.35
-0.345
-0.35
-0.345
-0.345
-0.34
-0.32
-0.32
-0.32
-0.33
-0.34
-0.335
-0.33
-0.34
-0.345
-0.355
-0.34
-0.33
-0.325
-0.32
-0.325
-0.32
-0.32
-0.33
-0.32
-0.335
-0.34
-0.35
-0.345
-0.33
-0.31
-0.32
-0.315
-0.32
-0.335
-0.34
-0.33
-0.335
-0.34
-0.32
-0.305
-0.285
-0.265
-0.24
-0.23
-0.24
-0.225
-0.23
-0.23
-0.21
-0.195
-0.165
-0.17
-0.165
-0.16
-0.155
-0.165
-0.17
-0.18
-0.195
-0.23
-0.235
-0.26
-0.29
-0.305
-0.31
-0.315
-0.32
-0.325
-0.345
-0.35
-0.38
-0.38
-0.4
-0.405
-0.41
-0.41
-0.415
-0.41
-0.395
-0.385
-0.38
-0.38
-0.39
-0.405
-0.42
-0.445
-0.455
-0.445
-0.41
-0.34
-0.245
-0.08
0.105
0.325
0.585
0.82
1.06
1.245
1.315
1.285
1.105
0.83
0.5
0.195
-0.07
-0.27
-0.4
-0.45
-0.455
-0.42
-0.385
-0.375
-0.375
-0.405
-0.43
-0.45
-0.45
-0.46
-0.48
-0.48
-0.48
-0.47
-0.47
-0.46
-0.475
-0.47
-0.455
-0.445
-0.45
-0.45
-0.46
-0.455
-0.46
-0.475
-0.465
-0.465
-0.45
-0.445
-0.45
-0.435
-0.435
-0.435
-0.435
-0.445
-0.44
-0.435
-0.42
-0.43
-0.435
-0.42
-0.425
-0.42
-0.425
-0.425
-0.43
-0.44
-0.43
-0.425
-0.41
-0.42
-0.41
-0.405
-0.395
-0.38
-0.385
-0.38
-0.385
-0.38
-0.4
-0.4
-0.38
-0.37
-0.375
-0.35
-0.355
-0.345
-0.345
-0.35
-0.36
-0.38
-0.385
-0.375
-0.37
-0.355
-0.35
-0.34
-0.325
-0.335
-0.32
-0.32
-0.345
-0.345
-0.35
-0.345
-0.33
-0.325
-0.31
-0.295
-0.3
-0.27
-0.265
-0.255
-0.26
-0.265
-0.275
-0.285
-0.29
-0.295
-0.3
-0.305
-0.305
-0.28
-0.29
-0.28
-0.28
-0.295
-0.3
-0.305
-0.315
-0.31
-0.305
-0.31
-0.3
-0.295
-0.295
-0.29
-0.29
-0.295
-0.295
-0.3
-0.31
-0.295
-0.31
-0.295
-0.29
-0.27
-0.285
-0.295
-0.31
-0.305
-0.295
-0.305
-0.3
-0.295
-0.29
-0.295
-0.29
-0.29
-0.29
-0.295
-0.295
-0.295
-0.3
-0.295
-0.29
-0.29
-0.285
-0.29
-0.3
-0.295
-0.305
-0.295
-0.295
-0.305
-0.295
-0.3
-0.285
-0.28
-0.27
-0.27
-0.26
-0.25
-0.245
-0.225
-0.225
-0.21
-0.205
-0.2
-0.175
-0.16
-0.145
-0.13
-0.115
-0.11
-0.11
-0.125
-0.135
-0.135
-0.15
-0.145
-0.16
-0.18
-0.195
-0.225
-0.24
-0.255
-0.275
-0.295
-0.315
-0.33
-0.35
-0.36
-0.365
-0.36
-0.345
-0.35
-0.335
-0.345
-0.35
-0.355
-0.375
-0.385
-0.38
-0.385
-0.395
-0.395
-0.4
-0.4
-0.375
-0.345
-0.28
-0.195
-0.065
0.12
0.33
0.585
0.86
1.12
1.31
1.4
1.35
1.18
0.885
0.55
0.205
-0.095
-0.3
-0.415
-0.46
-0.455
-0.415
-0.355
-0.325
-0.31
-0.355
-0.385
-0.41
-0.435
-0.445
-0.455
-0.465
-0.455
-0.445
-0.435
-0.44
-0.42
-0.415
-0.425
-0.425
-0.435
-0.44
-0.445
-0.45
-0.47
-0.455
-0.445
-0.455
-0.435
-0.43
-0.425
-0.43
-0.425
-0.43
-0.435
-0.44
-0.43
-0.43
-0.44
-0.43
-0.415
-0.41
-0.405
-0.415
-0.42
-0.43
-0.425
-0.4
-0.405
-0.4
-0.405
-0.4
-0.385
-0.375
-0.39
-0.375
-0.38
-0.385
-0.38
-0.37
-0.365
-0.35
-0.355
-0.35
-0.35
-0.355
-0.345
-0.345
-0.37
-0.355
-0.36
-0.355
-0.345
-0.325
-0.325
-0.33
-0.32
-0.32
-0.33
-0.335
-0.335
-0.355
-0.35
-0.34
-0.325
-0.305
-0.295
-0.275
-0.26
-0.25
-0.265
-0.265
-0.255
-0.265
-0.28
-0.275
-0.285
-0.285
-0.28
-0.27
-0.26
-0.27
-0.26
-0.265
-0.275
-0.285
-0.29
-0.3
-0.295
-0.285
-0.275
-0.27
-0.265
-0.265
-0.27
-0.285
-0.31
-0.315
-0.325
-0.315
-0.31
-0.295
-0.285
-0.28
-0.275
-0.29
-0.28
-0.28
-0.285
-0.285
-0.29
-0.31
-0.31
-0.305
-0.28
-0.285
-0.285
-0.28
-0.28
-0.28
-0.27
-0.275
-0.285
-0.29
-0.29
-0.295
-0.295
-0.28
-0.28
-0.305
-0.29
-0.295
-0.29
-0.29
-0.29
-0.29
-0.285
-0.29
-0.29
-0.28
-0.27
-0.275
-0.28
-0.28
-0.275
-0.27
-0.255
-0.25
-0.24
-0.225
-0.205
-0.195
-0.185
-0.185
-0.18
-0.17
-0.15
-0.14
-0.135
-0.14
-0.15
-0.14
-0.145
-0.145
-0.13
-0.14
-0.16
-0.19
-0.22
-0.25
-0.27
-0.28
-0.3
-0.31
-0.305
-0.31
-0.31
-0.325
-0.34
-0.36
-0.37
-0.37
-0.375
-0.38
-0.4
-0.39
-0.39
-0.375
-0.35
-0.36
-0.365
-0.385
-0.42
-0.435
-0.42
-0.38
-0.285
-0.145
0.06
0.31
0.605
0.915
1.18
1.35
1.385
1.23
0.965
0.6
0.22
-0.09
-0.32
-0.425
-0.46
-0.445
-0.405
-0.37
-0.37
-0.375
-0.415
-0.445
-0.46
-0.465
-0.47
-0.475
-0.46
-0.44
-0.435
-0.45
-0.47
-0.47
-0.475
-0.485
-0.475
-0.47
-0.46
-0.455
-0.445
-0.435
-0.44
-0.44
-0.455
-0.455
-0.46
-0.455
-0.46
-0.47
-0.46
-0.435
-0.425
-0.43
-0.42
-0.42
-0.425
-0.43
-0.45
-0.445
-0.45
-0.435
-0.42
-0.405
-0.39
-0.4
-0.4
-0.395
-0.395
-0.39
-0.385
-0.39
-0.385
-0.37
-0.365
-0.365
-0.36
-0.37
-0.365
-0.365
-0.37
-0.365
-0.36
-0.355
-0.355
-0.345
-0.335
-0.325
-0.325
-0.325
-0.345
-0.345
-0.36
-0.35
-0.355
-0.36
-0.33
-0.32
-0.315
-0.3
-0.29
-0.29
-0.285
-0.28
-0.285
-0.285
-0.285
-0.285
-0.28
-0.27
-0.26
-0.265
-0.245
-0.25
-0.265
-0.27
-0.285
-0.295
-0.3
-0.305
-0.31
-0.3
-0.29
-0.285
-0.275
-0.275
-0.275
-0.28
-0.29
-0.31
-0.31
-0.315
-0.32
-0.325
-0.32
-0.295
-0.28
-0.27
-0.27
-0.29
-0.29
-0.29
-0.31
-0.305
-0.31
-0.305
-0.3
-0.3
-0.29
-0.28
-0.265
-0.26
-0.27
-0.285
-0.295
-0.29
-0.285
-0.29
-0.285
-0.285
-0.285
-0.285
-0.29
-0.28
-0.28
-0.285
-0.3
-0.285
-0.295
-0.295
-0.285
-0.295
-0.29
-0.28
-0.265
-0.255
-0.255
-0.25
-0.245
-0.235
-0.215
-0.195
-0.19
-0.19
-0.18
-0.17
-0.17
-0.15
-0.14
-0.14
-0.125
-0.12
-0.11
-0.105
-0.115
-0.115
-0.115
-0.13
-0.14
-0.15
-0.175
-0.19
-0.215
-0.22
-0.245
-0.24
-0.26
-0.265
-0.275
-0.295
-0.31
-0.34
-0.34
-0.33
-0.34
-0.365
-0.365
-0.35
-0.335
-0.32
-0.315
-0.305
-0.31
-0.32
-0.33
-0.345
-0.37
-0.385
-0.4
-0.38
-0.35
-0.26
-0.145
0.005
0.205
0.435
0.695
0.95
1.17
1.325
1.375
1.29
1.095
0.805
0.49
0.16
-0.095
-0.27
-0.375
-0.43
-0.42
-0.38
-0.335
-0.31
-0.305
-0.31
-0.32
-0.35
-0.37
-0.38
-0.385
-0.385
-0.38
-0.39
-0.4
-0.41
-0.405
-0.405
-0.385
-0.39
-0.37
-0.385
-0.375
-0.39
-0.375
-0.385
-0.38
-0.375
-0.365
-0.355
-0.35
-0.355
-0.355
-0.355
-0.36
-0.355
-0.365
-0.365
-0.36
-0.36
-0.345
-0.35
-0.34
-0.34
-0.355
-0.34
-0.335
-0.335
-0.34
-0.33
-0.32
-0.31
-0.305
-0.3
-0.295
-0.3
-0.29
-0.295
-0.285
-0.28
-0.29
-0.285
-0.27
-0.265
-0.265
-0.26
-0.265
-0.265
-0.255
-0.26
-0.26
-0.255
-0.26
-0.265
-0.275
-0.26
-0.255
-0.245
-0.24
-0.225
-0.235
-0.235
-0.225
-0.215
-0.21
-0.21
-0.195
-0.175
-0.155
-0.14
-0.13
-0.135
-0.135
-0.135
-0.13
-0.145
-0.15
-0.17
-0.17
-0.17
-0.165
-0.155
-0.16
-0.155
-0.165
-0.165
-0.165
-0.175
-0.19
-0.18
-0.185
-0.19
-0.165
-0.145
-0.125
-0.135
-0.125
-0.135
-0.145
-0.145
-0.16
-0.165
-0.18
-0.165
-0.165
-0.155
-0.15
-0.145
-0.15
-0.14
-0.125
-0.135
-0.14
-0.155
-0.16
-0.155
-0.155
-0.145
-0.125
-0.145
-0.135
-0.125
-0.12
-0.12
-0.125
-0.14
-0.145
-0.15
-0.13
-0.12
-0.12
-0.13
-0.135
-0.155
-0.14
-0.145
-0.16
-0.145
-0.145
-0.13
-0.115
-0.1
-0.08
-0.07
-0.07
-0.075
-0.07
-0.07
-0.06
-0.045
-0.025
-0.005
0.02
0.04
0.065
0.06
0.05
0.035
0.025
0.015
0.015
0.025
0.01
0.005
-0.015
-0.03
-0.05
-0.075
-0.1
-0.13
-0.155
-0.16
-0.175
-0.18
-0.18
-0.17
-0.17
-0.175
-0.17
-0.17
-0.16
-0.185
-0.195
-0.195
-0.195
-0.185
-0.195
-0.21
-0.215
-0.225
-0.205
-0.175
-0.12
-0.035
0.085
0.24
0.445
0.68
0.935
1.185
1.43
1.59
1.645
1.565
1.365
1.075
0.74
0.41
0.13
-0.075
-0.2
-0.26
-0.265
-0.225
-0.17
-0.14
-0.125
-0.15
-0.19
-0.205
-0.225
-0.245
-0.26
-0.25
-0.255
-0.25
-0.235
-0.22
-0.215
-0.22
-0.225
-0.24
-0.25
-0.25
-0.245
-0.235
-0.255
-0.23
-0.215
-0.215
-0.21
-0.225
-0.225
-0.22
-0.27
-0.265
-0.255
-0.23
-0.22
-0.215
-0.205
-0.2
-0.21
-0.22
-0.23
-0.23
-0.245
-0.22
-0.21
-0.2
-0.205
-0.19
-0.18
-0.185
-0.175
-0.17
-0.175
-0.2
-0.195
-0.195
-0.195
-0.185
-0.175
-0.155
-0.14
-0.15
-0.155
-0.155
-0.155
-0.16
-0.16
-0.16
-0.155
-0.155
-0.14
-0.135
-0.14
-0.135
-0.14
-0.135
-0.135
-0.145
-0.15
-0.165
-0.16
-0.15
-0.13
-0.135
-0.12
-0.11
-0.115
-0.105
-0.095
-0.09
-0.095
-0.085
-0.1
-0.08
-0.065
-0.07
-0.075
-0.085
-0.09
-0.09
-0.085
-0.095
-0.1
-0.105
-0.11
-0.11
-0.1
-0.095
-0.08
-0.08
-0.105
-0.115
-0.105
-0.105
-0.11
-0.12
-0.125
-0.12
-0.11
-0.105
-0.095
-0.1
-0.1
-0.11
-0.11
-0.105
-0.11
-0.115
-0.115
-0.11
-0.095
-0.105
-0.105
-0.11
-0.105
-0.1
-0.09
-0.1
-0.105
-0.11
-0.1
-0.1
-0.08
-0.075
-0.07
-0.075
-0.08
-0.095
-0.095
-0.11
-0.105
-0.105
-0.1
-0.095
-0.08
-0.085
-0.08
-0.08
-0.075
-0.085
-0.085
-0.085
-0.095
-0.085
-0.07
-0.05
-0.03
-0.015
0.015
0.015
0.015
0.02
0.035
0.04
0.03
0.04
0.03
0.04
0.05
0.045
0.055
0.045
0.05
0.025
0
-0.03
-0.07
-0.105
-0.115
-0.12
-0.125
-0.125
-0.14
-0.15
-0.15
-0.16
-0.165
-0.19
-0.195
-0.21
-0.21
-0.2
-0.195
-0.185
-0.175
-0.18
-0.185
-0.205
-0.22
-0.245
-0.26
-0.245
-0.21
-0.125
-0.015
0.11
0.295
0.52
0.77
1.035
1.275
1.48
1.585
1.585
1.46
1.205
0.875
0.52
0.23
-0.005
-0.145
-0.215
-0.245
-0.245
-0.225
-0.22
-0.22
-0.225
-0.25
-0.28
-0.3
-0.31
-0.32
-0.325
-0.305
-0.32
-0.325
-0.32
-0.33
-0.33
-0.33
-0.33
-0.325
-0.32
-0.325
-0.335
-0.33
-0.335
-0.34
-0.33
-0.325
-0.31
-0.31
-0.305
-0.31
-0.315
-0.31
-0.315
-0.32
-0.325
-0.315
-0.31
-0.32
-0.295
-0.29
-0.29
-0.29
-0.27
-0.275
-0.285
-0.28
-0.305
-0.29
-0.285
-0.28
-0.275
-0.27
-0.26
-0.24
-0.265
-0.26
-0.255
-0.28
-0.275
-0.27
-0.265
-0.25
-0.24
-0.23
-0.225
-0.215
-0.215
-0.21
-0.195
-0.21
-0.225
-0.225
-0.245
-0.245
-0.245
-0.23
-0.21
-0.215
-0.22
-0.22
-0.205
-0.215
-0.21
-0.22
-0.21
-0.215
-0.195
-0.17
-0.17
-0.15
-0.16
-0.165
-0.175
-0.18
-0.185
-0.185
-0.2
-0.195
-0.185
-0.19
-0.18
-0.18
-0.175
-0.18
-0.185
-0.19
-0.195
-0.205
-0.21
-0.215
-0.22
-0.215
-0.21
-0.19
-0.195
-0.195
-0.19
-0.185
-0.185
-0.21
-0.21
-0.205
-0.215
-0.18
-0.175
-0.165
-0.185
-0.18
-0.19
-0.185
-0.185
-0.185
-0.18
-0.18
-0.195
-0.185
-0.18
-0.165
-0.175
-0.195
-0.195
-0.195
-0.19
-0.185
-0.195
-0.2
-0.18
-0.175
-0.17
-0.17
-0.175
-0.17
-0.185
-0.195
-0.205
-0.205
-0.205
-0.205
-0.185
-0.18
-0.15
-0.145
-0.135
-0.13
-0.135
-0.125
-0.13
-0.12
-0.115
-0.115
-0.095
-0.065
-0.055
-0.025
-0.01
-0.03
-0.04
-0.055
-0.055
-0.085
-0.09
-0.08
-0.09
-0.085
-0.095
-0.095
-0.12
-0.15
-0.185
-0.205
-0.22
-0.235
-0.255
-0.27
-0.285
-0.275
-0.27
-0.27
-0.255
-0.265
-0.265
-0.29
-0.3
-0.32
-0.325
-0.325
-0.315
-0.32
-0.31
-0.31
-0.305
-0.285
-0.25
-0.17
-0.06
0.075
0.255
0.48
0.74
1.02
1.265
1.45
1.49
1.405
1.19
0.875
0.53
0.19
-0.08
-0.265
-0.35
-0.375
-0.355
-0.315
-0.275
-0.275
-0.28
-0.3
-0.33
-0.365
-0.39
-0.415
-0.4
-0.405
-0.395
-0.375
-0.365
-0.375
-0.38
-0.385
-0.395
-0.395
-0.395
-0.405
-0.4
-0.395
-0.4
-0.365
-0.375
-0.38
-0.39
-0.395
-0.395
-0.395
-0.395
-0.39
-0.39
-0.385
-0.375
-0.365
-0.38
-0.39
-0.38
-0.38
-0.38
-0.375
-0.39
-0.38
-0.38
-0.37
-0.355
-0.345
-0.345
-0.335
-0.34
-0.35
-0.35
-0.355
-0.345
-0.32
-0.33
-0.315
-0.3
-0.295
-0.295
-0.295
-0.29
-0.29
-0.305
-0.305
-0.305
-0.295
-0.285
-0.285
-0.275
-0.275
-0.285
-0.285
-0.28
-0.28
-0.285
-0.295
-0.295
-0.29
-0.275
-0.27
-0.24
-0.225
-0.225
-0.225
-0.22
-0.235
-0.225
-0.235
-0.235
-0.24
-0.24
-0.235
-0.225
-0.235
-0.23
-0.225
-0.235
-0.24
-0.25
-0.255
-0.265
-0.26
-0.255
-0.25
-0.24
-0.235
-0.235
-0.245
-0.245
-0.26
-0.26
-0.275
-0.27
-0.265
-0.25
-0.25
-0.225
-0.225
-0.23
-0.235
-0.22
-0.25
-0.265
-0.265
-0.25
-0.24
-0.235
-0.22
-0.23
-0.225
-0.22
-0.22
-0.22
-0.225
-0.23
-0.235
-0.25
-0.24
-0.245
-0.235
-0.24
-0.24
-0.22
-0.22
-0.205
-0.22
-0.22
-0.23
-0.235
-0.245
-0.235
-0.235
-0.23
-0.215
-0.205
-0.2
-0.185
-0.185
-0.175
-0.17
-0.17
-0.16
-0.15
-0.135
-0.135
-0.11
-0.1
-0.085
-0.07
-0.075
-0.085
-0.11
-0.115
-0.115
-0.12
-0.12
-0.125
-0.13
-0.15
-0.175
-0.195
-0.235
-0.24
-0.275
-0.29
-0.315
-0.305
-0.305
-0.295
-0.295
-0.295
-0.3
-0.3
-0.315
-0.335
-0.34
-0.345
-0.36
-0.35
-0.345
-0.33
-0.325
-0.32
-0.335
-0.35
-0.36
-0.36
-0.325
-0.26
-0.145
0.01
0.22
0.47
0.735
0.995
1.225
1.375
1.405
1.31
1.1
0.78
0.435
0.12
-0.11
-0.27
-0.355
-0.375
-0.355
-0.335
-0.31
-0.31
-0.33
-0.35
-0.4
-0.42
-0.425
-0.43
-0.425
-0.425
-0.42
-0.415
-0.425
-0.425
-0.43
-0.44
-0.445
-0.445
-0.435
-0.445
-0.435
-0.445
-0.43
-0.43
-0.425
-0.425
-0.425
-0.43
-0.425
-0.435
-0.42
-0.425
-0.42
-0.415
-0.41
-0.41
-0.41
-0.4
-0.405
-0.415
-0.41
-0.42
-0.405
-0.39
-0.395
-0.39
-0.385
-0.395
-0.395
-0.39
-0.39
-0.385
-0.38
-0.37
-0.375
-0.365
-0.36
-0.365
-0.35
-0.35
-0.35
-0.35
-0.35
-0.35
-0.36
-0.345
-0.34
-0.325
-0.33
-0.33
-0.335
-0.33
-0.33
-0.34
-0.35
-0.355
-0.35
-0.34
-0.33
-0.32
-0.315
-0.305
-0.305
-0.3
-0.295
-0.29
-0.3
-0.305
-0.31
-0.285
-0.27
-0.265
-0.265
-0.265
-0.265
-0.28
-0.285
-0.275
-0.295
-0.31
-0.31
-0.305
-0.315
-0.305
-0.295
-0.3
-0.29
-0.295
-0.305
-0.305
-0.32
-0.32
-0.33
-0.325
-0.31
-0.3
-0.295
-0.29
-0.3
-0.295
-0.29
-0.3
-0.305
-0.32
-0.32
-0.33
-0.315
-0.315
-0.3
-0.295
-0.29
-0.285
-0.285
-0.3
-0.305
-0.31
-0.32
-0.325
-0.315
-0.305
-0.305
-0.29
-0.305
-0.3
-0.305
-0.305
-0.31
-0.325
-0.32
-0.315
-0.315
-0.31
-0.315
-0.31
-0.3
-0.305
-0.3
-0.305
-0.31
-0.31
-0.3
-0.295
-0.27
-0.265
-0.245
-0.245
-0.245
-0.235
-0.225
-0.22
-0.205
-0.195
-0.165
-0.16
-0.16
-0.15
-0.145
-0.155
-0.16
-0.17
-0.185
-0.19
-0.205
-0.23
-0.23
-0.26
-0.265
-0.275
-0.27
-0.29
-0.305
-0.32
-0.34
-0.36
-0.375
-0.39
-0.39
-0.375
-0.37
-0.365
-0.355
-0.37
-0.385
-0.38
-0.4
-0.405
-0.4
-0.4
-0.415
-0.425
-0.42
-0.42
-0.42
-0.405
-0.38
-0.33
-0.25
-0.14
0.005
0.2
0.43
0.695
0.975
1.2
1.365
1.405
1.295
1.085
0.805
0.47
0.155
-0.09
-0.29
-0.415
-0.455
-0.445
-0.425
-0.38
-0.365
-0.36
-0.375
-0.41
-0.43
-0.46
-0.465
-0.485
-0.47
-0.475
-0.465
-0.46
-0.455
-0.455
-0.465
-0.475
-0.47
-0.485
-0.485
-0.47
-0.47
-0.475
-0.455
-0.45
-0.45
-0.45
-0.445
-0.46
-0.46
-0.47
-0.475
-0.465
-0.45
-0.43
-0.425
-0.415
-0.435
-0.435
-0.44
-0.45
-0.465
-0.465
-0.455
-0.45
-0.435
-0.435
-0.415
-0.405
-0.42
-0.4
-0.41
-0.415
-0.425
-0.415
-0.415
-0.415
-0.39
-0.385
-0.37
-0.35
-0.35
-0.355
-0.35
-0.355
-0.36
-0.37
-0.37
-0.375
-0.37
-0.36
-0.345
-0.33
-0.33
-0.33
-0.345
-0.34
-0.35
-0.345
-0.34
-0.345
-0.345
-0.335
-0.32
-0.315
-0.315
-0.31
-0.305
-0.295
-0.285
-0.27
-0.265
-0.27
-0.265
-0.255
-0.255
-0.235
-0.26
-0.245
-0.255
-0.27
-0.275
-0.275
-0.275
-0.275
-0.275
-0.27
-0.27
-0.265
-0.27
-0.275
-0.28
-0.275
-0.28
-0.28
-0.295
-0.29
-0.29
-0.29
-0.275
-0.27
-0.275
-0.28
-0.285
-0.285
-0.295
-0.3
-0.295
-0.3
-0.29
-0.285
-0.27
-0.27
-0.27
-0.28
-0.29
-0.29
-0.28
-0.275
-0.27
-0.275
-0.265
-0.275
-0.27
-0.26
-0.275
-0.285
-0.27
-0.285
-0.295
-0.29
-0.285
-0.27
-0.26
-0.25
-0.24
-0.245
-0.26
-0.27
-0.285
-0.3
-0.285
-0.285
-0.27
-0.255
-0.23
-0.225
-0.195
-0.19
-0.19
-0.175
-0.175
-0.17
-0.18
-0.165
-0.15
-0.125
-0.1
-0.075
-0.065
-0.065
-0.085
-0.11
-0.115
-0.115
-0.135
-0.15
-0.165
-0.19
-0.205
-0.23
-0.23
-0.245
-0.245
-0.26
-0.27
-0.295
-0.305
-0.325
-0.32
-0.32
-0.315
-0.305
-0.29
-0.295
-0.295
-0.305
-0.315
-0.32
-0.33
-0.34
-0.345
-0.37
-0.365
-0.345
-0.295
-0.195
-0.06
0.12
0.325
0.575
0.825
1.07
1.275
1.39
1.4
1.275
1.04
0.735
0.405
0.09
-0.135
-0.305
-0.385
-0.435
-0.39
-0.355
-0.325
-0.305
-0.315
-0.325
-0.365
-0.38
-0.395
-0.4
-0.405
-0.4
-0.395
-0.385
-0.385
-0.385
-0.37
-0.375
-0.385
-0.38
-0.375
-0.37
-0.375
-0.38
-0.38
-0.375
-0.365
-0.38
-0.375
-0.365
-0.355
-0.375
-0.385
-0.38
-0.38
-0.375
-0.37
-0.35
-0.34
-0.335
-0.335
-0.35
-0.345
-0.355
-0.36
-0.35
-0.345
-0.34
-0.33
-0.32
-0.31
-0.3
-0.285
-0.28
-0.295
-0.275
-0.285
-0.285
-0.305
-0.305
-0.295
-0.28
-0.265
-0.255
-0.245
-0.25
-0.245
-0.24
-0.235
-0.235
-0.23
-0.24
-0.235
-0.235
-0.23
-0.225
-0.205
-0.24
-0.23
-0.225
-0.23
-0.23
-0.245
-0.245
-0.22
-0.2
-0.175
-0.165
-0.145
-0.145
-0.14
-0.14
-0.135
-0.135
-0.135
-0.12
-0.125
-0.14
-0.145
-0.145
-0.135
-0.13
-0.135
-0.13
-0.145
-0.145
-0.145
-0.155
-0.16
-0.155
-0.16
-0.155
-0.145
-0.14
-0.145
-0.135
-0.13
-0.135
-0.13
-0.135
-0.13
-0.14
-0.135
-0.145
-0.135
-0.13
-0.125
-0.125
-0.13
-0.125
-0.12
-0.12
-0.12
-0.11
-0.125
-0.125
-0.12
-0.125
-0.135
-0.11
-0.115
-0.12
-0.125
-0.125
-0.115
-0.125
-0.12
-0.11
-0.095
-0.09
-0.1
-0.1
-0.125
-0.11
-0.12
-0.125
-0.125
-0.12
-0.12
-0.115
-0.08
-0.095
-0.085
-0.09
-0.105
-0.115
-0.1
-0.085
-0.06
-0.04
-0.035
-0.015
0.005
0.02
0.035
0.03
0.045
0.055
0.055
0.05
0.045
0.04
0.055
0.05
0.055
0.045
0.035
0.005
-0.03
-0.055
-0.09
-0.11
-0.115
-0.13
-0.145
-0.135
-0.13
-0.13
-0.14
-0.145
-0.16
-0.17
-0.175
-0.175
-0.175
-0.17
-0.17
-0.16
-0.145
-0.145
-0.165
-0.17
-0.18
-0.19
-0.16
-0.12
-0.045
0.085
0.27
0.505
0.765
1.05
1.3
1.51
1.63
1.645
1.51
1.255
0.92
0.55
0.25
0.015
-0.125
-0.19
-0.21
-0.19
-0.17
-0.13
-0.125
-0.15
-0.18
-0.215
-0.24
-0.25
-0.245
-0.21
-0.22
-0.205
-0.205
-0.21
-0.23
-0.245
-0.24
-0.245
-0.23
-0.235
-0.225
-0.22
-0.23
-0.215
-0.21
-0.22
-0.23
-0.23
-0.24
-0.24
-0.24
-0.23
-0.23
-0.22
-0.22
-0.21
-0.21
-0.215
-0.225
-0.22
-0.205
-0.22
-0.195
-0.195
-0.185
-0.18
-0.18
-0.16
-0.165
-0.175
-0.17
-0.18
-0.18
-0.175
-0.17
-0.165
-0.145
-0.125
-0.115
-0.115
-0.12
-0.13
-0.13
-0.13
-0.12
-0.13
-0.135
-0.125
-0.115
-0.11
-0.12
-0.12
-0.11
-0.12
-0.11
-0.115
-0.105
-0.095
-0.085
-0.085
-0.065
-0.055
-0.05
-0.045
-0.045
-0.05
-0.05
-0.035
-0.06
-0.05
-0.045
-0.05
-0.035
-0.055
-0.06
-0.065
-0.065
-0.07
-0.065
-0.075
-0.075
-0.07
-0.075
-0.055
-0.05
-0.04
-0.055
-0.05
-0.07
-0.075
-0.08
-0.09
-0.09
-0.08
-0.065
-0.065
-0.055
-0.05
-0.045
-0.06
-0.065
-0.075
-0.08
-0.09
-0.085
-0.08
-0.075
-0.075
-0.055
-0.035
-0.04
-0.035
-0.05
-0.055
-0.06
-0.065
-0.075
-0.075
-0.075
-0.07
-0.055
-0.04
-0.045
-0.05
-0.055
-0.06
-0.07
-0.07
-0.08
-0.07
-0.07
-0.065
-0.06
-0.045
-0.055
-0.055
-0.055
-0.05
-0.04
-0.05
-0.04
-0.03
-0.02
0
0.01
0.025
0.04
0.04
0.07
0.065
0.09
0.1
0.09
0.085
0.075
0.08
0.08
0.085
0.085
0.06
0.05
0.015
-0.02
-0.03
-0.055
-0.055
-0.08
-0.075
-0.09
-0.105
-0.11
-0.13
-0.14
-0.155
-0.165
-0.16
-0.155
-0.16
-0.165
-0.165
-0.155
-0.145
-0.15
-0.165
-0.17
-0.18
-0.2
-0.22
-0.205
-0.165
-0.105
-0.015
0.13
0.32
0.535
0.79
1.05
1.3
1.495
1.63
1.66
1.545
1.31
1.015
0.675
0.37
0.135
-0.04
-0.145
-0.195
-0.205
-0.195
-0.18
-0.175
-0.17
-0.185
-0.195
-0.215
-0.235
-0.245
-0.25
-0.25
-0.26
-0.265
-0.265
-0.265
-0.28
-0.27
-0.25
-0.245
-0.25
-0.255
-0.26
-0.255
-0.265
-0.27
-0.28
-0.28
-0.27
-0.26
-0.25
-0.24
-0.245
-0.25
-0.25
-0.25
-0.255
-0.26
-0.255
-0.26
-0.275
-0.26
-0.23
-0.215
-0.2
-0.205
-0.21
-0.215
-0.22
-0.21
-0.225
-0.235
-0.225
-0.21
-0.2
-0.185
-0.175
-0.165
-0.17
-0.16
-0.18
-0.175
-0.175
-0.18
-0.16
-0.165
-0.145
-0.145
-0.135
-0.135
-0.145
-0.14
-0.155
-0.155
-0.165
-0.165
-0.15
-0.14
-0.13
-0.125
-0.105
-0.105
-0.095
-0.095
-0.1
-0.105
-0.09
-0.1
-0.095
-0.09
-0.09
-0.09
-0.085
-0.075
-0.085
-0.085
-0.105
-0.12
-0.115
-0.13
-0.105
-0.11
-0.105
-0.1
-0.1
-0.105
-0.11
-0.105
-0.115
-0.115
-0.115
-0.12
-0.12
-0.11
-0.105
-0.1
-0.1
-0.095
-0.1
-0.105
-0.1
-0.105
-0.105
-0.1
-0.095
-0.1
-0.095
-0.09
-0.085
-0.085
-0.08
-0.09
-0.095
-0.095
-0.1
-0.09
-0.09
-0.08
-0.07
-0.07
-0.065
-0.07
-0.065
-0.08
-0.085
-0.095
-0.085
-0.09
-0.08
-0.07
-0.08
-0.06
-0.06
-0.055
-0.06
-0.07
-0.07
-0.08
-0.085
-0.065
-0.045
-0.035
-0.015
0.005
0.02
0.025
0.03
0.025
0.02
0.025
0.04
0.055
0.065
0.08
0.085
0.095
0.09
0.09
0.09
0.075
0.05
0.035
0.015
-0.015
-0.025
-0.045
-0.05
-0.06
-0.075
-0.08
-0.09
-0.105
-0.125
-0.135
-0.145
-0.145
-0.145
-0.14
-0.145
-0.15
-0.155
-0.155
-0.15
-0.155
-0.155
-0.17
-0.175
-0.185
-0.19
-0.205
-0.195
-0.185
-0.15
-0.08
0.015
0.13
0.305
0.515
0.77
1.045
1.315
1.525
1.65
1.635
1.49
1.245
0.915
0.585
0.28
0.055
-0.095
-0.19
-0.21
-0.195
-0.155
-0.14
-0.135
-0.15
-0.185
-0.21
-0.24
-0.26
-0.265
-0.27
-0.255
-0.24
-0.245
-0.225
-0.23
-0.235
-0.26
-0.265
-0.28
-0.27
-0.285
-0.275
-0.265
-0.26
-0.24
-0.23
-0.23
-0.24
-0.25
-0.255
-0.255
-0.27
-0.25
-0.265
-0.25
-0.25
-0.235
-0.23
-0.225
-0.225
-0.23
-0.225
-0.22
-0.23
-0.235
-0.22
-0.22
-0.21
-0.2
-0.195
-0.18
-0.19
-0.185
-0.18
-0.2
-0.185
-0.185
-0.175
-0.175
-0.16
-0.14
-0.13
-0.13
-0.14
-0.16
-0.15
-0.15
-0.145
-0.15
-0.14
-0.14
-0.125
-0.115
-0.12
-0.12
-0.125
-0.13
-0.125
-0.125
-0.125
-0.125
-0.115
-0.11
-0.105
-0.095
-0.085
-0.075
-0.08
-0.065
-0.065
-0.075
-0.08
-0.08
-0.08
-0.08
-0.075
-0.065
-0.075
-0.075
-0.08
-0.09
-0.09
-0.095
-0.095
-0.09
-0.095
-0.09
-0.1
-0.09
-0.095
-0.1
-0.095
-0.095
-0.085
-0.1
-0.115
-0.11
-0.11
-0.105
-0.11
-0.095
-0.075
-0.095
-0.085
-0.09
-0.1
-0.095
-0.1
-0.11
-0.105
-0.09
-0.075
-0.07
-0.05
-0.05
-0.05
-0.075
-0.085
-0.09
-0.095
-0.09
-0.08
-0.065
-0.07
-0.06
-0.06
-0.075
-0.075
-0.085
-0.085
-0.085
-0.09
-0.085
-0.085
-0.075
-0.08
-0.07
-0.055
-0.055
-0.04
-0.04
-0.035
-0.04
-0.035
-0.01
0
0.015
0.035
0.04
0.06
0.07
0.1
0.11
0.11
0.11
0.085
0.08
0.075
0.07
0.075
0.075
0.075
0.07
0.04
0.025
-0.005
-0.035
-0.04
-0.075
-0.09
-0.1
-0.11
-0.11
-0.105
-0.105
-0.1
-0.105
-0.11
-0.125
-0.125
-0.135
-0.135
-0.145
-0.15
-0.145
-0.135
-0.15
-0.135
-0.15
-0.165
-0.18
-0.16
-0.125
-0.035
0.08
0.225
0.42
0.675
0.96
1.245
1.49
1.635
1.65
1.525
1.29
0.985
0.645
0.33
0.08
-0.1
-0.18
-0.2
-0.16
-0.14
-0.11
-0.11
-0.11
-0.135
-0.145
-0.18
-0.19
-0.2
-0.21
-0.21
-0.21
-0.215
-0.205
-0.22
-0.215
-0.215
-0.205
-0.2
-0.195
-0.18
-0.19
-0.195
-0.195
-0.2
-0.205
-0.21
-0.215
-0.205
-0.18
-0.175
-0.16
-0.155
-0.17
-0.16
-0.165
-0.18
-0.185
-0.2
-0.19
-0.185
-0.165
-0.155
-0.145
-0.135
-0.14
-0.13
-0.16
-0.15
-0.145
-0.145
-0.15
-0.145
-0.145
-0.13
-0.115
-0.11
-0.11
-0.1
-0.105
-0.1
-0.1
-0.105
-0.11
-0.115
-0.105
-0.08
-0.065
-0.065
-0.05
-0.06
-0.06
-0.065
-0.07
-0.065
-0.06
-0.07
-0.07
-0.07
-0.07
-0.06
-0.055
-0.05
-0.06
-0.05
-0.05
-0.05
-0.05
-0.02
-0.01
-0.02
-0.005
0.01
0.015
0.015
0
0.01
0
0.005
0
-0.005
-0.005
0
-0.01
-0.015
-0.02
-0.015
-0.025
-0.035
-0.03
-0.025
-0.025
-0.02
-0.02
-0.02
-0.025
-0.005
-0.01
-0.01
-0.01
-0.015
-0.02
-0.03
-0.03
-0.03
-0.015
-0.015
-0.01
0
0.005
0
-0.015
-0.02
-0.03
-0.045
-0.05
-0.05
-0.04
-0.015
-0.01
-0.01
-0.01
-0.015
-0.02
-0.025
-0.025
-0.03
-0.035
-0.04
-0.035
-0.025
-0.02
-0.005
0
-0.005
-0.025
-0.035
-0.03
-0.04
-0.055
-0.06
-0.05
-0.035
-0.02
0.005
0.015
0.03
0.035
0.03
0.035
0.035
0.025
0.035
0.04
0.06
0.075
0.12
0.14
0.165
0.175
0.16
0.145
0.135
0.12
0.11
0.1
0.105
0.1
0.1
0.07
0.055
0.025
-0.005
-0.02
-0.04
-0.055
-0.065
-0.075
-0.095
-0.095
-0.095
-0.08
-0.075
-0.08
-0.08
-0.085
-0.105
-0.11
-0.12
-0.135
-0.11
-0.1
-0.11
-0.13
-0.145
-0.13
-0.11
-0.05
0.045
0.16
0.335
0.565
0.8
1.06
1.32
1.52
1.63
1.615
1.455
1.215
0.885
0.54
0.25
0.035
-0.11
-0.16
-0.165
-0.13
-0.115
-0.08
-0.075
-0.1
-0.135
-0.16
-0.18
-0.2
-0.19
-0.18
-0.165
-0.16
-0.165
-0.165
-0.18
-0.19
-0.19
-0.195
-0.195
-0.195
-0.185
-0.17
-0.17
-0.165
-0.16
-0.16
-0.17
-0.18
-0.165
-0.17
-0.175
-0.18
-0.185
-0.165
-0.16
-0.155
-0.14
-0.14
-0.14
-0.15
-0.155
-0.155
-0.15
-0.145
-0.145
-0.15
-0.135
-0.125
-0.12
-0.115
-0.135
-0.125
-0.115
-0.12
-0.115
-0.125
-0.105
-0.105
-0.1
-0.1
-0.095
-0.075
-0.085
-0.075
-0.085
-0.06
-0.07
-0.065
-0.055
-0.06
-0.055
-0.065
-0.055
-0.05
-0.065
-0.07
-0.06
-0.065
-0.065
-0.06
-0.055
-0.045
-0.04
-0.045
-0.04
-0.03
-0.03
-0.02
-0.02
-0.005
0
0.01
0.025
0.035
0.045
0.045
0.04
0.025
0.02
0.02
0.005
-0.005
-0.005
0
0.01
0.025
0.03
0.015
0.02
0.005
-0.01
-0.005
-0.02
-0.035
-0.03
-0.03
-0.01
-0.01
0.01
0.015
0.01
0.01
0
0.005
0.005
-0.01
-0.02
-0.015
-0.01
-0.015
-0.01
0.01
0.01
0.015
0.01
0.01
0.005
0
0.005
0
0.005
0.015
0.015
0.01
0.015
0.005
0
0.005
0.01
0.015
0.01
0.005
0
0
0.01
0.02
0.015
0.015
-0.005
0
0
0.005
0.005
0.015
0.02
0.03
0.03
0.045
0.055
0.05
0.055
0.06
0.055
0.055
0.055
0.06
0.075
0.095
0.115
0.15
0.17
0.175
0.17
0.17
0.175
0.155
0.14
0.145
0.165
0.165
0.16
0.145
0.12
0.09
0.07
0.04
0.01
-0.005
-0.025
-0.04
-0.05
-0.045
-0.05
-0.02
-0.02
-0.02
-0.035
-0.045
-0.055
-0.055
-0.07
-0.06
-0.065
-0.065
-0.055
-0.055
-0.06
-0.07
-0.08
-0.09
-0.075
-0.01
0.08
0.235
0.435
0.665
0.93
1.18
1.43
1.635
1.715
1.68
1.495
1.22
0.88
0.56
0.27
0.055
-0.07
-0.145
-0.15
-0.125
-0.08
-0.045
-0.055
-0.06
-0.07
-0.1
-0.125
-0.145
-0.14
-0.155
-0.145
-0.135
-0.13
-0.125
-0.145
-0.15
-0.14
-0.155
-0.135
-0.135
-0.13
-0.12
-0.12
-0.115
-0.12
-0.11
-0.105
-0.115
-0.115
-0.12
-0.125
-0.125
-0.11
-0.11
-0.11
-0.1
-0.115
-0.11
-0.11
-0.105
-0.105
-0.085
-0.075
-0.065
-0.06
-0.065
-0.06
-0.07
-0.06
-0.06
-0.07
-0.065
-0.06
-0.05
-0.045
-0.04
-0.02
-0.01
-0.005
-0.01
-0.02
-0.02
-0.03
-0.02
-0.025
-0.01
0.005
0.005
0.01
0.01
0.01
0.01
-0.005
0
-0.025
-0.035
-0.015
0
0.025
0.045
0.07
0.085
0.08
0.09
0.085
0.075
0.065
0.065
0.07
0.085
0.085
0.085
0.085
0.07
0.06
0.055
0.06
0.055
0.045
0.035
0.04
0.035
0.04
0.055
0.06
0.06
0.055
0.055
0.065
0.05
0.035
0.025
0.025
0.035
0.04
0.065
0.07
0.07
0.065
0.065
0.055
0.06
0.05
0.05
0.055
0.055
0.065
0.065
0.065
0.06
0.075
0.07
0.075
0.075
0.075
0.07
0.075
0.08
0.075
0.08
0.095
0.095
0.105
0.11
0.11
0.105
0.105
0.085
0.09
0.075
0.065
0.07
0.065
0.08
0.09
0.105
0.105
0.11
0.115
0.12
0.135
0.155
0.16
0.18
0.19
0.195
0.205
0.23
0.24
0.26
0.26
0.27
0.26
0.265
0.26
0.255
0.245
0.24
0.225
0.22
0.195
0.165
0.145
0.13
0.12
0.115
0.12
0.115
0.095
0.08
0.06
0.055
0.045
0.035
0.025
0.03
0.015
0.03
0.04
0.035
0.045
0.05
0.045
0.035
0.025
0.005
-0.005
-0.005
0.02
0.09
0.2
0.335
0.52
0.735
0.98
1.24
1.495
1.7
1.83
1.86
1.775
1.56
1.28
0.94
0.615
0.345
0.145
0.035
-0.025
-0.03
-0.015
0.01
0.045
0.055
0.05
0.04
0.015
-0.005
-0.025
-0.035
-0.03
-0.025
-0.04
-0.045
-0.075
-0.075
-0.06
-0.055
-0.03
-0.03
-0.015
-0.015
-0.025
-0.025
-0.035
-0.035
-0.04
-0.04
-0.05
-0.025
-0.02
-0.01
-0.015
-0.01
-0.02
-0.025
-0.035
-0.05
-0.025
-0.015
-0.005
0.005
0.005
0
-0.005
-0.015
-0.005
-0.005
0
0.005
0.01
0.005
0.02
0.025
0.025
0.03
0.03
0.035
0.04
0.035
0.06
0.055
0.06
0.06
0.07
0.085
0.085
0.085
0.07
0.075
0.055
0.065
0.06
0.05
0.05
0.06
0.07
0.08
0.08
0.08
0.085
0.07
0.08
0.095
0.095
0.105
0.13
0.135
0.15
0.155
0.16
0.145
0.13
0.135
0.12
0.125
0.115
0.105
0.11
0.13
0.125
0.13
0.13
0.13
0.13
0.12
0.1
0.08
0.065
0.06
0.065
0.07
0.085
0.09
0.1
0.095
0.09
0.09
0.09
0.08
0.075
0.075
0.09
0.1
0.1
0.1
0.12
0.115
0.125
0.12
0.12
0.11
0.1
0.1
0.085
0.095
0.115
0.11
0.12
0.12
0.125
0.125
0.11
0.105
0.09
0.09
0.095
0.1
0.095
0.095
0.11
0.12
0.11
0.1
0.085
0.08
0.07
0.085
0.095
0.11
0.11
0.115
0.125
0.15
0.16
0.175
0.175
0.175
0.175
0.185
0.195
0.215
0.235
0.26
0.27
0.27
0.265
0.255
0.26
0.23
0.225
0.215
0.2
0.19
0.185
0.165
0.13
0.125
0.1
0.075
0.055
0.035
0.025
0.01
0
0.005
-0.005
-0.005
0.02
0.005
0.005
0
-0.015
-0.01
-0.01
-0.02
-0.025
-0.03
-0.055
-0.035
-0.005
0.055
0.145
0.285
0.45
0.675
0.95
1.245
1.53
1.75
1.845
1.8
1.62
1.32
0.96
0.6
0.29
0.08
-0.035
-0.08
-0.08
-0.045
-0.01
0
-0.005
-0.025
-0.06
-0.09
-0.12
-0.125
-0.135
-0.13
-0.125
-0.13
-0.13
-0.13
-0.125
-0.105
-0.105
-0.11
-0.125
-0.14
-0.14
-0.145
-0.145
-0.155
-0.15
-0.14
-0.125
-0.12
-0.12
-0.13
-0.145
-0.17
-0.15
-0.165
-0.165
-0.155
-0.155
-0.15
-0.13
-0.115
-0.13
-0.135
-0.145
-0.13
-0.14
-0.135
-0.135
-0.13
-0.135
-0.125
-0.12
-0.11
-0.09
-0.08
-0.085
-0.1
-0.105
-0.095
-0.095
-0.085
-0.075
-0.075
-0.06
-0.055
-0.065
-0.045
-0.055
-0.05
-0.07
-0.06
-0.055
-0.055
-0.055
-0.075
-0.05
-0.055
-0.05
-0.045
-0.06
-0.06
-0.065
-0.05
-0.045
-0.035
-0.02
-0.005
-0.005
0.01
0.005
0
-0.005
-0.01
-0.015
-0.015
0
0.005
0.01
0
0.01
0.005
-0.005
-0.005
-0.015
-0.025
-0.03
-0.045
-0.025
-0.025
-0.02
-0.005
-0.02
-0.01
-0.015
-0.025
-0.04
-0.045
-0.055
-0.065
-0.055
-0.055
-0.045
-0.04
-0.045
-0.04
-0.04
-0.03
-0.025
-0.04
-0.035
-0.05
-0.045
-0.045
-0.04
-0.035
-0.025
-0.01
-0.015
-0.015
-0.02
-0.03
-0.035
-0.04
-0.04
-0.045
-0.035
-0.03
-0.02
-0.025
-0.015
-0.015
-0.015
-0.015
-0.03
-0.04
-0.06
-0.05
-0.055
-0.05
-0.05
-0.03
-0.015
-0.01
-0.01
-0.005
-0.01
0
-0.005
0.02
0.035
0.045
0.065
0.06
0.07
0.075
0.085
0.1
0.105
0.1
0.095
0.1
0.105
0.11
0.11
0.12
0.12
0.1
0.095
0.07
0.03
0.005
-0.015
-0.035
-0.04
-0.06
-0.07
-0.08
-0.09
-0.105
-0.12
-0.11
-0.11
-0.115
-0.12
-0.13
-0.125
-0.13
-0.135
-0.14
-0.145
-0.125
-0.13
-0.145
-0.155
-0.16
-0.18
-0.145
-0.11
-0.025
0.075
0.195
0.375
0.61
0.84
1.1
1.36
1.56
1.66
1.645
1.505
1.245
0.94
0.625
0.335
0.1
-0.06
-0.14
-0.185
-0.18
-0.145
-0.13
-0.11
-0.12
-0.14
-0.165
-0.195
-0.225
-0.225
-0.25
-0.245
-0.235
-0.245
-0.23
-0.24
-0.23
-0.23
-0.225
-0.225
-0.235
-0.245
-0.245
-0.255
-0.25
-0.25
-0.255
-0.245
-0.235
-0.235
-0.225
-0.235
-0.245
-0.235
-0.24
-0.25
-0.25
-0.245
-0.25
-0.24
-0.25
-0.22
-0.21
-0.215
-0.21
-0.22
-0.22
-0.23
-0.225
-0.24
-0.23
-0.22
-0.215
-0.205
-0.19
-0.185
-0.18
-0.19
-0.2
-0.2
-0.195
-0.18
-0.18
-0.175
-0.165
-0.155
-0.17
-0.155
-0.15
-0.16
-0.15
-0.155
-0.145
-0.135
-0.14
-0.135
-0.15
-0.15
-0.15
-0.145
-0.135
-0.135
-0.14
-0.15
-0.145
-0.14
-0.14
-0.115
-0.105
-0.12
-0.1
-0.105
-0.1
-0.105
-0.125
-0.115
-0.11
-0.105
-0.095
-0.075
-0.075
-0.085
-0.08
-0.085
-0.095
-0.1
-0.105
-0.115
-0.125
-0.13
-0.13
-0.11
-0.105
-0.1
-0.105
-0.115
-0.105
-0.12
-0.12
-0.135
-0.145
-0.135
-0.13
-0.13
-0.12
-0.12
-0.12
-0.13
-0.125
-0.125
-0.12
-0.125
-0.14
-0.14
-0.145
-0.135
-0.12
-0.105
-0.115
-0.12
-0.11
-0.115
-0.11
-0.11
-0.11
-0.115
-0.12
-0.11
-0.115
-0.115
-0.115
-0.12
-0.105
-0.105
-0.125
-0.125
-0.12
-0.11
-0.12
-0.12
-0.12
-0.105
-0.11
-0.115
-0.125
-0.13
-0.135
-0.135
-0.13
-0.125
-0.11
-0.115
-0.09
-0.07
-0.065
-0.06
-0.055
-0.06
-0.06
-0.06
-0.05
-0.045
-0.015
0.01
0.035
0.045
0.07
0.075
0.065
0.03
0.015
0.01
0
0
0
-0.005
-0.015
-0.035
-0.055
-0.085
-0.095
-0.125
-0.14
-0.16
-0.19
-0.195
-0.2
-0.185
-0.185
-0.185
-0.19
-0.195
-0.205
-0.22
-0.215
-0.23
-0.235
-0.23
-0.225
-0.23
-0.24
-0.25
-0.25
-0.255
-0.255
-0.22
-0.16
-0.065
0.065
0.25
0.47
0.72
0.995
1.255
1.455
1.535
1.48
1.29
0.99
0.65
0.33
0.065
-0.12
-0.23
-0.27
-0.26
-0.24
-0.215
-0.185
-0.205
-0.22
-0.255
-0.29
-0.305
-0.32
-0.32
-0.295
-0.29
-0.29
-0.29
-0.295
-0.305
-0.32
-0.33
-0.335
-0.325
-0.325
-0.295
-0.3
-0.295
-0.295
-0.305
-0.3
-0.295
-0.31
-0.32
-0.345
-0.325
-0.315
-0.305
-0.295
-0.285
-0.275
-0.28
-0.275
-0.28
-0.28
-0.295
-0.305
-0.295
-0.29
-0.27
-0.255
-0.245
-0.255
-0.25
-0.26
-0.265
-0.265
-0.275
-0.27
-0.27
-0.265
-0.25
-0.24
-0.23
-0.215
-0.22
-0.235
-0.22
-0.225
-0.225
-0.22
-0.22
-0.215
-0.21
-0.205
-0.2
-0.2
-0.2
-0.2
-0.19
-0.205
-0.205
-0.21
-0.215
-0.21
-0.205
-0.195
-0.17
-0.155
-0.15
-0.14
-0.13
-0.145
-0.15
-0.15
-0.15
-0.15
-0.145
-0.16
-0.16
-0.145
-0.145
-0.14
-0.15
-0.155
-0.17
-0.175
-0.175
-0.185
-0.185
-0.185
-0.165
-0.16
-0.16
-0.16
-0.175
-0.17
-0.185
-0.175
-0.18
-0.19
-0.175
-0.175
-0.17
-0.17
-0.17
-0.165
-0.155
-0.16
-0.165
-0.17
-0.175
-0.18
-0.16
-0.165
-0.155
-0.145
-0.15
-0.15
-0.16
-0.175
-0.175
-0.18
-0.175
-0.165
-0.16
-0.16
-0.165
-0.15
-0.16
-0.16
-0.16
-0.17
-0.175
-0.175
-0.175
-0.18
-0.19
-0.18
-0.175
-0.155
-0.15
-0.145
-0.15
-0.155
-0.165
-0.17
-0.155
-0.14
-0.13
-0.105
-0.085
-0.08
-0.065
-0.065
-0.06
-0.06
-0.05
-0.045
-0.02
-0.03
-0.02
-0.015
-0.01
-0.01
-0.01
-0.015
-0.035
-0.06
-0.085
-0.1
-0.115
-0.13
-0.145
-0.165
-0.18
-0.19
-0.195
-0.215
-0.225
-0.235
-0.24
-0.255
-0.265
-0.26
-0.265
-0.255
-0.25
-0.245
-0.25
-0.245
-0.245
-0.25
-0.26
-0.27
-0.27
-0.29
-0.285
-0.295
-0.26
-0.22
-0.15
-0.035
0.105
0.295
0.51
0.75
0.995
1.22
1.395
1.465
1.39
1.2
0.905
0.6
0.295
0.025
-0.16
-0.28
-0.33
-0.335
-0.31
-0.265
-0.235
-0.245
-0.26
-0.29
-0.32
-0.345
-0.345
-0.37
-0.36
-0.365
-0.355
-0.35
-0.34
-0.34
-0.345
-0.345
-0.34
-0.34
-0.34
-0.35
-0.35
-0.36
-0.36
-0.365
-0.355
-0.34
-0.34
-0.33
-0.315
-0.31
-0.32
-0.33
-0.34
-0.34
-0.33
-0.325
-0.325
-0.31
-0.315
-0.315
-0.32
-0.325
-0.31
-0.315
-0.325
-0.31
-0.31
-0.3
-0.3
-0.295
-0.295
-0.295
-0.28
-0.28
-0.285
-0.295
-0.285
-0.28
-0.27
-0.26
-0.255
-0.26
-0.255
-0.255
-0.265
-0.265
-0.245
-0.255
-0.24
-0.245
-0.245
-0.235
-0.24
-0.235
-0.24
-0.235
-0.245
-0.24
-0.235
-0.245
-0.23
-0.215
-0.195
-0.185
-0.175
-0.155
-0.16
-0.16
-0.17
-0.18
-0.185
-0.2
-0.2
-0.19
-0.19
-0.19
-0.19
-0.18
-0.185
-0.175
-0.18
-0.19
-0.2
-0.205
-0.225
-0.215
-0.205
-0.205
-0.185
-0.2
-0.205
-0.205
-0.205
-0.215
-0.225
-0.225
-0.23
-0.22
-0.22
-0.21
-0.2
-0.19
-0.18
-0.18
-0.19
-0.2
-0.21
-0.23
-0.225
-0.225
-0.21
-0.215
-0.205
-0.2
-0.195
-0.185
-0.185
-0.21
-0.22
-0.22
-0.225
-0.22
-0.22
-0.22
-0.215
-0.22
-0.205
-0.185
-0.195
-0.21
-0.22
-0.22
-0.22
-0.225
-0.225
-0.21
-0.2
-0.17
-0.165
-0.145
-0.14
-0.14
-0.14
-0.135
-0.13
-0.115
-0.105
-0.08
-0.05
-0.035
-0.035
-0.03
-0.045
-0.045
-0.055
-0.08
-0.095
-0.11
-0.13
-0.155
-0.17
-0.175
-0.195
-0.215
-0.225
-0.24
-0.25
-0.265
-0.28
-0.285
-0.29
-0.28
-0.28
-0.27
-0.285
-0.285
-0.285
-0.3
-0.3
-0.315
-0.305
-0.3
-0.3
-0.305
-0.31
-0.32
-0.305
-0.255
-0.175
-0.07
0.1
0.33
0.59
0.865
1.13
1.33
1.425
1.39
1.205
0.92
0.585
0.255
-0.025
-0.215
-0.325
-0.375
-0.365
-0.335
-0.29
-0.265
-0.26
-0.28
-0.315
-0.335
-0.355
-0.38
-0.38
-0.395
-0.4
-0.385
-0.37
-0.35
-0.35
-0.365
-0.375
-0.38
-0.385
-0.38
-0.38
-0.38
-0.375
-0.37
-0.36
-0.345
-0.355
-0.34
-0.34
-0.345
-0.35
-0.355
-0.36
-0.36
-0.365
-0.365
-0.355
-0.34
-0.335
-0.34
-0.335
-0.355
-0.355
-0.36
-0.355
-0.335
-0.33
-0.32
-0.31
-0.305
-0.305
-0.305
-0.31
-0.31
-0.32
-0.32
-0.31
-0.31
-0.295
-0.295
-0.285
-0.275
-0.265
-0.26
-0.265
-0.27
-0.275
-0.285
-0.27
-0.275
-0.26
-0.26
-0.245
-0.245
-0.235
-0.245
-0.25
-0.255
-0.265
-0.265
-0.25
-0.245
-0.245
-0.235
-0.215
-0.2
-0.19
-0.18
-0.18
-0.19
-0.195
-0.2
-0.2
-0.21
-0.22
-0.2
-0.185
-0.18
-0.185
-0.175
-0.195
-0.215
-0.22
-0.22
-0.23
-0.225
-0.225
-0.21
-0.2
-0.21
-0.2
-0.215
-0.21
-0.215
-0.22
-0.22
-0.235
-0.23
-0.23
-0.23
-0.22
-0.21
-0.21
-0.2
-0.205
-0.21
-0.215
-0.23
-0.235
-0.225
-0.215
-0.205
-0.19
-0.19
-0.2
-0.2
-0.205
-0.21
-0.225
-0.23
-0.215
-0.22
-0.22
-0.21
-0.22
-0.21
-0.21
-0.2
-0.21
-0.235
-0.245
-0.25
-0.25
-0.24
-0.24
-0.23
-0.225
-0.205
-0.205
-0.19
-0.185
-0.17
-0.165
-0.165
-0.16
-0.15
-0.145
-0.125
-0.105
-0.095
-0.06
-0.05
-0.03
-0.04
-0.055
-0.07
-0.085
-0.09
-0.09
-0.075
-0.085
-0.09
-0.11
-0.135
-0.165
-0.205
-0.23
-0.25
-0.255
-0.265
-0.265
-0.27
-0.285
-0.29
-0.295
-0.295
-0.29
-0.29
-0.29
-0.3
-0.295
-0.29
-0.285
-0.28
-0.285
-0.295
-0.325
-0.345
-0.345
-0.35
-0.32
-0.27
-0.18
-0.04
0.135
0.365
0.635
0.92
1.175
1.375
1.45
1.415
1.24
0.96
0.655
0.325
0.045
-0.165
-0.3
-0.36
-0.37
-0.35
-0.32
-0.3
-0.3
-0.31
-0.34
-0.36
-0.375
-0.385
-0.385
-0.38
-0.38
-0.38
-0.38
-0.375
-0.385
-0.395
-0.4
-0.41
-0.4
-0.405
-0.39
-0.375
-0.37
-0.37
-0.365
-0.375
-0.38
-0.4
-0.395
-0.395
-0.39
-0.365
-0.35
-0.34
-0.35
-0.365
-0.37
-0.375
-0.375
-0.375
-0.37
-0.37
-0.365
-0.345
-0.33
-0.325
-0.32
-0.315
-0.335
-0.35
-0.345
-0.34
-0.335
-0.335
-0.325
-0.32
-0.31
-0.295
-0.285
-0.28
-0.275
-0.27
-0.275
-0.295
-0.295
-0.31
-0.3
-0.285
-0.27
-0.255
-0.245
-0.25
-0.255
-0.255
-0.25
-0.255
-0.26
-0.245
-0.255
-0.255
-0.245
-0.24
-0.235
-0.24
-0.245
-0.235
-0.235
-0.215
-0.2
-0.19
-0.185
-0.175
-0.165
-0.165
-0.175
-0.16
-0.165
-0.185
-0.19
-0.205
-0.2
-0.2
-0.2
-0.185
-0.175
-0.17
-0.17
-0.185
-0.2
-0.21
-0.215
-0.21
-0.21
-0.215
-0.22
-0.215
-0.21
-0.19
-0.175
-0.19
-0.185
-0.215
-0.225
-0.225
-0.22
-0.215
-0.225
-0.21
-0.2
-0.185
-0.185
-0.185
-0.19
-0.205
-0.215
-0.215
-0.2
-0.205
-0.205
-0.205
-0.205
-0.21
-0.195
-0.19
-0.185
-0.185
-0.18
-0.185
-0.19
-0.21
-0.205
-0.21
-0.21
-0.205
-0.2
-0.205
-0.205
-0.21
-0.21
-0.215
-0.205
-0.2
-0.2
-0.195
-0.19
-0.165
-0.16
-0.15
-0.145
-0.14
-0.14
-0.13
-0.125
-0.125
-0.115
-0.085
-0.045
-0.015
-0.02
-0.025
-0.03
-0.055
-0.055
-0.065
-0.07
-0.065
-0.085
-0.11
-0.13
-0.145
-0.15
-0.17
-0.205
-0.21
-0.22
-0.25
-0.245
-0.245
-0.245
-0.245
-0.235
-0.23
-0.25
-0.265
-0.28
-0.285
-0.28
-0.285
-0.28
-0.285
-0.275
-0.28
-0.285
-0.295
-0.295
-0.27
-0.205
-0.12
0.01
0.205
0.44
0.705
1.015
1.265
1.425
1.465
1.34
1.105
0.795
0.45
0.135
-0.11
-0.275
-0.35
-0.355
-0.33
-0.285
-0.255
-0.235
-0.24
-0.255
-0.285
-0.315
-0.35
-0.375
-0.395
-0.39
-0.38
-0.37
-0.34
-0.345
-0.335
-0.35
-0.365
-0.36
-0.375
-0.375
-0.38
-0.385
-0.37
-0.35
-0.335
-0.335
-0.34
-0.34
-0.35
-0.35
-0.36
-0.365
-0.345
-0.345
-0.355
-0.345
-0.34
-0.33
-0.305
-0.315
-0.32
-0.32
-0.32
-0.325
-0.32
-0.32
-0.315
-0.32
-0.315
-0.31
-0.305
-0.3
-0.295
-0.31
-0.305
-0.295
-0.29
-0.28
-0.275
-0.26
-0.25
-0.25
-0.24
-0.255
-0.24
-0.25
-0.26
-0.265
-0.285
-0.28
-0.275
-0.255
-0.24
-0.25
-0.255
-0.25
-0.25
-0.245
-0.245
-0.24
-0.22
-0.21
-0.205
-0.19
-0.2
-0.2
-0.2
-0.195
-0.19
-0.19
-0.18
-0.17
-0.165
-0.17
-0.175
-0.175
-0.17
-0.18
-0.185
-0.19
-0.195
-0.205
-0.22
-0.2
-0.2
-0.2
-0.195
-0.19
-0.185
-0.18
-0.195
-0.2
-0.215
-0.22
-0.22
-0.23
-0.23
-0.21
-0.21
-0.195
-0.195
-0.185
-0.195
-0.2
-0.205
-0.2
-0.21
-0.2
-0.21
-0.21
-0.225
-0.205
-0.205
-0.21
-0.22
-0.2
-0.205
-0.2
-0.195
-0.2
-0.2
-0.195
-0.205
-0.22
-0.215
-0.205
-0.205
-0.205
-0.2
-0.195
-0.21
-0.215
-0.21
-0.21
-0.21
-0.205
-0.19
-0.2
-0.21
-0.21
-0.215
-0.21
-0.205
-0.185
-0.18
-0.165
-0.16
-0.15
-0.145
-0.135
-0.125
-0.105
-0.095
-0.11
-0.13
-0.13
-0.115
-0.08
-0.055
-0.02
-0.005
-0.015
-0.04
-0.04
-0.07
-0.08
-0.105
-0.105
-0.125
-0.135
-0.14
-0.15
-0.16
-0.175
-0.2
-0.22
-0.23
-0.255
-0.27
-0.29
-0.285
-0.285
-0.28
-0.28
-0.27
-0.265
-0.27
-0.275
-0.285
-0.29
-0.285
-0.29
-0.295
-0.305
-0.33
-0.35
-0.33
-0.285
-0.205
-0.095
0.065
0.255
0.49
0.735
1.005
1.23
1.38
1.415
1.32
1.095
0.8
0.475
0.165
-0.06
-0.225
-0.325
-0.355
-0.35
-0.32
-0.285
-0.27
-0.27
-0.295
-0.305
-0.33
-0.35
-0.36
-0.37
-0.36
-0.365
-0.355
-0.345
-0.345
-0.355
-0.35
-0.345
-0.355
-0.365
-0.36
-0.355
-0.355
-0.35
-0.345
-0.34
-0.33
-0.345
-0.335
-0.335
-0.33
-0.345
-0.365
-0.365
-0.355
-0.35
-0.33
-0.315
-0.295
-0.295
-0.305
-0.31
-0.325
-0.32
-0.33
-0.32
-0.315
-0.31
-0.31
-0.3
-0.29
-0.28
-0.27
-0.26
-0.275
-0.295
-0.295
-0.31
-0.295
-0.28
-0.26
-0.25
-0.24
-0.23
-0.24
-0.24
-0.255
-0.255
-0.26
-0.25
-0.245
-0.24
-0.23
-0.225
-0.215
-0.225
-0.235
-0.23
-0.23
-0.225
-0.225
-0.21
-0.215
-0.2
-0.19
-0.17
-0.17
-0.17
-0.165
-0.155
-0.16
-0.16
-0.17
-0.18
-0.18
-0.175
-0.165
-0.16
-0.165
-0.165
-0.175
-0.18
-0.18
-0.17
-0.175
-0.18
-0.18
-0.19
-0.195
-0.175
-0.175
-0.17
-0.18
-0.18
-0.2
-0.195
-0.2
-0.205
-0.195
-0.2
-0.205
-0.175
-0.17
-0.17
-0.18
-0.175
-0.185
-0.18
-0.19
-0.18
-0.18
-0.175
-0.16
-0.155
-0.155
-0.145
-0.16
-0.185
-0.195
-0.215
-0.21
-0.2
-0.19
-0.19
-0.175
-0.175
-0.165
-0.165
-0.165
-0.165
-0.195
-0.195
-0.185
-0.185
-0.185
-0.16
-0.155
-0.145
-0.16
-0.15
-0.16
-0.175
-0.17
-0.165
-0.155
-0.15
-0.125
-0.125
-0.125
-0.115
-0.1
-0.08
-0.06
-0.04
-0.04
-0.05
-0.04
-0.04
-0.045
-0.025
-0.01
0
0
-0.01
-0.01
-0.02
-0.035
-0.045
-0.065
-0.09
-0.105
-0.125
-0.14
-0.14
-0.155
-0.155
-0.165
-0.175
-0.195
-0.215
-0.23
-0.235
-0.24
-0.235
-0.235
-0.235
-0.24
-0.235
-0.235
-0.225
-0.23
-0.23
-0.24
-0.24
-0.255
-0.27
-0.27
-0.275
-0.26
-0.235
-0.185
-0.07
0.065
0.255
0.49
0.745
1.005
1.245
1.43
1.505
1.47
1.265
0.965
0.62
0.275
-0.005
-0.2
-0.305
-0.34
-0.32
-0.275
-0.24
-0.205
-0.2
-0.215
-0.24
-0.275
-0.32
-0.33
-0.345
-0.335
-0.315
-0.305
-0.275
-0.27
-0.255
-0.275
-0.27
-0.295
-0.31
-0.32
-0.325
-0.31
-0.295
-0.27
-0.25
-0.25
-0.265
-0.275
-0.28
-0.27
-0.27
-0.28
-0.295
-0.295
-0.29
-0.29
-0.28
-0.265
-0.255
-0.265
-0.25
-0.25
-0.25
-0.255
-0.255
-0.26
-0.265
-0.25
-0.245
-0.23
-0.225
-0.215
-0.195
-0.19
-0.19
-0.205
-0.22
-0.23
-0.235
-0.22
-0.2
-0.19
-0.19
-0.18
-0.17
-0.165
-0.17
-0.17
-0.18
-0.175
-0.17
-0.17
-0.165
-0.17
-0.18
-0.19
-0.18
-0.18
-0.18
-0.175
-0.175
-0.155
-0.14
-0.12
-0.105
-0.09
-0.095
-0.09
-0.09
-0.08
-0.095
-0.1
-0.095
-0.105
-0.1
-0.1
-0.105
-0.11
-0.1
-0.105
-0.095
-0.115
-0.115
-0.125
-0.125
-0.125
-0.13
-0.12
-0.11
-0.1
-0.105
-0.1
-0.105
-0.115
-0.13
-0.14
-0.15
-0.135
-0.12
-0.115
-0.11
-0.09
-0.095
-0.09
-0.1
-0.095
-0.105
-0.11
-0.105
-0.1
-0.1
-0.09
-0.08
-0.075
-0.07
-0.085
-0.09
-0.11
-0.11
-0.11
-0.1
-0.09
-0.095
-0.085
-0.08
-0.095
-0.1
-0.11
-0.1
-0.1
-0.09
-0.08
-0.09
-0.085
-0.095
-0.085
-0.07
-0.05
-0.05
-0.035
-0.02
-0.02
-0.015
-0.015
-0.025
-0.01
0.015
0.045
0.065
0.08
0.065
0.05
0.05
0.05
0.055
0.05
0.045
0.03
0.01
-0.005
-0.035
-0.045
-0.065
-0.085
-0.095
-0.11
-0.125
-0.16
-0.17
-0.185
-0.185
-0.175
-0.16
-0.15
-0.155
-0.175
-0.17
-0.185
-0.195
-0.195
-0.2
-0.195
-0.19
-0.195
-0.19
-0.175
-0.165
-0.135
-0.06
0.02
0.155
0.34
0.555
0.815
1.085
1.335
1.52
1.615
1.575
1.41
1.125
0.8
0.465
0.17
-0.065
-0.205
-0.27
-0.26
-0.23
-0.18
-0.155
-0.15
-0.17
-0.19
-0.22
-0.245
-0.255
-0.275
-0.28
-0.275
-0.275
-0.26
-0.245
-0.24
-0.255
-0.25
-0.255
-0.255
-0.255
-0.26
-0.255
-0.265
-0.26
-0.265
-0.25
-0.24
-0.245
-0.245
-0.255
-0.27
-0.285
-0.27
-0.275
-0.265
-0.25
-0.24
-0.23
-0.23
-0.24
-0.24
-0.24
-0.235
-0.225
-0.225
-0.235
-0.235
-0.225
-0.205
-0.205
-0.21
-0.215
-0.215
-0.215
-0.205
-0.21
-0.2
-0.19
-0.185
-0.175
-0.145
-0.15
-0.16
-0.16
-0.185
-0.19
-0.19
-0.19
-0.175
-0.165
-0.15
-0.135
-0.12
-0.13
-0.145
-0.14
-0.16
-0.15
-0.155
-0.16
-0.165
-0.155
-0.155
-0.13
-0.11
-0.11
-0.105
-0.075
-0.075
-0.075
-0.075
-0.095
-0.085
-0.075
-0.08
-0.075
-0.075
-0.065
-0.065
-0.075
-0.09
-0.11
-0.115
-0.125
-0.13
-0.13
-0.12
-0.11
-0.1
-0.085
-0.08
-0.075
-0.085
-0.095
-0.11
-0.125
-0.13
-0.12
-0.11
-0.12
-0.09
-0.085
-0.08
-0.09
-0.105
-0.11
-0.105
-0.105
-0.1
-0.11
-0.11
-0.095
-0.085
-0.075
-0.065
-0.07
-0.085
-0.085
-0.09
-0.095
-0.095
-0.095
-0.085
-0.075
-0.055
-0.05
-0.05
-0.05
-0.06
-0.065
-0.07
-0.1
-0.095
-0.105
-0.1
-0.08
-0.07
-0.065
-0.05
-0.05
-0.045
-0.05
-0.05
-0.04
-0.03
-0.025
-0.01
-0.005
0
0.025
0.04
0.065
0.085
0.105
0.09
0.08
0.065
0.05
0.055
0.055
0.05
0.03
0.025
0.01
-0.005
-0.025
-0.045
-0.07
-0.08
-0.12
-0.12
-0.14
-0.13
-0.135
-0.155
-0.16
-0.17
-0.165
-0.17
-0.16
-0.16
-0.16
-0.16
-0.155
-0.155
-0.175
-0.175
-0.175
-0.165
-0.125
-0.04
0.095
0.265
0.49
0.745
1.015
1.28
1.5
1.615
1.61
1.465
1.19
0.855
0.52
0.23
0
-0.13
-0.195
-0.21
-0.175
-0.14
-0.125
-0.145
-0.165
-0.195
-0.23
-0.255
-0.27
-0.275
-0.265
-0.255
-0.225
-0.23
-0.255
-0.27
-0.275
-0.27
-0.275
-0.27
-0.25
-0.255
-0.245
-0.24
-0.24
-0.24
-0.245
-0.245
-0.245
-0.25
-0.26
-0.255
-0.27
-0.275
-0.275
-0.255
-0.225
-0.215
-0.235
-0.245
-0.25
-0.255
-0.26
-0.255
-0.25
-0.235
-0.225
-0.21
-0.2
-0.195
-0.19
-0.215
-0.21
-0.22
-0.22
-0.225
-0.215
-0.205
-0.205
-0.195
-0.175
-0.185
-0.18
-0.18
-0.18
-0.17
-0.175
-0.165
-0.155
-0.155
-0.16
-0.145
-0.14
-0.15
-0.15
-0.14
-0.15
-0.145
-0.145
-0.155
-0.15
-0.15
-0.145
-0.135
-0.13
-0.12
-0.11
-0.115
-0.105
-0.095
-0.11
-0.11
-0.125
-0.14
-0.135
-0.125
-0.115
-0.115
-0.11
-0.12
-0.12
-0.145
-0.13
-0.13
-0.145
-0.14
-0.16
-0.155
-0.16
-0.145
-0.145
-0.145
-0.14
-0.155
-0.155
-0.165
-0.17
-0.165
-0.155
-0.145
-0.14
-0.135
-0.13
-0.135
-0.135
-0.135
-0.145
-0.15
-0.155
-0.16
-0.16
-0.15
-0.145
-0.13
-0.12
-0.12
-0.115
-0.145
-0.15
-0.155
-0.145
-0.145
-0.135
-0.12
-0.115
-0.115
-0.13
-0.145
-0.145
-0.145
-0.15
-0.14
-0.14
-0.135
-0.115
-0.11
-0.11
-0.115
-0.12
-0.125
-0.12
-0.125
-0.115
-0.1
-0.085
-0.06
-0.045
-0.025
-0.01
-0.01
-0.005
-0.01
0.005
-0.01
-0.005
-0.01
-0.01
-0.01
0.01
0.02
0.03
0.025
0.01
-0.03
-0.08
-0.11
-0.13
-0.135
-0.155
-0.155
-0.16
-0.165
-0.195
-0.2
-0.205
-0.22
-0.225
-0.245
-0.245
-0.235
-0.245
-0.24
-0.24
-0.22
-0.22
-0.22
-0.215
-0.23
-0.255
-0.255
-0.245
-0.23
-0.18
-0.09
0.03
0.19
0.41
0.665
0.95
1.2
1.39
1.535
1.555
1.455
1.24
0.945
0.6
0.3
0.05
-0.12
-0.205
-0.255
-0.24
-0.235
-0.215
-0.22
-0.225
-0.245
-0.265
-0.275
-0.295
-0.305
-0.32
-0.33
-0.325
-0.32
-0.315
-0.32
-0.315
-0.32
-0.33
-0.335
-0.33
-0.335
-0.33
-0.34
-0.345
-0.34
-0.34
-0.325
-0.335
-0.32
-0.32
-0.315
-0.31
-0.315
-0.31
-0.32
-0.335
-0.325
-0.325
-0.31
-0.31
-0.3
-0.325
-0.315
-0.3
-0.29
-0.28
-0.295
-0.315
-0.32
-0.335
-0.33
-0.31
-0.305
-0.295
-0.265
-0.25
-0.25
-0.25
-0.255
-0.27
-0.275
-0.29
-0.28
-0.275
-0.265
-0.255
-0.235
-0.23
-0.205
-0.205
-0.21
-0.23
-0.225
-0.235
-0.22
-0.22
-0.24
-0.245
-0.24
-0.245
-0.245
-0.22
-0.21
-0.19
-0.195
-0.185
-0.195
-0.195
-0.195
-0.2
-0.185
-0.175
-0.18
-0.175
-0.17
-0.18
-0.19
-0.2
-0.2
-0.19
-0.18
-0.18
-0.175
-0.185
-0.205
-0.205
-0.21
-0.23
-0.23
-0.22
-0.225
-0.22
-0.21
-0.2
-0.2
-0.19
-0.2
-0.2
-0.21
-0.215
-0.22
-0.225
-0.23
-0.215
-0.215
-0.205
-0.2
-0.19
-0.195
-0.2
-0.205
-0.2
-0.22
-0.215
-0.215
-0.21
-0.2
-0.19
-0.175
-0.18
-0.175
-0.185
-0.19
-0.195
-0.195
-0.205
-0.22
-0.2
-0.19
-0.175
-0.18
-0.16
-0.165
-0.17
-0.18
-0.2
-0.21
-0.23
-0.235
-0.215
-0.21
-0.19
-0.18
-0.165
-0.16
-0.155
-0.145
-0.145
-0.145
-0.14
-0.135
-0.13
-0.135
-0.115
-0.1
-0.08
-0.055
-0.035
-0.015
-0.02
-0.015
-0.035
-0.05
-0.055
-0.055
-0.065
-0.06
-0.05
-0.06
-0.07
-0.085
-0.11
-0.13
-0.145
-0.16
-0.185
-0.215
-0.24
-0.24
-0.24
-0.255
-0.26
-0.26
-0.265
-0.275
-0.275
-0.285
-0.285
-0.285
-0.285
-0.285
-0.275
-0.255
-0.26
-0.26
-0.28
-0.3
-0.335
-0.34
-0.33
-0.305
-0.23
-0.13
0.005
0.17
0.39
0.63
0.895
1.145
1.355
1.475
1.475
1.335
1.125
0.85
0.54
0.24
0.01
-0.175
-0.27
-0.34
-0.35
-0.33
-0.295
-0.275
-0.27
-0.28
-0.305
-0.33
-0.365
-0.38
-0.385
-0.395
-0.4
-0.4
-0.395
-0.385
-0.405
-0.415
-0.405
-0.405
-0.39
-0.39
-0.395
-0.395
-0.4
-0.4
-0.4
-0.395
-0.385
-0.38
-0.385
-0.39
-0.38
-0.38
-0.375
-0.375
-0.39
-0.395
-0.395
-0.39
-0.38
-0.365
-0.355
-0.35
-0.355
-0.345
-0.345
-0.365
-0.35
-0.345
-0.345
-0.34
-0.355
-0.345
-0.36
-0.345
-0.35
-0.34
-0.335
-0.32
-0.33
-0.325
-0.32
-0.315
-0.295
-0.285
-0.285
-0.28
-0.285
-0.29
-0.29
-0.295
-0.295
-0.3
-0.29
-0.285
-0.275
-0.265
-0.26
-0.28
-0.275
-0.28
-0.285
-0.29
-0.305
-0.28
-0.27
-0.24
-0.23
-0.225
-0.205
-0.22
-0.21
-0.225
-0.21
-0.235
-0.24
-0.265
-0.25
-0.245
-0.24
-0.22
-0.21
-0.22
-0.215
-0.235
-0.245
-0.26
-0.275
-0.29
-0.275
-0.275
-0.27
-0.25
-0.24
-0.235
-0.24
-0.25
-0.26
-0.275
-0.285
-0.28
-0.275
-0.27
-0.27
-0.25
-0.25
-0.245
-0.24
-0.23
-0.23
-0.235
-0.245
-0.255
-0.265
-0.27
-0.265
-0.255
-0.245
-0.225
-0.215
-0.215
-0.23
-0.235
-0.245
-0.255
-0.255
-0.255
-0.255
-0.255
-0.245
-0.235
-0.235
-0.255
-0.25
-0.245
-0.255
-0.24
-0.235
-0.225
-0.205
-0.19
-0.175
-0.165
-0.16
-0.16
-0.16
-0.155
-0.14
-0.12
-0.095
-0.07
-0.055
-0.07
-0.085
-0.095
-0.095
-0.11
-0.09
-0.105
-0.105
-0.12
-0.145
-0.165
-0.195
-0.205
-0.215
-0.23
-0.235
-0.255
-0.285
-0.305
-0.32
-0.315
-0.32
-0.33
-0.335
-0.33
-0.32
-0.31
-0.305
-0.295
-0.305
-0.325
-0.325
-0.34
-0.355
-0.36
-0.365
-0.37
-0.355
-0.32
-0.25
-0.175
-0.05
0.12
0.335
0.58
0.83
1.08
1.285
1.385
1.355
1.205
0.96
0.655
0.33
0.04
-0.18
-0.315
-0.385
-0.39
-0.355
-0.31
-0.275
-0.275
-0.31
-0.35
-0.395
-0.425
-0.43
-0.425
-0.43
-0.43
-0.42
-0.415
-0.4
-0.39
-0.39
-0.395
-0.4
-0.415
-0.415
-0.425
-0.41
-0.41
-0.41
-0.405
-0.41
-0.395
-0.385
-0.395
-0.39
-0.39
-0.4
-0.405
-0.41
-0.41
-0.425
-0.41
-0.395
-0.395
-0.375
-0.375
-0.37
-0.385
-0.375
-0.375
-0.38
-0.345
-0.345
-0.345
-0.35
-0.365
-0.37
-0.37
-0.375
-0.365
-0.36
-0.345
-0.33
-0.325
-0.31
-0.3
-0.29
-0.3
-0.305
-0.325
-0.335
-0.345
-0.34
-0.32
-0.3
-0.3
-0.285
-0.27
-0.27
-0.28
-0.265
-0.275
-0.285
-0.295
-0.3
-0.3
-0.295
-0.29
-0.285
-0.26
-0.24
-0.23
-0.21
-0.21
-0.225
-0.215
-0.23
-0.23
-0.235
-0.24
-0.235
-0.235
-0.23
-0.235
-0.22
-0.225
-0.225
-0.235
-0.255
-0.26
-0.26
-0.255
-0.265
-0.26
-0.24
-0.25
-0.24
-0.25
-0.25
-0.265
-0.27
-0.265
-0.26
-0.255
-0.25
-0.265
-0.25
-0.255
-0.25
-0.245
-0.24
-0.245
-0.245
-0.245
-0.27
-0.275
-0.27
-0.275
-0.25
-0.255
-0.24
-0.24
-0.245
-0.26
-0.26
-0.26
-0.265
-0.25
-0.235
-0.245
-0.225
-0.245
-0.245
-0.24
-0.245
-0.245
-0.26
-0.265
-0.25
-0.26
-0.255
-0.25
-0.24
-0.23
-0.22
-0.225
-0.225
-0.21
-0.21
-0.205
-0.2
-0.19
-0.175
-0.14
-0.12
-0.09
-0.08
-0.075
-0.09
-0.11
-0.12
-0.125
-0.12
-0.11
-0.11
-0.115
-0.11
-0.145
-0.185
-0.22
-0.245
-0.27
-0.29
-0.3
-0.3
-0.295
-0.295
-0.305
-0.295
-0.31
-0.325
-0.33
-0.33
-0.345
-0.345
-0.35
-0.345
-0.345
-0.33
-0.315
-0.325
-0.335
-0.35
-0.375
-0.365
-0.335
-0.27
-0.17
-0.01
0.19
0.46
0.76
1.05
1.285
1.42
1.405
1.255
0.985
0.635
0.265
-0.05
-0.26
-0.395
-0.42
-0.4
-0.355
-0.325
-0.305
-0.31
-0.335
-0.365
-0.395
-0.415
-0.415
-0.425
-0.42
-0.41
-0.4
-0.4
-0.395
-0.41
-0.415
-0.425
-0.43
-0.43
-0.43
-0.42
-0.41
-0.405
-0.41
-0.39
-0.385
-0.395
-0.415
-0.415
-0.415
-0.42
-0.41
-0.39
-0.38
-0.365
-0.365
-0.365
-0.36
-0.365
-0.365
-0.37
-0.38
-0.385
-0.38
-0.37
-0.375
-0.36
-0.35
-0.345
-0.345
-0.35
-0.34
-0.34
-0.34
-0.335
-0.335
-0.32
-0.315
-0.305
-0.305
-0.305
-0.295
-0.29
-0.29
-0.29
-0.3
-0.285
-0.285
-0.28
-0.28
-0.285
-0.285
-0.29
-0.3
-0.3
-0.3
-0.31
-0.3
-0.285
-0.275
-0.26
-0.255
-0.235
-0.23
-0.22
-0.215
-0.23
-0.23
-0.225
-0.225
-0.23
-0.225
-0.215
-0.21
-0.21
-0.215
-0.21
-0.195
-0.215
-0.23
-0.245
-0.265
-0.275
-0.275
-0.26
-0.24
-0.235
-0.23
-0.235
-0.255
-0.24
-0.24
-0.255
-0.255
-0.255
-0.255
-0.25
-0.23
-0.22
-0.22
-0.235
-0.235
-0.235
-0.255
-0.255
-0.255
-0.255
-0.235
-0.235
-0.235
-0.23
-0.235
-0.24
-0.24
-0.235
-0.245
-0.25
-0.26
-0.26
-0.255
-0.255
-0.25
-0.235
-0.22
-0.23
-0.235
-0.245
-0.25
-0.245
-0.255
-0.26
-0.255
-0.255
-0.25
-0.235
-0.23
-0.22
-0.225
-0.22
-0.215
-0.195
-0.2
-0.19
-0.185
-0.155
-0.145
-0.13
-0.14
-0.115
-0.1
-0.085
-0.075
-0.075
-0.08
-0.095
-0.1
-0.09
-0.095
-0.085
-0.11
-0.125
-0.15
-0.17
-0.195
-0.215
-0.235
-0.25
-0.255
-0.27
-0.27
-0.28
-0.29
-0.295
-0.31
-0.305
-0.3
-0.305
-0.32
-0.32
-0.335
-0.335
-0.32
-0.325
-0.32
-0.325
-0.345
-0.355
-0.36
-0.355
-0.315
-0.23
-0.1
0.06
0.26
0.485
0.76
1.025
1.25
1.385
1.4
1.275
1.03
0.705
0.375
0.07
-0.165
-0.31
-0.39
-0.39
-0.36
-0.345
-0.32
-0.315
-0.34
-0.345
-0.37
-0.385
-0.39
-0.395
-0.38
-0.39
-0.385
-0.395
-0.41
-0.41
-0.41
-0.41
-0.405
-0.395
-0.385
-0.375
-0.39
-0.375
-0.39
-0.395
-0.395
-0.415
-0.4
-0.395
-0.39
-0.37
-0.365
-0.365
-0.36
-0.365
-0.375
-0.39
-0.39
-0.395
-0.4
-0.38
-0.365
-0.36
-0.365
-0.35
-0.355
-0.355
-0.345
-0.36
-0.35
-0.35
-0.335
-0.34
-0.34
-0.335
-0.325
-0.32
-0.32
-0.315
-0.305
-0.305
-0.315
-0.3
-0.315
-0.32
-0.305
-0.305
-0.295
-0.28
-0.285
-0.275
-0.265
-0.28
-0.285
-0.28
-0.275
-0.275
-0.285
-0.29
-0.285
-0.285
-0.26
-0.235
-0.22
-0.205
-0.215
-0.225
-0.23
-0.225
-0.225
-0.23
-0.205
-0.2
-0.2
-0.2
-0.205
-0.205
-0.2
-0.215
-0.24
-0.24
-0.24
-0.24
-0.23
-0.23
-0.24
-0.235
-0.24
-0.23
-0.235
-0.245
-0.235
-0.235
-0.225
-0.23
-0.225
-0.225
-0.23
-0.23
-0.235
-0.245
-0.255
-0.265
-0.27
-0.26
-0.235
-0.25
-0.24
-0.235
-0.23
-0.235
-0.24
-0.24
-0.235
-0.25
-0.245
-0.25
-0.255
-0.23
-0.225
-0.21
-0.215
-0.225
-0.215
-0.21
-0.225
-0.225
-0.235
-0.24
-0.24
-0.24
-0.245
-0.235
-0.225
-0.23
-0.23
-0.235
-0.23
-0.235
-0.23
-0.23
-0.215
-0.195
-0.16
-0.155
-0.155
-0.135
-0.125
-0.135
-0.135
-0.145
-0.135
-0.115
-0.095
-0.065
-0.045
-0.055
-0.065
-0.05
-0.055
-0.07
-0.08
-0.095
-0.125
-0.14
-0.155
-0.18
-0.2
-0.215
-0.23
-0.24
-0.24
-0.255
-0.25
-0.26
-0.29
-0.295
-0.295
-0.305
-0.305
-0.29
-0.285
-0.29
-0.295
-0.3
-0.32
-0.325
-0.325
-0.32
-0.33
-0.325
-0.315
-0.32
-0.3
-0.28
-0.245
-0.155
-0.035
0.14
0.345
0.6
0.87
1.135
1.36
1.465
1.43
1.27
0.985
0.635
0.3
0.015
-0.2
-0.325
-0.39
-0.37
-0.34
-0.29
-0.26
-0.26
-0.275
-0.315
-0.34
-0.36
-0.375
-0.39
-0.385
-0.38
-0.365
-0.35
-0.34
-0.36
-0.36
-0.36
-0.375
-0.375
-0.37
-0.365
-0.365
-0.36
-0.36
-0.35
-0.365
-0.35
-0.35
-0.34
-0.35
-0.35
-0.37
-0.365
-0.365
-0.355
-0.34
-0.325
-0.315
-0.315
-0.31
-0.31
-0.32
-0.33
-0.335
-0.33
-0.31
-0.31
-0.295
-0.29
-0.28
-0.275
-0.275
-0.265
-0.28
-0.285
-0.29
-0.28
-0.27
-0.26
-0.26
-0.26
-0.24
-0.24
-0.225
-0.23
-0.24
-0.235
-0.24
-0.24
-0.245
-0.24
-0.245
-0.23
-0.23
-0.23
-0.225
-0.22
-0.205
-0.2
-0.19
-0.19
-0.18
-0.18
-0.17
-0.15
-0.14
-0.13
-0.14
-0.145
-0.16
-0.175
-0.18
-0.18
-0.175
-0.17
-0.17
-0.175
-0.165
-0.18
-0.18
-0.19
-0.19
-0.195
-0.205
-0.195
-0.2
-0.195
-0.19
-0.18
-0.185
-0.18
-0.18
-0.18
-0.175
-0.18
-0.18
-0.175
-0.165
-0.165
-0.16
-0.155
-0.17
-0.175
-0.175
-0.18
-0.175
-0.175
-0.175
-0.17
-0.17
-0.17
-0.16
-0.15
-0.14
-0.14
-0.135
-0.14
-0.155
-0.165
-0.175
-0.175
-0.17
-0.16
-0.14
-0.13
-0.125
-0.11
-0.14
-0.16
-0.175
-0.18
-0.185
-0.19
-0.165
-0.135
-0.105
-0.085
-0.08
-0.07
-0.085
-0.06
-0.065
-0.055
-0.05
-0.025
-0.01
0.01
0.035
0.05
0.06
0.055
0.05
0.025
0.005
-0.005
-0.02
-0.035
-0.055
-0.07
-0.105
-0.115
-0.115
-0.12
-0.135
-0.16
-0.17
-0.195
-0.19
-0.2
-0.215
-0.22
-0.2
-0.195
-0.2
-0.19
-0.19
-0.2
-0.205
-0.215
-0.225
-0.225
-0.225
-0.225
-0.23
-0.24
-0.235
-0.22
-0.18
-0.115
-0.015
0.12
0.315
0.545
0.82
1.085
1.33
1.52
1.59
1.545
1.385
1.11
0.785
0.455
0.165
-0.055
-0.195
-0.25
-0.265
-0.245
-0.2
-0.17
-0.155
-0.165
-0.19
-0.225
-0.265
-0.27
-0.265
-0.25
-0.23
-0.225
-0.225
-0.235
-0.245
-0.26
-0.265
-0.265
-0.265
-0.26
-0.255
-0.25
-0.24
-0.23
-0.235
-0.23
-0.205
-0.215
-0.215
-0.235
-0.235
-0.23
-0.24
-0.23
-0.215
-0.19
-0.19
-0.2
-0.21
-0.235
-0.245
-0.235
-0.245
-0.245
-0.225
-0.21
-0.21
-0.195
-0.185
-0.185
-0.19
-0.18
-0.175
-0.17
-0.17
-0.17
-0.17
-0.16
-0.145
-0.145
-0.14
-0.13
-0.115
-0.115
-0.115
-0.125
-0.13
-0.13
-0.125
-0.11
-0.1
-0.085
-0.09
-0.105
-0.115
-0.13
-0.125
-0.125
-0.12
-0.12
-0.115
-0.09
-0.085
-0.07
-0.065
-0.07
-0.065
-0.06
-0.055
-0.04
-0.05
-0.03
-0.03
-0.01
-0.01
0
-0.01
-0.015
-0.03
-0.03
-0.05
-0.05
-0.06
-0.06
-0.055
-0.06
-0.07
-0.06
-0.04
-0.05
-0.065
-0.045
-0.06
-0.06
-0.07
-0.06
-0.06
-0.035
-0.02
-0.015
-0.01
-0.02
-0.025
-0.035
-0.04
-0.05
-0.06
-0.06
-0.06
-0.045
-0.04
-0.01
-0.01
-0.005
0.005
-0.01
-0.02
-0.035
-0.045
-0.05
-0.035
-0.02
-0.015
-0.01
-0.01
-0.015
-0.02
-0.01
-0.005
-0.005
-0.02
-0.03
-0.03
-0.025
-0.02
-0.005
-0.01
-0.015
-0.005
0.01
0.005
0.01
0.005
0.02
0
0.025
0.035
0.06
0.055
0.075
0.07
0.08
0.1
0.1
0.125
0.13
0.13
0.13
0.13
0.14
0.135
0.135
0.135
0.125
0.12
0.1
0.05
0.035
0
-0.01
-0.02
-0.035
-0.055
-0.065
-0.08
-0.08
-0.085
-0.075
-0.075
-0.08
-0.085
-0.09
-0.1
-0.11
-0.11
-0.105
-0.11
-0.125
-0.115
-0.12
-0.135
-0.14
-0.15
-0.135
-0.135
-0.095
-0.015
0.085
0.225
0.385
0.59
0.82
1.07
1.32
1.54
1.7
1.755
1.675
1.47
1.17
0.825
0.475
0.195
0.015
-0.125
-0.18
-0.19
-0.165
-0.135
-0.1
-0.1
-0.105
-0.12
-0.145
-0.17
-0.2
-0.215
-0.24
-0.24
-0.225
-0.225
-0.215
-0.22
-0.215
-0.215
-0.22
-0.22
-0.23
-0.225
-0.22
-0.23
-0.205
-0.21
-0.21
-0.225
-0.215
-0.215
-0.205
-0.21
-0.21
-0.22
-0.215
-0.225
-0.215
-0.205
-0.205
-0.185
-0.195
-0.18
-0.175
-0.175
-0.195
-0.205
-0.2
-0.21
-0.205
-0.195
-0.175
-0.17
-0.18
-0.175
-0.18
-0.17
-0.175
-0.175
-0.17
-0.165
-0.145
-0.135
-0.13
-0.13
-0.13
-0.145
-0.155
-0.17
-0.16
-0.15
-0.145
-0.14
-0.13
-0.12
-0.11
-0.1
-0.1
-0.1
-0.11
-0.12
-0.135
-0.13
-0.13
-0.125
-0.11
-0.105
-0.09
-0.075
-0.1
-0.09
-0.1
-0.09
-0.085
-0.095
-0.08
-0.075
-0.07
-0.06
-0.065
-0.05
-0.055
-0.075
-0.07
-0.075
-0.08
-0.105
-0.12
-0.11
-0.125
-0.115
-0.105
-0.105
-0.09
-0.08
-0.095
-0.095
-0.1
-0.105
-0.11
-0.11
-0.12
-0.125
-0.125
-0.105
-0.1
-0.105
-0.12
-0.12
-0.145
-0.13
-0.12
-0.105
-0.1
-0.08
-0.085
-0.09
-0.095
-0.1
-0.11
-0.11
-0.12
-0.12
-0.12
-0.11
-0.105
-0.095
-0.08
-0.085
-0.085
-0.095
-0.095
-0.105
-0.095
-0.095
-0.09
-0.085
-0.105
-0.11
-0.11
-0.115
-0.11
-0.095
-0.09
-0.1
-0.095
-0.08
-0.075
-0.08
-0.055
-0.05
-0.035
-0.01
-0.005
-0.005
-0.015
-0.005
0.005
0.03
0.06
0.08
0.075
0.065
0.06
0.065
0.045
0.03
0.01
-0.02
-0.03
-0.055
-0.075
-0.105
-0.1
-0.105
-0.105
-0.115
-0.14
-0.175
-0.175
-0.195
-0.215
-0.22
-0.215
-0.21
-0.205
-0.185
-0.18
-0.19
-0.205
-0.22
-0.23
-0.245
-0.245
-0.255
-0.23
-0.17
-0.095
0.035
0.21
0.415
0.67
0.955
1.235
1.485
1.63
1.65
1.525
1.28
0.955
0.595
0.26
0.005
-0.18
-0.27
-0.285
-0.27
-0.245
-0.22
-0.225
-0.23
-0.25
-0.27
-0.285
-0.305
-0.325
-0.335
-0.33
-0.32
-0.33
-0.345
-0.345
-0.33
-0.33
-0.33
-0.325
-0.32
-0.33
-0.335
-0.32
-0.315
-0.315
-0.315
-0.32
-0.33
-0.34
-0.345
-0.33
-0.325
-0.31
-0.305
-0.315
-0.315
-0.32
-0.33
-0.33
-0.32
-0.315
-0.305
-0.295
-0.29
-0.3
-0.31
-0.305
-0.3
-0.31
-0.315
-0.305
-0.295
-0.29
-0.275
-0.28
-0.26
-0.265
-0.26
-0.255
-0.255
-0.25
-0.265
-0.235
-0.24
-0.21
-0.215
-0.21
-0.2
-0.225
-0.23
-0.225
-0.235
-0.24
-0.23
-0.225
-0.215
-0.22
-0.22
-0.215
-0.205
-0.21
-0.205
-0.205
-0.2
-0.2
-0.2
-0.195
-0.185
-0.185
-0.18
-0.16
-0.18
-0.18
-0.18
-0.18
-0.195
-0.21
-0.225
-0.225
-0.22
-0.2
-0.2
-0.185
-0.175
-0.18
-0.185
-0.21
-0.215
-0.225
-0.23
-0.225
-0.23
-0.21
-0.2
-0.2
-0.205
-0.215
-0.215
-0.22
-0.22
-0.225
-0.23
-0.23
-0.245
-0.24
-0.225
-0.2
-0.19
-0.2
-0.2
-0.19
-0.205
-0.22
-0.25
-0.25
-0.26
-0.245
-0.22
-0.205
-0.195
-0.19
-0.185
-0.19
-0.195
-0.2
-0.205
-0.215
-0.215
-0.22
-0.225
-0.21
-0.195
-0.205
-0.205
-0.215
-0.22
-0.22
-0.22
-0.21
-0.21
-0.205
-0.185
-0.175
-0.165
-0.155
-0.135
-0.13
-0.13
-0.135
-0.115
-0.105
-0.1
-0.08
-0.06
-0.045
-0.06
-0.075
-0.065
-0.07
-0.065
-0.07
-0.065
-0.07
-0.09
-0.105
-0.125
-0.15
-0.16
-0.175
-0.195
-0.205
-0.225
-0.245
-0.26
-0.27
-0.28
-0.28
-0.29
-0.29
-0.28
-0.275
-0.285
-0.305
-0.33
-0.33
-0.345
-0.335
-0.33
-0.33
-0.33
-0.335
-0.33
-0.32
-0.275
-0.21
-0.09
0.07
0.29
0.545
0.83
1.105
1.355
1.525
1.525
1.38
1.095
0.755
0.4
0.08
-0.155
-0.3
-0.37
-0.375
-0.34
-0.32
-0.295
-0.295
-0.305
-0.34
-0.37
-0.405
-0.42
-0.42
-0.41
-0.395
-0.385
-0.38
-0.375
-0.395
-0.4
-0.41
-0.41
-0.425
-0.42
-0.425
-0.42
-0.4
-0.41
-0.405
-0.395
-0.4
-0.39
-0.38
-0.395
-0.39
-0.39
-0.395
-0.41
-0.4
-0.415
-0.4
-0.385
-0.395
-0.37
-0.365
-0.37
-0.38
-0.39
-0.38
-0.385
-0.375
-0.365
-0.35
-0.34
-0.35
-0.335
-0.34
-0.35
-0.355
-0.355
-0.35
-0.35
-0.345
-0.345
-0.33
-0.305
-0.295
-0.29
-0.3
-0.295
-0.315
-0.335
-0.32
-0.32
-0.295
-0.3
-0.295
-0.28
-0.285
-0.295
-0.29
-0.28
-0.295
-0.29
-0.29
-0.295
-0.27
-0.26
-0.25
-0.23
-0.23
-0.22
-0.245
-0.24
-0.245
-0.26
-0.255
-0.265
-0.26
-0.245
-0.26
-0.25
-0.25
-0.235
-0.24
-0.25
-0.265
-0.28
-0.28
-0.275
-0.26
-0.27
-0.26
-0.255
-0.265
-0.28
-0.27
-0.275
-0.29
-0.28
-0.285
-0.285
-0.28
-0.265
-0.26
-0.265
-0.265
-0.26
-0.27
-0.275
-0.27
-0.265
-0.275
-0.27
-0.27
-0.26
-0.25
-0.235
-0.24
-0.245
-0.25
-0.26
-0.285
-0.285
-0.295
-0.27
-0.265
-0.255
-0.255
-0.23
-0.225
-0.235
-0.24
-0.255
-0.265
-0.28
-0.27
-0.265
-0.245
-0.225
-0.2
-0.175
-0.185
-0.19
-0.195
-0.195
-0.2
-0.19
-0.18
-0.165
-0.125
-0.095
-0.08
-0.08
-0.07
-0.08
-0.085
-0.095
-0.125
-0.14
-0.145
-0.16
-0.17
-0.18
-0.185
-0.2
-0.215
-0.23
-0.245
-0.265
-0.305
-0.315
-0.33
-0.33
-0.315
-0.325
-0.32
-0.305
-0.325
-0.32
-0.32
-0.35
-0.355
-0.355
-0.36
-0.365
-0.375
-0.365
-0.38
-0.38
-0.385
-0.35
-0.305
-0.225
-0.105
0.075
0.29
0.555
0.835
1.11
1.325
1.47
1.48
1.355
1.11
0.815
0.48
0.165
-0.075
-0.25
-0.34
-0.38
-0.375
-0.355
-0.34
-0.325
-0.33
-0.345
-0.375
-0.415
-0.435
-0.44
-0.44
-0.44
-0.425
-0.425
-0.43
-0.425
-0.43
-0.44
-0.44
-0.43
-0.44
-0.45
-0.425
-0.435
-0.42
-0.42
-0.415
-0.405
-0.41
-0.41
-0.435
-0.435
-0.435
-0.43
-0.415
-0.4
-0.39
-0.375
-0.375
-0.385
-0.415
-0.42
-0.425
-0.42
-0.415
-0.395
-0.375
-0.375
-0.365
-0.36
-0.35
-0.345
-0.36
-0.355
-0.365
-0.39
-0.375
-0.355
-0.35
-0.345
-0.32
-0.31
-0.3
-0.3
-0.295
-0.3
-0.315
-0.32
-0.32
-0.31
-0.305
-0.305
-0.28
-0.28
-0.285
-0.28
-0.29
-0.285
-0.285
-0.29
-0.295
-0.28
-0.285
-0.275
-0.265
-0.26
-0.25
-0.245
-0.23
-0.24
-0.235
-0.24
-0.245
-0.24
-0.235
-0.235
-0.23
-0.22
-0.225
-0.235
-0.23
-0.235
-0.25
-0.255
-0.25
-0.25
-0.24
-0.23
-0.225
-0.22
-0.24
-0.25
-0.27
-0.29
-0.29
-0.29
-0.29
-0.29
-0.265
-0.26
-0.25
-0.235
-0.245
-0.255
-0.265
-0.265
-0.265
-0.265
-0.275
-0.27
-0.255
-0.235
-0.24
-0.225
-0.22
-0.225
-0.22
-0.23
-0.235
-0.25
-0.25
-0.245
-0.23
-0.225
-0.22
-0.215
-0.23
-0.235
-0.235
-0.235
-0.245
-0.25
-0.25
-0.235
-0.24
-0.24
-0.225
-0.225
-0.22
-0.225
-0.22
-0.225
-0.23
-0.23
-0.215
-0.2
-0.195
-0.19
-0.17
-0.165
-0.16
-0.15
-0.145
-0.14
-0.125
-0.11
-0.09
-0.075
-0.065
-0.065
-0.08
-0.07
-0.07
-0.085
-0.085
-0.09
-0.115
-0.12
-0.125
-0.135
-0.155
-0.18
-0.195
-0.215
-0.23
-0.225
-0.25
-0.26
-0.27
-0.29
-0.3
-0.3
-0.315
-0.305
-0.295
-0.295
-0.295
-0.275
-0.285
-0.29
-0.31
-0.32
-0.32
-0.33
-0.345
-0.355
-0.35
-0.35
-0.345
-0.305
-0.235
-0.145
-0.02
0.145
0.355
0.585
0.85
1.105
1.33
1.475
1.49
1.41
1.21
0.935
0.625
0.31
0.04
-0.155
-0.3
-0.38
-0.38
-0.36
-0.33
-0.295
-0.285
-0.3
-0.325
-0.36
-0.375
-0.395
-0.39
-0.39
-0.37
-0.375
-0.375
-0.395
-0.395
-0.41
-0.405
-0.41
-0.42
-0.41
-0.4
-0.385
-0.375
-0.375
-0.375
-0.365
-0.395
-0.395
-0.4
-0.405
-0.405
-0.395
-0.39
-0.385
-0.38
-0.37
-0.35
-0.365
-0.365
-0.375
-0.375
-0.39
-0.385
-0.38
-0.37
-0.37
-0.355
-0.33
-0.33
-0.33
-0.325
-0.335
-0.335
-0.35
-0.35
-0.355
-0.33
-0.33
-0.32
-0.32
-0.305
-0.295
-0.29
-0.315
-0.32
-0.315
-0.32
-0.31
-0.295
-0.285
-0.28
-0.29
-0.285
-0.27
-0.275
-0.27
-0.265
-0.28
-0.275
-0.275
-0.28
-0.28
-0.265
-0.27
-0.26
-0.265
-0.265
-0.26
-0.255
-0.265
-0.235
-0.225
-0.205
-0.205
-0.21
-0.21
-0.215
-0.22
-0.215
-0.205
-0.215
-0.215
-0.22
-0.225
-0.225
-0.235
-0.22
-0.22
-0.21
-0.215
-0.225
-0.24
-0.245
-0.245
-0.245
-0.245
-0.235
-0.23
-0.225
-0.23
-0.24
-0.24
-0.245
-0.245
-0.24
-0.25
-0.25
-0.25
-0.255
-0.235
-0.23
-0.235
-0.25
-0.255
-0.255
-0.25
-0.25
-0.255
-0.26
-0.24
-0.24
-0.23
-0.225
-0.22
-0.235
-0.23
-0.235
-0.235
-0.235
-0.24
-0.24
-0.235
-0.235
-0.225
-0.225
-0.22
-0.23
-0.225
-0.235
-0.245
-0.245
-0.24
-0.23
-0.22
-0.22
-0.2
-0.19
-0.18
-0.18
-0.185
-0.185
-0.18
-0.175
-0.165
-0.145
-0.13
-0.1
-0.07
-0.05
-0.045
-0.05
-0.055
-0.08
-0.1
-0.105
-0.105
-0.11
-0.11
-0.13
-0.15
-0.16
-0.175
-0.185
-0.195
-0.215
-0.245
-0.27
-0.29
-0.315
-0.32
-0.315
-0.29
-0.285
-0.275
-0.28
-0.28
-0.29
-0.31
-0.305
-0.305
-0.31
-0.315
-0.31
-0.315
-0.33
-0.32
-0.315
-0.28
-0.205
-0.095
0.05
0.24
0.49
0.765
1.075
1.325
1.5
1.55
1.445
1.21
0.88
0.515
0.18
-0.08
-0.255
-0.34
-0.365
-0.34
-0.315
-0.285
-0.275
-0.28
-0.295
-0.33
-0.36
-0.375
-0.38
-0.38
-0.38
-0.375
-0.37
-0.35
-0.345
-0.355
-0.35
-0.35
-0.37
-0.37
-0.375
-0.385
-0.375
-0.37
-0.36
-0.36
-0.355
-0.34
-0.34
-0.34
-0.34
-0.345
-0.355
-0.345
-0.35
-0.345
-0.345
-0.33
-0.33
-0.31
-0.32
-0.33
-0.33
-0.34
-0.345
-0.33
-0.33
-0.33
-0.305
-0.285
-0.28
-0.285
-0.275
-0.285
-0.29
-0.29
-0.295
-0.285
-0.27
-0.26
-0.255
-0.245
-0.26
-0.25
-0.25
-0.25
-0.245
-0.24
-0.235
-0.225
-0.22
-0.205
-0.21
-0.21
-0.215
-0.23
-0.235
-0.225
-0.225
-0.23
-0.225
-0.205
-0.17
-0.16
-0.15
-0.155
-0.155
-0.17
-0.17
-0.165
-0.16
-0.175
-0.18
-0.18
-0.17
-0.16
-0.15
-0.145
-0.15
-0.16
-0.165
-0.18
-0.185
-0.2
-0.205
-0.195
-0.195
-0.195
-0.185
-0.17
-0.175
-0.17
-0.165
-0.165
-0.175
-0.185
-0.2
-0.215
-0.22
-0.21
-0.185
-0.175
-0.17
-0.155
-0.16
-0.17
-0.185
-0.18
-0.19
-0.19
-0.18
-0.175
-0.175
-0.175
-0.17
-0.155
-0.155
-0.15
-0.15
-0.155
-0.165
-0.175
-0.18
-0.18
-0.165
-0.155
-0.15
-0.16
-0.175
-0.18
-0.17
-0.18
-0.175
-0.18
-0.18
-0.17
-0.155
-0.155
-0.145
-0.13
-0.12
-0.125
-0.125
-0.135
-0.13
-0.12
-0.1
-0.08
-0.07
-0.045
-0.035
-0.015
0
0.015
0.015
0.005
0
-0.01
-0.01
0.005
0.01
0.005
-0.01
-0.035
-0.07
-0.095
-0.11
-0.135
-0.155
-0.165
-0.165
-0.165
-0.16
-0.155
-0.17
-0.195
-0.215
-0.245
-0.265
-0.275
-0.255
-0.255
-0.24
-0.225
-0.22
-0.215
-0.205
-0.21
-0.22
-0.235
-0.25
-0.275
-0.29
-0.265
-0.215
-0.12
0.015
0.2
0.435
0.68
0.955
1.205
1.42
1.55
1.545
1.4
1.15
0.845
0.51
0.21
-0.035
-0.205
-0.3
-0.33
-0.295
-0.26
-0.23
-0.22
-0.21
-0.235
-0.255
-0.255
-0.255
-0.255
-0.26
-0.265
-0.275
-0.29
-0.305
-0.315
-0.34
-0.325
-0.31
-0.305
-0.29
-0.295
-0.285
-0.275
-0.28
-0.28
-0.28
-0.29
-0.295
-0.3
-0.305
-0.285
-0.28
-0.28
-0.27
-0.27
-0.275
-0.28
-0.275
-0.28
-0.27
-0.275
-0.26
-0.235
-0.245
-0.24
-0.24
-0.23
-0.24
-0.23
-0.23
-0.235
-0.23
-0.24
-0.23
-0.23
-0.21
-0.205
-0.205
-0.195
-0.19
-0.18
-0.185
-0.17
-0.175
-0.175
-0.165
-0.16
-0.16
-0.145
-0.15
-0.155
-0.165
-0.165
-0.17
-0.17
-0.15
-0.135
-0.13
-0.115
-0.13
-0.13
-0.135
-0.135
-0.11
-0.105
-0.1
-0.09
-0.08
-0.065
-0.055
-0.04
-0.035
-0.05
-0.06
-0.07
-0.095
-0.11
-0.12
-0.12
-0.11
-0.105
-0.095
-0.065
-0.07
-0.07
-0.08
-0.1
-0.115
-0.13
-0.11
-0.105
-0.09
-0.1
-0.085
-0.085
-0.075
-0.07
-0.065
-0.075
-0.08
-0.105
-0.105
-0.105
-0.09
-0.085
-0.07
-0.06
-0.07
-0.06
-0.065
-0.08
-0.09
-0.095
-0.1
-0.1
-0.1
-0.08
-0.065
-0.045
-0.045
-0.04
-0.045
-0.055
-0.08
-0.08
-0.09
-0.085
-0.075
-0.07
-0.07
-0.04
-0.05
-0.035
-0.04
-0.055
-0.035
-0.025
-0.015
0
-0.005
0
0.005
0.01
0.02
0.03
0.05
0.075
0.075
0.08
0.085
0.085
0.09
0.085
0.08
0.09
0.085
0.075
0.065
0.03
0.015
-0.005
-0.025
-0.03
-0.04
-0.045
-0.05
-0.07
-0.085
-0.105
-0.12
-0.125
-0.135
-0.125
-0.125
-0.11
-0.105
-0.105
-0.12
-0.125
-0.145
-0.15
-0.155
-0.155
-0.16
-0.17
-0.175
-0.17
-0.135
-0.06
0.05
0.215
0.41
0.675
0.96
1.235
1.475
1.645
1.705
1.62
1.41
1.1
0.735
0.4
0.135
-0.065
-0.16
-0.22
-0.22
-0.205
-0.17
-0.145
-0.135
-0.14
-0.15
-0.16
-0.175
-0.185
-0.195
-0.2
-0.225
-0.22
-0.215
-0.225
-0.205
-0.21
-0.225
-0.21
-0.21
-0.2
-0.2
-0.185
-0.185
-0.205
-0.22
-0.235
-0.23
-0.23
-0.195
-0.175
-0.165
-0.165
-0.16
-0.175
-0.18
-0.2
-0.215
-0.215
-0.21
-0.19
-0.165
-0.145
-0.14
-0.14
-0.145
-0.14
-0.135
-0.145
-0.15
-0.16
-0.155
-0.155
-0.135
-0.12
-0.115
-0.105
-0.105
-0.1
-0.125
-0.115
-0.12
-0.1
-0.085
-0.075
-0.065
-0.07
-0.07
-0.08
-0.075
-0.09
-0.1
-0.08
-0.08
-0.07
-0.06
-0.065
-0.07
-0.075
-0.065
-0.06
-0.05
-0.045
-0.04
-0.035
-0.03
-0.015
-0.01
0.005
0.01
0.01
0.01
-0.01
0.005
-0.005
-0.01
-0.015
-0.015
-0.02
-0.005
0.005
-0.005
0.01
0
-0.005
-0.015
-0.035
-0.04
-0.05
-0.055
-0.035
-0.03
-0.03
-0.025
-0.035
-0.03
-0.01
-0.02
-0.015
-0.025
-0.025
-0.02
-0.02
-0.015
-0.005
-0.005
-0.005
-0.005
-0.005
-0.005
-0.02
-0.015
-0.01
-0.01
0
0.015
0.025
0.015
0.02
0.01
-0.005
-0.005
-0.01
-0.02
-0.01
0
0.02
0.03
0.04
0.04
0.045
0.035
0.025
0
0
-0.005
0
0.015
0.02
0.04
0.06
0.065
0.085
0.095
0.1
0.11
0.1
0.1
0.11
0.11
0.14
0.155
0.175
0.185
0.185
0.19
0.18
0.18
0.16
0.15
0.115
0.105
0.09
0.07
0.065
0.045
0.055
0.03
0.03
0.01
-0.025
-0.05
-0.07
-0.09
-0.08
-0.09
-0.09
-0.065
-0.06
-0.07
-0.07
-0.055
-0.09
-0.09
-0.085
-0.085
-0.08
-0.08
-0.07
-0.085
-0.11
-0.1
-0.065
0.005
0.125
0.28
0.465
0.68
0.915
1.165
1.415
1.63
1.76
1.77
1.635
1.38
1.065
0.73
0.41
0.185
0.02
-0.07
-0.105
-0.09
-0.065
-0.035
-0.04
-0.04
-0.06
-0.09
-0.125
-0.15
-0.18
-0.18
-0.175
-0.17
-0.145
-0.13
-0.14
-0.15
-0.15
-0.16
-0.18
-0.195
-0.2
-0.19
-0.175
-0.155
-0.135
-0.14
-0.14
-0.145
-0.15
-0.16
-0.165
-0.18
-0.175
-0.17
-0.155
-0.14
-0.125
-0.12
-0.125
-0.125
-0.125
-0.13
-0.135
-0.145
-0.135
-0.145
-0.145
-0.135
-0.12
-0.105
-0.1
-0.095
-0.1
-0.11
-0.105
-0.11
-0.115
-0.11
-0.105
-0.095
-0.075
-0.08
-0.085
-0.075
-0.08
-0.08
-0.08
-0.075
-0.06
-0.06
-0.05
-0.055
-0.055
-0.075
-0.065
-0.045
-0.055
-0.035
-0.035
-0.04
-0.035
-0.055
-0.05
-0.045
-0.02
-0.015
-0.005
-0.005
-0.005
-0.01
-0.005
-0.01
0
-0.015
0.015
0.01
0.025
0.015
0.005
-0.015
-0.03
-0.04
-0.04
-0.04
-0.04
-0.03
-0.01
0
0
0.005
-0.02
-0.03
-0.05
-0.07
-0.06
-0.06
-0.04
-0.045
-0.02
-0.025
-0.01
-0.02
-0.035
-0.035
-0.04
-0.05
-0.05
-0.045
-0.045
-0.04
-0.04
-0.02
-0.01
-0.015
-0.015
-0.01
-0.025
-0.045
-0.04
-0.045
-0.04
-0.01
-0.005
0.02
0.015
0.015
0.01
-0.005
-0.01
-0.02
-0.025
-0.02
-0.035
-0.035
-0.035
-0.035
-0.02
0
0.015
0.03
0.04
0.035
0.035
0.03
0.04
0.055
0.085
0.105
0.12
0.13
0.145
0.16
0.15
0.135
0.125
0.105
0.12
0.14
0.135
0.12
0.11
0.1
0.08
0.06
0.015
0
-0.025
-0.055
-0.065
-0.075
-0.07
-0.075
-0.065
-0.08
-0.085
-0.1
-0.105
-0.115
-0.12
-0.12
-0.11
-0.09
-0.095
-0.11
-0.115
-0.115
-0.135
-0.12
-0.115
-0.05
0.04
0.15
0.315
0.545
0.815
1.105
1.39
1.62
1.77
1.785
1.64
1.36
1.005
0.645
0.315
0.07
-0.085
-0.15
-0.15
-0.115
-0.09
-0.085
-0.095
-0.12
-0.145
-0.17
-0.19
-0.21
-0.195
-0.2
-0.195
-0.2
-0.215
-0.22
-0.225
-0.23
-0.23
-0.225
-0.215
-0.215
-0.205
-0.21
-0.2
-0.2
-0.205
-0.205
-0.215
-0.22
-0.22
-0.21
-0.195
-0.19
-0.185
-0.205
-0.205
-0.195
-0.215
-0.22
-0.225
-0.23
-0.215
-0.21
-0.205
-0.21
-0.205
-0.195
-0.18
-0.175
-0.16
-0.155
-0.155
-0.17
-0.16
-0.185
-0.175
-0.17
-0.16
-0.14
-0.13
-0.125
-0.135
-0.14
-0.145
-0.14
-0.155
-0.14
-0.135
-0.135
-0.125
-0.11
-0.095
-0.1
-0.1
-0.1
-0.1
-0.085
-0.115
-0.12
-0.12
-0.11
-0.095
-0.065
-0.065
-0.055
-0.06
-0.08
-0.095
-0.085
-0.085
-0.09
-0.07
-0.06
-0.055
-0.045
-0.045
-0.035
-0.05
-0.045
-0.055
-0.07
-0.07
-0.075
-0.08
-0.075
-0.07
-0.075
-0.08
-0.085
-0.08
-0.09
-0.09
-0.095
-0.1
-0.095
-0.095
-0.095
-0.09
-0.085
-0.085
-0.075
-0.08
-0.08
-0.09
-0.095
-0.09
-0.095
-0.095
-0.09
-0.085
-0.085
-0.09
-0.09
-0.095
-0.09
-0.09
-0.075
-0.085
-0.075
-0.075
-0.085
-0.065
-0.05
-0.05
-0.04
-0.06
-0.08
-0.095
-0.11
-0.115
-0.1
-0.09
-0.07
-0.06
-0.05
-0.05
-0.04
-0.06
-0.065
-0.075
-0.085
-0.085
-0.08
-0.085
-0.055
-0.04
-0.02
0.005
0.01
0.025
0.025
0.02
0.025
0.02
0.035
0.06
0.085
0.115
0.12
0.11
0.095
0.075
0.07
0.07
0.07
0.06
0.05
0.03
-0.005
-0.03
-0.05
-0.05
-0.07
-0.09
-0.1
-0.115
-0.115
-0.135
-0.14
-0.15
-0.16
-0.15
-0.16
-0.15
-0.15
-0.16
-0.165
-0.175
-0.17
-0.17
-0.17
-0.18
-0.19
-0.21
-0.205
-0.195
-0.12
-0.045
0.09
0.255
0.465
0.7
0.985
1.26
1.495
1.645
1.67
1.55
1.315
0.985
0.645
0.3
0.055
-0.12
-0.215
-0.24
-0.215
-0.185
-0.165
-0.175
-0.19
-0.225
-0.255
-0.27
-0.265
-0.28
-0.275
-0.275
-0.27
-0.265
-0.265
-0.265
-0.265
-0.28
-0.285
-0.29
-0.295
-0.285
-0.3
-0.285
-0.285
-0.27
-0.265
-0.26
-0.275
-0.27
-0.285
-0.285
-0.28
-0.28
-0.29
-0.275
-0.28
-0.27
-0.255
-0.245
-0.26
-0.265
-0.265
-0.285
-0.285
-0.29
-0.275
-0.27
-0.255
-0.25
-0.23
-0.215
-0.21
-0.23
-0.22
-0.22
-0.225
-0.215
-0.225
-0.24
-0.225
-0.21
-0.21
-0.2
-0.19
-0.195
-0.18
-0.19
-0.195
-0.19
-0.195
-0.195
-0.195
-0.18
-0.17
-0.15
-0.135
-0.155
-0.165
-0.17
-0.18
-0.195
-0.185
-0.175
-0.17
-0.165
-0.155
-0.145
-0.125
-0.12
-0.105
-0.12
-0.125
-0.125
-0.125
-0.13
-0.13
-0.125
-0.125
-0.12
-0.11
-0.115
-0.12
-0.115
-0.125
-0.135
-0.15
-0.15
-0.165
-0.16
-0.15
-0.14
-0.15
-0.14
-0.14
-0.155
-0.16
-0.165
-0.165
-0.155
-0.16
-0.16
-0.155
-0.14
-0.165
-0.165
-0.155
-0.155
-0.155
-0.16
-0.16
-0.14
-0.135
-0.145
-0.145
-0.15
-0.145
-0.145
-0.155
-0.145
-0.16
-0.17
-0.175
-0.165
-0.16
-0.14
-0.13
-0.12
-0.125
-0.125
-0.145
-0.155
-0.16
-0.17
-0.18
-0.165
-0.145
-0.14
-0.125
-0.115
-0.1
-0.115
-0.12
-0.15
-0.155
-0.165
-0.155
-0.155
-0.135
-0.125
-0.1
-0.075
-0.065
-0.055
-0.03
-0.03
-0.025
-0.025
-0.015
-0.015
-0.005
0.005
0
0
0.005
0
0.01
0.01
-0.015
-0.04
-0.07
-0.09
-0.11
-0.12
-0.15
-0.155
-0.16
-0.185
-0.195
-0.225
-0.24
-0.245
-0.25
-0.245
-0.245
-0.24
-0.245
-0.24
-0.255
-0.25
-0.245
-0.255
-0.265
-0.26
-0.265
-0.285
-0.295
-0.29
-0.28
-0.275
-0.23
-0.18
-0.065
0.08
0.275
0.515
0.78
1.065
1.32
1.51
1.595
1.505
1.285
0.945
0.59
0.265
-0.005
-0.18
-0.29
-0.32
-0.315
-0.275
-0.235
-0.23
-0.235
-0.275
-0.29
-0.335
-0.34
-0.36
-0.36
-0.365
-0.36
-0.355
-0.345
-0.33
-0.33
-0.34
-0.35
-0.335
-0.34
-0.33
-0.345
-0.35
-0.365
-0.37
-0.37
-0.36
-0.35
-0.345
-0.32
-0.335
-0.33
-0.35
-0.36
-0.36
-0.355
-0.34
-0.335
-0.325
-0.32
-0.32
-0.305
-0.315
-0.3
-0.31
-0.315
-0.315
-0.325
-0.33
-0.315
-0.3
-0.28
-0.275
-0.265
-0.265
-0.28
-0.295
-0.295
-0.295
-0.27
-0.27
-0.265
-0.265
-0.25
-0.245
-0.23
-0.225
-0.23
-0.24
-0.26
-0.255
-0.265
-0.26
-0.245
-0.23
-0.215
-0.205
-0.21
-0.215
-0.235
-0.235
-0.22
-0.21
-0.185
-0.17
-0.17
-0.17
-0.18
-0.195
-0.185
-0.19
-0.185
-0.185
-0.19
-0.19
-0.2
-0.19
-0.205
-0.19
-0.19
-0.195
-0.18
-0.175
-0.195
-0.2
-0.205
-0.205
-0.21
-0.21
-0.21
-0.21
-0.195
-0.185
-0.185
-0.18
-0.18
-0.185
-0.195
-0.195
-0.195
-0.2
-0.195
-0.205
-0.19
-0.19
-0.205
-0.2
-0.195
-0.2
-0.195
-0.2
-0.195
-0.19
-0.185
-0.195
-0.165
-0.17
-0.17
-0.175
-0.18
-0.18
-0.2
-0.2
-0.2
-0.195
-0.18
-0.18
-0.165
-0.175
-0.175
-0.18
-0.18
-0.18
-0.175
-0.165
-0.145
-0.125
-0.12
-0.11
-0.11
-0.1
-0.105
-0.095
-0.095
-0.095
-0.09
-0.06
-0.04
-0.015
-0.005
-0.005
0.005
-0.01
0
-0.01
-0.025
-0.04
-0.065
-0.085
-0.115
-0.135
-0.15
-0.165
-0.175
-0.185
-0.18
-0.195
-0.215
-0.24
-0.25
-0.255
-0.265
-0.27
-0.275
-0.27
-0.26
-0.26
-0.245
-0.255
-0.265
-0.285
-0.285
-0.295
-0.29
-0.3
-0.31
-0.315
-0.295
-0.24
-0.165
-0.06
0.09
0.29
0.55
0.86
1.17
1.435
1.59
1.605
1.455
1.175
0.84
0.45
0.105
-0.155
-0.305
-0.385
-0.395
-0.35
-0.295
-0.265
-0.24
-0.245
-0.265
-0.305
-0.335
-0.355
-0.365
-0.375
-0.365
-0.355
-0.355
-0.345
-0.345
-0.37
-0.36
-0.37
-0.37
-0.36
-0.35
-0.35
-0.36
-0.365
-0.355
-0.35
-0.35
-0.36
-0.355
-0.345
-0.345
-0.345
-0.36
-0.35
-0.345
-0.335
-0.33
-0.325
-0.335
-0.32
-0.32
-0.33
-0.335
-0.34
-0.335
-0.33
-0.325
-0.31
-0.305
-0.295
-0.3
-0.3
-0.295
-0.295
-0.285
-0.295
-0.295
-0.29
-0.285
-0.28
-0.26
-0.245
-0.245
-0.25
-0.235
-0.24
-0.23
-0.245
-0.25
-0.25
-0.245
-0.235
-0.225
-0.215
-0.2
-0.205
-0.215
-0.23
-0.24
-0.235
-0.235
-0.23
-0.21
-0.205
-0.185
-0.185
-0.17
-0.16
-0.13
-0.125
-0.13
-0.135
-0.14
-0.16
-0.175
-0.17
-0.16
-0.15
-0.14
-0.14
-0.15
-0.165
-0.17
-0.175
-0.175
-0.18
-0.17
-0.16
-0.165
-0.145
-0.15
-0.16
-0.165
-0.17
-0.18
-0.185
-0.175
-0.175
-0.17
-0.16
-0.145
-0.135
-0.125
-0.135
-0.13
-0.15
-0.15
-0.15
-0.16
-0.16
-0.16
-0.155
-0.155
-0.16
-0.155
-0.15
-0.145
-0.14
-0.13
-0.135
-0.14
-0.145
-0.145
-0.145
-0.14
-0.14
-0.15
-0.155
-0.145
-0.135
-0.14
-0.145
-0.14
-0.145
-0.125
-0.12
-0.105
-0.095
-0.075
-0.075
-0.06
-0.055
-0.04
-0.045
-0.05
-0.05
-0.025
0.005
0.03
0.045
0.06
0.05
0.045
0.02
0.02
0.005
0
-0.015
-0.015
-0.01
-0.03
-0.04
-0.07
-0.095
-0.11
-0.135
-0.155
-0.18
-0.195
-0.18
-0.18
-0.17
-0.17
-0.185
-0.195
-0.21
-0.215
-0.215
-0.21
-0.22
-0.22
-0.215
-0.23
-0.235
-0.24
-0.26
-0.225
-0.175
-0.085
0.055
0.205
0.41
0.66
0.93
1.205
1.465
1.625
1.655
1.54
1.285
0.945
0.575
0.225
-0.045
-0.225
-0.305
-0.31
-0.28
-0.22
-0.175
-0.15
-0.165
-0.19
-0.215
-0.275
-0.285
-0.305
-0.305
-0.295
-0.285
-0.27
-0.27
-0.27
-0.255
-0.265
-0.26
-0.265
-0.275
-0.29
-0.295
-0.3
-0.295
-0.29
-0.275
-0.265
-0.255
-0.235
-0.235
-0.24
-0.265
-0.27
-0.275
-0.275
-0.28
-0.275
-0.255
-0.245
-0.245
-0.24
-0.245
-0.265
-0.26
-0.255
-0.25
-0.235
-0.235
-0.225
-0.21
-0.185
-0.19
-0.2
-0.195
-0.2
-0.205
-0.21
-0.205
-0.21
-0.195
-0.19
-0.18
-0.175
-0.18
-0.17
-0.175
-0.16
-0.155
-0.165
-0.16
-0.165
-0.175
-0.175
-0.17
-0.16
-0.165
-0.165
-0.16
-0.16
-0.16
-0.15
-0.14
-0.12
-0.115
-0.105
-0.095
-0.07
-0.085
-0.09
-0.105
-0.11
-0.105
-0.105
-0.115
-0.115
-0.105
-0.09
-0.08
-0.075
-0.08
-0.085
-0.105
-0.135
-0.15
-0.15
-0.14
-0.145
-0.115
-0.11
-0.11
-0.09
-0.095
-0.1
-0.11
-0.125
-0.14
-0.145
-0.145
-0.155
-0.14
-0.125
-0.1
-0.09
-0.095
-0.105
-0.135
-0.15
-0.15
-0.145
-0.135
-0.13
-0.12
-0.125
-0.11
-0.085
-0.095
-0.08
-0.08
-0.09
-0.1
-0.105
-0.1
-0.11
-0.115
-0.105
-0.09
-0.085
-0.075
-0.07
-0.07
-0.07
-0.075
-0.075
-0.08
-0.09
-0.1
-0.12
-0.11
-0.09
-0.085
-0.065
-0.055
-0.035
-0.045
-0.045
-0.025
-0.025
-0.015
0.005
0.035
0.055
0.065
0.06
0.045
0.035
0.04
0.02
0.03
0.03
0.025
0.02
0.015
-0.005
-0.035
-0.08
-0.115
-0.145
-0.155
-0.16
-0.165
-0.185
-0.185
-0.19
-0.195
-0.195
-0.18
-0.185
-0.195
-0.205
-0.215
-0.22
-0.215
-0.225
-0.23
-0.215
-0.21
-0.205
-0.23
-0.245
-0.265
-0.26
-0.225
-0.155
-0.045
0.11
0.305
0.55
0.81
1.095
1.355
1.57
1.685
1.675
1.525
1.26
0.905
0.555
0.23
-0.015
-0.165
-0.225
-0.245
-0.24
-0.225
-0.22
-0.215
-0.24
-0.25
-0.275
-0.3
-0.305
-0.32
-0.325
-0.32
-0.315
-0.3
-0.32
-0.325
-0.34
-0.345
-0.345
-0.335
-0.33
-0.32
-0.315
-0.32
-0.325
-0.33
-0.345
-0.36
-0.36
-0.36
-0.33
-0.32
-0.305
-0.305
-0.31
-0.315
-0.33
-0.345
-0.35
-0.33
-0.335
-0.325
-0.315
-0.3
-0.3
-0.295
-0.3
-0.295
-0.3
-0.32
-0.315
-0.315
-0.32
-0.315
-0.295
-0.285
-0.265
-0.25
-0.255
-0.25
-0.235
-0.235
-0.245
-0.26
-0.29
-0.27
-0.285
-0.28
-0.265
-0.24
-0.23
-0.225
-0.225
-0.225
-0.23
-0.23
-0.235
-0.245
-0.245
-0.24
-0.245
-0.24
-0.225
-0.225
-0.21
-0.215
-0.215
-0.21
-0.21
-0.195
-0.2
-0.205
-0.19
-0.18
-0.175
-0.175
-0.165
-0.165
-0.165
-0.175
-0.195
-0.195
-0.2
-0.2
-0.21
-0.195
-0.2
-0.19
-0.2
-0.19
-0.195
-0.2
-0.205
-0.195
-0.2
-0.2
-0.185
-0.18
-0.175
-0.185
-0.185
-0.205
-0.205
-0.225
-0.235
-0.23
-0.22
-0.215
-0.215
-0.2
-0.195
-0.2
-0.2
-0.195
-0.205
-0.195
-0.22
-0.225
-0.225
-0.22
-0.225
-0.215
-0.21
-0.19
-0.18
-0.175
-0.18
-0.185
-0.195
-0.205
-0.195
-0.195
-0.2
-0.18
-0.185
-0.17
-0.155
-0.155
-0.16
-0.185
-0.2
-0.22
-0.23
-0.225
-0.23
-0.205
-0.175
-0.185
-0.165
-0.17
-0.17
-0.17
-0.155
-0.155
-0.155
-0.15
-0.13
-0.13
-0.11
-0.1
-0.09
-0.065
-0.05
-0.015
-0.01
-0.02
-0.03
-0.05
-0.055
-0.065
-0.055
-0.06
-0.065
-0.065
-0.085
-0.105
-0.125
-0.14
-0.165
-0.175
-0.175
-0.185
-0.19
-0.215
-0.24
-0.275
-0.3
-0.315
-0.32
-0.315
-0.3
-0.29
-0.28
-0.285
-0.28
-0.28
-0.285
-0.31
-0.315
-0.32
-0.32
-0.335
-0.345
-0.36
-0.34
-0.305
-0.235
-0.13
-0.015
0.15
0.35
0.605
0.88
1.155
1.395
1.545
1.575
1.46
1.235
0.94
0.605
0.285
0.015
-0.175
-0.31
-0.36
-0.355
-0.335
-0.31
-0.285
-0.305
-0.33
-0.345
-0.37
-0.385
-0.42
-0.415
-0.425
-0.42
-0.415
-0.405
-0.415
-0.41
-0.405
-0.405
-0.415
-0.42
-0.43
-0.42
-0.42
-0.405
-0.4
-0.4
-0.415
-0.41
-0.39
-0.4
-0.395
-0.405
-0.415
-0.43
-0.415
-0.41
-0.405
-0.39
-0.385
-0.38
-0.36
-0.37
-0.385
-0.385
-0.39
-0.4
-0.395
-0.4
-0.39
-0.38
-0.365
-0.355
-0.355
-0.345
-0.355
-0.355
-0.37
-0.365
-0.355
-0.355
-0.345
-0.325
-0.335
-0.3
-0.3
-0.305
-0.29
-0.3
-0.31
-0.33
-0.33
-0.34
-0.34
-0.335
-0.325
-0.31
-0.305
-0.3
-0.295
-0.305
-0.3
-0.295
-0.28
-0.265
-0.26
-0.265
-0.265
-0.26
-0.26
-0.245
-0.24
-0.25
-0.25
-0.26
-0.265
-0.275
-0.28
-0.275
-0.27
-0.265
-0.255
-0.25
-0.255
-0.26
-0.285
-0.29
-0.3
-0.3
-0.3
-0.295
-0.28
-0.285
-0.285
-0.29
-0.295
-0.3
-0.295
-0.3
-0.295
-0.29
-0.3
-0.29
-0.27
-0.255
-0.27
-0.28
-0.285
-0.305
-0.305
-0.31
-0.295
-0.29
-0.285
-0.295
-0.285
-0.27
-0.265
-0.275
-0.265
-0.265
-0.285
-0.28
-0.295
-0.29
-0.295
-0.275
-0.275
-0.26
-0.24
-0.255
-0.26
-0.265
-0.27
-0.285
-0.28
-0.275
-0.285
-0.27
-0.245
-0.23
-0.215
-0.215
-0.2
-0.215
-0.21
-0.215
-0.205
-0.195
-0.175
-0.125
-0.095
-0.07
-0.075
-0.085
-0.115
-0.125
-0.135
-0.145
-0.165
-0.17
-0.18
-0.18
-0.185
-0.195
-0.215
-0.23
-0.25
-0.26
-0.285
-0.32
-0.345
-0.365
-0.385
-0.38
-0.385
-0.365
-0.35
-0.345
-0.36
-0.365
-0.37
-0.39
-0.4
-0.395
-0.4
-0.4
-0.4
-0.39
-0.405
-0.405
-0.41
-0.385
-0.32
-0.24
-0.125
0.02
0.23
0.47
0.765
1.055
1.305
1.46
1.465
1.33
1.075
0.735
0.36
0.05
-0.2
-0.38
-0.445
-0.445
-0.435
-0.39
-0.38
-0.385
-0.395
-0.425
-0.46
-0.485
-0.49
-0.49
-0.475
-0.465
-0.455
-0.455
-0.46
-0.46
-0.47
-0.5
-0.525
-0.52
-0.53
-0.52
-0.505
-0.5
-0.48
-0.485
-0.495
-0.505
-0.505
-0.49
-0.495
-0.495
-0.485
-0.475
-0.465
-0.44
-0.45
-0.455
-0.465
-0.47
-0.48
-0.48
-0.475
-0.47
-0.465
-0.445
-0.44
-0.42
-0.41
-0.41
-0.42
-0.405
-0.43
-0.435
-0.445
-0.46
-0.435
-0.43
-0.41
-0.385
-0.39
-0.375
-0.38
-0.39
-0.395
-0.4
-0.405
-0.385
-0.38
-0.36
-0.35
-0.335
-0.36
-0.35
-0.35
-0.36
-0.37
-0.38
-0.38
-0.375
-0.355
-0.34
-0.33
-0.315
-0.3
-0.295
-0.305
-0.315
-0.31
-0.315
-0.32
-0.31
-0.305
-0.31
-0.31
-0.295
-0.3
-0.295
-0.29
-0.305
-0.305
-0.305
-0.3
-0.31
-0.305
-0.305
-0.305
-0.295
-0.305
-0.3
-0.305
-0.315
-0.33
-0.335
-0.325
-0.32
-0.305
-0.295
-0.29
-0.295
-0.3
-0.305
-0.315
-0.325
-0.325
-0.33
-0.325
-0.32
-0.315
-0.32
-0.31
-0.3
-0.3
-0.295
-0.3
-0.315
-0.32
-0.305
-0.31
-0.3
-0.295
-0.285
-0.28
-0.275
-0.275
-0.275
-0.275
-0.305
-0.3
-0.31
-0.31
-0.32
-0.315
-0.3
-0.28
-0.26
-0.255
-0.25
-0.255
-0.255
-0.27
-0.275
-0.265
-0.24
-0.22
-0.2
-0.185
-0.155
-0.145
-0.125
-0.11
-0.1
-0.1
-0.115
-0.115
-0.115
-0.11
-0.11
-0.11
-0.12
-0.145
-0.18
-0.205
-0.23
-0.245
-0.265
-0.28
-0.29
-0.3
-0.3
-0.315
-0.315
-0.33
-0.33
-0.33
-0.335
-0.355
-0.355
-0.365
-0.355
-0.345
-0.34
-0.325
-0.32
-0.325
-0.355
-0.36
-0.375
-0.38
-0.305
-0.215
-0.03
0.225
0.49
0.8
1.095
1.35
1.525
1.535
1.385
1.105
0.735
0.35
0.025
-0.21
-0.35
-0.405
-0.4
-0.37
-0.335
-0.305
-0.315
-0.335
-0.36
-0.385
-0.415
-0.415
-0.415
-0.405
-0.39
-0.38
-0.385
-0.39
-0.415
-0.425
-0.435
-0.43
-0.445
-0.42
-0.415
-0.4
-0.39
-0.375
-0.385
-0.38
-0.395
-0.4
-0.4
-0.4
-0.4
-0.4
-0.38
-0.375
-0.36
-0.375
-0.36
-0.37
-0.38
-0.395
-0.385
-0.375
-0.37
-0.35
-0.35
-0.335
-0.32
-0.325
-0.33
-0.33
-0.34
-0.355
-0.335
-0.345
-0.345
-0.335
-0.32
-0.3
-0.28
-0.27
-0.265
-0.27
-0.285
-0.3
-0.3
-0.285
-0.295
-0.285
-0.27
-0.265
-0.26
-0.26
-0.255
-0.255
-0.26
-0.25
-0.26
-0.265
-0.265
-0.27
-0.26
-0.25
-0.225
-0.21
-0.195
-0.19
-0.195
-0.2
-0.205
-0.195
-0.185
-0.19
-0.185
-0.195
-0.19
-0.18
-0.17
-0.16
-0.175
-0.18
-0.185
-0.195
-0.205
-0.215
-0.235
-0.22
-0.205
-0.205
-0.185
-0.17
-0.19
-0.22
-0.225
-0.23
-0.235
-0.225
-0.19
-0.19
-0.185
-0.185
-0.18
-0.18
-0.175
-0.185
-0.195
-0.19
-0.195
-0.2
-0.195
-0.18
-0.18
-0.17
-0.18
-0.18
-0.2
-0.2
-0.195
-0.195
-0.19
-0.185
-0.18
-0.175
-0.17
-0.18
-0.17
-0.165
-0.155
-0.17
-0.165
-0.18
-0.185
-0.185
-0.19
-0.17
-0.17
-0.155
-0.16
-0.15
-0.145
-0.135
-0.135
-0.125
-0.135
-0.105
-0.1
-0.1
-0.08
-0.065
-0.025
-0.025
-0.005
0.01
0.005
0.005
0.01
-0.005
0.01
0.005
-0.005
-0.015
-0.05
-0.105
-0.13
-0.145
-0.155
-0.16
-0.165
-0.17
-0.185
-0.205
-0.215
-0.235
-0.245
-0.255
-0.245
-0.25
-0.255
-0.26
-0.255
-0.25
-0.245
-0.24
-0.225
-0.235
-0.245
-0.255
-0.28
-0.28
-0.26
-0.205
-0.105
0.02
0.215
0.45
0.71
1.02
1.295
1.53
1.66
1.675
1.55
1.285
0.97
0.63
0.31
0.05
-0.135
-0.255
-0.3
-0.315
-0.29
-0.24
-0.235
-0.225
-0.24
-0.255
-0.28
-0.29
-0.295
-0.295
-0.3
-0.305
-0.305
-0.3
-0.305
-0.29
-0.305
-0.325
-0.33
-0.33
-0.32
-0.305
-0.295
-0.29
-0.3
-0.295
-0.3
-0.305
-0.3
-0.31
-0.31
-0.31
-0.3
-0.29
-0.295
-0.3
-0.295
-0.28
-0.275
-0.275
-0.265
-0.265
-0.26
-0.255
-0.235
-0.25
-0.265
-0.275
-0.29
-0.295
-0.3
-0.29
-0.26
-0.25
-0.245
-0.22
-0.21
-0.22
-0.205
-0.21
-0.21
-0.215
-0.225
-0.22
-0.21
-0.205
-0.2
-0.18
-0.17
-0.16
-0.155
-0.165
-0.175
-0.19
-0.2
-0.225
-0.215
-0.2
-0.175
-0.165
-0.14
-0.15
-0.145
-0.15
-0.145
-0.155
-0.155
-0.16
-0.14
-0.125
-0.11
-0.095
-0.085
-0.075
-0.08
-0.075
-0.085
-0.105
-0.12
-0.125
-0.115
-0.115
-0.11
-0.11
-0.1
-0.1
-0.095
-0.095
-0.085
-0.1
-0.105
-0.12
-0.135
-0.145
-0.14
-0.14
-0.13
-0.125
-0.105
-0.095
-0.09
-0.11
-0.115
-0.135
-0.14
-0.14
-0.115
-0.115
-0.105
-0.105
-0.11
-0.125
-0.13
-0.135
-0.125
-0.12
-0.125
-0.115
-0.105
-0.1
-0.085
-0.075
-0.095
-0.085
-0.08
-0.09
-0.085
-0.11
-0.095
-0.1
-0.08
-0.07
-0.055
-0.06
-0.06
-0.07
-0.08
-0.08
-0.085
-0.1
-0.11
-0.11
-0.105
-0.085
-0.065
-0.055
-0.055
-0.045
-0.04
-0.03
-0.025
-0.02
-0.02
-0.03
-0.005
0.005
0.03
0.07
0.105
0.11
0.115
0.12
0.09
0.075
0.075
0.065
0.065
0.065
0.06
0.035
0.01
-0.01
-0.02
-0.045
-0.06
-0.09
-0.115
-0.13
-0.14
-0.13
-0.135
-0.145
-0.15
-0.155
-0.165
-0.16
-0.16
-0.155
-0.16
-0.16
-0.16
-0.155
-0.175
-0.19
-0.2
-0.185
-0.135
-0.055
0.07
0.23
0.45
0.735
1.04
1.33
1.605
1.79
1.815
1.7
1.435
1.105
0.715
0.38
0.12
-0.06
-0.155
-0.19
-0.175
-0.145
-0.13
-0.09
-0.115
-0.145
-0.19
-0.23
-0.25
-0.25
-0.24
-0.235
-0.22
-0.225
-0.23
-0.225
-0.23
-0.23
-0.245
-0.25
-0.245
-0.24
-0.25
-0.245
-0.235
-0.23
-0.225
-0.225
-0.225
-0.235
-0.245
-0.245
-0.23
-0.225
-0.215
-0.21
-0.215
-0.225
-0.225
-0.215
-0.225
-0.235
-0.23
-0.225
-0.215
-0.185
-0.19
-0.18
-0.175
-0.19
-0.185
-0.175
-0.19
-0.18
-0.19
-0.175
-0.16
-0.15
-0.14
-0.135
-0.12
-0.125
-0.12
-0.13
-0.13
-0.13
-0.14
-0.125
-0.12
-0.11
-0.11
-0.11
-0.1
-0.095
-0.1
-0.11
-0.1
-0.1
-0.095
-0.085
-0.09
-0.08
-0.08
-0.075
-0.065
-0.06
-0.045
-0.055
-0.035
-0.035
-0.035
-0.04
-0.04
-0.055
-0.06
-0.07
-0.06
-0.055
-0.055
-0.05
-0.055
-0.065
-0.07
-0.095
-0.085
-0.08
-0.08
-0.065
-0.05
-0.045
-0.045
-0.06
-0.085
-0.11
-0.11
-0.1
-0.09
-0.095
-0.075
-0.09
-0.095
-0.095
-0.09
-0.08
-0.085
-0.065
-0.075
-0.08
-0.07
-0.075
-0.065
-0.06
-0.07
-0.075
-0.075
-0.06
-0.055
-0.06
-0.075
-0.075
-0.075
-0.065
-0.06
-0.055
-0.05
-0.05
-0.055
-0.065
-0.07
-0.055
-0.07
-0.085
-0.08
-0.075
-0.065
-0.05
-0.05
-0.04
-0.04
-0.035
-0.05
-0.055
-0.05
-0.05
-0.035
-0.01
0.01
0.025
0.03
0.05
0.045
0.04
0.055
0.075
0.085
0.08
0.09
0.09
0.095
0.09
0.085
0.08
0.07
0.085
0.07
0.06
0.045
0.015
-0.03
-0.05
-0.05
-0.06
-0.075
-0.085
-0.105
-0.12
-0.145
-0.155
-0.19
-0.18
-0.195
-0.195
-0.175
-0.18
-0.15
-0.145
-0.14
-0.16
-0.16
-0.175
-0.19
-0.215
-0.23
-0.23
-0.21
-0.175
-0.105
-0.01
0.12
0.27
0.46
0.69
0.96
1.26
1.54
1.735
1.805
1.725
1.51
1.21
0.84
0.495
0.19
-0.035
-0.18
-0.215
-0.2
-0.175
-0.155
-0.16
-0.17
-0.205
-0.24
-0.265
-0.29
-0.305
-0.305
-0.31
-0.3
-0.305
-0.3
-0.3
-0.305
-0.295
-0.295
-0.275
-0.29
-0.31
-0.31
-0.32
-0.3
-0.31
-0.315
-0.305
-0.305
-0.31
-0.305
-0.32
-0.325
-0.33
-0.335
-0.325
-0.31
-0.3
-0.3
-0.3
-0.3
-0.285
-0.28
-0.285
-0.305
-0.295
-0.3
-0.3
-0.3
-0.29
-0.28
-0.26
-0.275
-0.26
-0.265
-0.255
-0.25
-0.26
-0.285
-0.29
-0.28
-0.28
-0.275
-0.25
-0.24
-0.225
-0.215
-0.205
-0.215
-0.225
-0.235
-0.24
-0.25
-0.23
-0.235
-0.23
-0.22
-0.205
-0.2
-0.205
-0.21
-0.205
-0.21
-0.205
-0.19
-0.185
-0.185
-0.18
-0.155
-0.145
-0.145
-0.135
-0.145
-0.155
-0.16
-0.175
-0.185
-0.185
-0.18
-0.195
-0.195
-0.19
-0.185
-0.18
-0.18
-0.175
-0.18
-0.185
-0.18
-0.19
-0.19
-0.195
-0.215
-0.21
-0.205
-0.19
-0.2
-0.2
-0.195
-0.22
-0.21
-0.2
-0.195
-0.195
-0.21
-0.215
-0.215
-0.215
-0.215
-0.215
-0.21
-0.215
-0.19
-0.2
-0.175
-0.17
-0.16
-0.155
-0.165
-0.16
-0.18
-0.175
-0.19
-0.2
-0.19
-0.195
-0.18
-0.175
-0.165
-0.155
-0.16
-0.16
-0.16
-0.17
-0.19
-0.19
-0.2
-0.2
-0.185
-0.185
-0.175
-0.16
-0.15
-0.145
-0.14
-0.135
-0.145
-0.145
-0.14
-0.125
-0.095
-0.09
-0.05
-0.04
-0.015
-0.005
0
-0.005
-0.025
-0.035
-0.035
-0.045
-0.045
-0.04
-0.03
-0.02
-0.03
-0.05
-0.06
-0.08
-0.105
-0.13
-0.15
-0.18
-0.195
-0.22
-0.23
-0.235
-0.25
-0.265
-0.265
-0.265
-0.275
-0.28
-0.275
-0.285
-0.29
-0.29
-0.275
-0.275
-0.265
-0.275
-0.295
-0.305
-0.31
-0.315
-0.325
-0.315
-0.265
-0.2
-0.085
0.07
0.255
0.475
0.73
0.995
1.24
1.465
1.59
1.565
1.41
1.18
0.875
0.565
0.26
0.03
-0.145
-0.245
-0.295
-0.295
-0.3
-0.28
-0.265
-0.25
-0.275
-0.285
-0.315
-0.335
-0.355
-0.375
-0.4
-0.405
-0.4
-0.39
-0.4
-0.385
-0.375
-0.375
-0.39
-0.395
-0.395
-0.375
-0.375
-0.375
-0.39
-0.385
-0.415
-0.405
-0.395
-0.395
-0.4
-0.39
-0.39
-0.39
-0.385
-0.405
-0.41
-0.41
-0.39
-0.39
-0.375
-0.365
-0.37
-0.37
-0.38
-0.385
-0.385
-0.4
-0.4
-0.4
-0.39
-0.385
-0.39
-0.375
-0.38
-0.37
-0.36
-0.36
-0.365
-0.365
-0.355
-0.36
-0.355
-0.35
-0.335
-0.335
-0.335
-0.32
-0.325
-0.32
-0.315
-0.315
-0.31
-0.315
-0.315
-0.3
-0.29
-0.295
-0.3
-0.3
-0.305
-0.305
-0.305
-0.31
-0.295
-0.285
-0.255
-0.235
-0.23
-0.21
-0.215
-0.225
-0.24
-0.25
-0.255
-0.25
-0.245
-0.25
-0.245
-0.245
-0.235
-0.24
-0.245
-0.235
-0.245
-0.27
-0.28
-0.29
-0.28
-0.28
-0.285
-0.27
-0.28
-0.275
-0.275
-0.27
-0.285
-0.295
-0.3
-0.295
-0.305
-0.295
-0.29
-0.27
-0.285
-0.28
-0.285
-0.29
-0.29
-0.295
-0.295
-0.29
-0.29
-0.285
-0.275
-0.27
-0.25
-0.255
-0.26
-0.26
-0.265
-0.265
-0.28
-0.295
-0.29
-0.29
-0.27
-0.265
-0.255
-0.255
-0.255
-0.24
-0.25
-0.27
-0.275
-0.285
-0.285
-0.29
-0.275
-0.275
-0.24
-0.22
-0.21
-0.2
-0.22
-0.22
-0.225
-0.22
-0.205
-0.17
-0.15
-0.13
-0.11
-0.095
-0.08
-0.065
-0.08
-0.11
-0.135
-0.155
-0.16
-0.135
-0.145
-0.16
-0.165
-0.17
-0.2
-0.215
-0.23
-0.26
-0.3
-0.34
-0.345
-0.365
-0.36
-0.355
-0.36
-0.365
-0.35
-0.37
-0.36
-0.37
-0.37
-0.37
-0.375
-0.385
-0.39
-0.395
-0.415
-0.42
-0.44
-0.425
-0.39
-0.32
-0.215
-0.055
0.17
0.435
0.735
1.035
1.285
1.445
1.455
1.335
1.075
0.735
0.36
0.03
-0.215
-0.37
-0.44
-0.445
-0.42
-0.38
-0.345
-0.35
-0.38
-0.405
-0.445
-0.48
-0.505
-0.51
-0.495
-0.5
-0.47
-0.455
-0.455
-0.465
-0.47
-0.49
-0.505
-0.505
-0.5
-0.5
-0.495
-0.48
-0.465
-0.465
-0.46
-0.465
-0.495
-0.505
-0.52
-0.505
-0.495
-0.49
-0.475
-0.48
-0.48
-0.47
-0.47
-0.47
-0.475
-0.5
-0.5
-0.495
-0.475
-0.475
-0.48
-0.465
-0.475
-0.465
-0.46
-0.45
-0.445
-0.445
-0.46
-0.455
-0.465
-0.445
-0.45
-0.45
-0.45
-0.44
-0.445
-0.43
-0.42
-0.43
-0.445
-0.425
-0.43
-0.43
-0.425
-0.425
-0.415
-0.415
-0.42
-0.415
-0.415
-0.415
-0.43
-0.425
-0.435
-0.425
-0.405
-0.395
-0.375
-0.375
-0.375
-0.355
-0.37
-0.37
-0.365
-0.365
-0.355
-0.34
-0.33
-0.33
-0.32
-0.325
-0.325
-0.32
-0.32
-0.34
-0.35
-0.37
-0.375
-0.37
-0.36
-0.34
-0.335
-0.33
-0.34
-0.355
-0.37
-0.37
-0.38
-0.395
-0.39
-0.375
-0.36
-0.345
-0.325
-0.33
-0.34
-0.34
-0.35
-0.355
-0.375
-0.395
-0.405
-0.41
-0.385
-0.365
-0.35
-0.35
-0.34
-0.34
-0.345
-0.335
-0.34
-0.35
-0.36
-0.37
-0.36
-0.36
-0.345
-0.34
-0.345
-0.34
-0.35
-0.345
-0.355
-0.375
-0.38
-0.375
-0.37
-0.375
-0.38
-0.36
-0.355
-0.345
-0.345
-0.34
-0.345
-0.34
-0.34
-0.34
-0.31
-0.285
-0.275
-0.265
-0.28
-0.265
-0.26
-0.245
-0.24
-0.215
-0.195
-0.185
-0.18
-0.185
-0.195
-0.205
-0.21
-0.22
-0.235
-0.25
-0.255
-0.275
-0.3
-0.32
-0.345
-0.37
-0.365
-0.38
-0.41
-0.405
-0.425
-0.445
-0.45
-0.45
-0.455
-0.455
-0.46
-0.46
-0.445
-0.45
-0.45
-0.45
-0.45
-0.47
-0.49
-0.505
-0.51
-0.475
-0.44
-0.355
-0.225
-0.05
0.185
0.45
0.725
1
1.2
1.32
1.28
1.12
0.845
0.505
0.165
-0.135
-0.355
-0.5
-0.565
-0.565
-0.54
-0.49
-0.465
-0.45
-0.46
-0.48
-0.505
-0.515
-0.535
-0.53
-0.55
-0.55
-0.57
-0.57
-0.575
-0.57
-0.56
-0.56
-0.555
-0.545
-0.555
-0.55
-0.56
-0.565
-0.565
-0.565
-0.565
-0.55
-0.555
-0.54
-0.535
-0.53
-0.55
-0.55
-0.56
-0.555
-0.58
-0.57
-0.555
-0.545
-0.535
-0.525
-0.51
-0.515
-0.525
-0.51
-0.52
-0.51
-0.515
-0.525
-0.52
-0.52
-0.505
-0.5
-0.48
-0.46
-0.465
-0.465
-0.47
-0.475
-0.485
-0.495
-0.495
-0.49
-0.475
-0.465
-0.455
-0.445
-0.455
-0.45
-0.445
-0.455
-0.455
-0.46
-0.455
-0.455
-0.445
-0.44
-0.43
-0.42
-0.42
-0.41
-0.4
-0.39
-0.4
-0.385
-0.38
-0.375
-0.355
-0.33
-0.335
-0.315
-0.325
-0.33
-0.37
-0.37
-0.38
-0.385
-0.4
-0.395
-0.385
-0.38
-0.375
-0.36
-0.36
-0.365
-0.37
-0.365
-0.37
-0.375
-0.385
-0.385
-0.38
-0.39
-0.39
-0.38
-0.375
-0.36
-0.365
-0.36
-0.38
-0.38
-0.375
-0.385
-0.385
-0.37
-0.355
-0.35
-0.35
-0.355
-0.365
-0.365
-0.385
-0.39
-0.385
-0.385
-0.385
-0.355
-0.355
-0.34
-0.345
-0.365
-0.375
-0.36
-0.385
-0.385
-0.375
-0.37
-0.37
-0.35
-0.365
-0.36
-0.36
-0.37
-0.37
-0.365
-0.36
-0.35
-0.34
-0.345
-0.325
-0.305
-0.3
-0.285
-0.265
-0.265
-0.255
-0.245
-0.24
-0.235
-0.22
-0.21
-0.195
-0.18
-0.175
-0.185
-0.195
-0.21
-0.225
-0.23
-0.255
-0.28
-0.31
-0.33
-0.35
-0.36
-0.37
-0.375
-0.395
-0.405
-0.41
-0.435
-0.45
-0.44
-0.455
-0.44
-0.44
-0.44
-0.43
-0.43
-0.42
-0.425
-0.435
-0.44
-0.455
-0.485
-0.49
-0.495
-0.48
-0.455
-0.38
-0.28
-0.13
0.07
0.33
0.58
0.84
1.07
1.245
1.33
1.28
1.095
0.815
0.49
0.15
-0.11
-0.3
-0.425
-0.475
-0.49
-0.48
-0.46
-0.44
-0.43
-0.425
-0.445
-0.47
-0.5
-0.52
-0.525
-0.53
-0.525
-0.515
-0.51
-0.5
-0.505
-0.5
-0.5
-0.515
-0.525
-0.535
-0.53
-0.53
-0.525
-0.505
-0.505
-0.505
-0.505
-0.505
-0.5
-0.515
-0.515
-0.515
-0.495
-0.5
-0.5
-0.505
-0.505
-0.515
-0.515
-0.495
-0.5
-0.49
-0.485
-0.48
-0.48
-0.49
-0.48
-0.485
-0.49
-0.485
-0.475
-0.47
-0.46
-0.455
-0.45
-0.445
-0.45
-0.465
-0.47
-0.465
-0.46
-0.46
-0.46
-0.435
-0.425
-0.41
-0.4
-0.405
-0.415
-0.42
-0.435
-0.43
-0.43
-0.425
-0.425
-0.415
-0.41
-0.42
-0.415
-0.405
-0.41
-0.405
-0.395
-0.4
-0.39
-0.39
-0.395
