-0.345
-0.345
-0.345
-0.345
-0.345
-0.345
-0.345
-0.345
-0.33
-0.32
-0.32
-0.325
-0.33
-0.325
-0.315
-0.305
-0.3
-0.315
-0.32
-0.315
-0.3
-0.29
-0.29
-0.295
-0.29
-0.295
-0.285
-0.255
-0.23
-0.2
-0.195
-0.16
-0.16
-0.165
-0.2
-0.2
-0.21
-0.21
-0.205
-0.21
-0.21
-0.22
-0.25
-0.25
-0.25
-0.26
-0.265
-0.275
-0.305
-0.32
-0.33
-0.32
-0.32
-0.315
-0.34
-0.35
-0.335
-0.32
-0.31
-0.335
-0.345
-0.35
-0.35
-0.355
-0.35
-0.35
-0.37
-0.36
-0.345
-0.325
-0.325
-0.335
-0.37
-0.4
-0.4
-0.395
-0.35
-0.21
-0.01
0.245
0.53
0.85
1.085
1.065
0.815
0.48
0.21
-0.01
-0.145
-0.185
-0.24
-0.285
-0.285
-0.285
-0.29
-0.3
-0.335
-0.36
-0.36
-0.385
-0.395
-0.415
-0.43
-0.435
-0.405
-0.41
-0.405
-0.415
-0.44
-0.43
-0.415
-0.42
-0.415
-0.42
-0.43
-0.44
-0.425
-0.415
-0.425
-0.43
-0.425
-0.415
-0.42
-0.415
-0.42
-0.42
-0.435
-0.415
-0.415
-0.4
-0.395
-0.41
-0.425
-0.415
-0.405
-0.395
-0.4
-0.41
-0.42
-0.41
-0.395
-0.38
-0.39
-0.4
-0.415
-0.42
-0.385
-0.375
-0.38
-0.375
-0.365
-0.35
-0.35
-0.35
-0.34
-0.35
-0.35
-0.325
-0.32
-0.31
-0.31
-0.31
-0.305
-0.285
-0.27
-0.265
-0.265
-0.255
-0.24
-0.22
-0.21
-0.205
-0.19
-0.175
-0.175
-0.165
-0.155
-0.145
-0.13
-0.125
-0.135
-0.125
-0.11
-0.09
-0.105
-0.12
-0.12
-0.12
-0.11
-0.11
-0.13
-0.16
-0.165
-0.17
-0.17
-0.18
-0.205
-0.225
-0.235
-0.245
-0.25
-0.255
-0.265
-0.275
-0.285
-0.295
-0.29
-0.305
-0.315
-0.33
-0.34
-0.325
-0.325
-0.315
-0.31
-0.335
-0.355
-0.355
-0.365
-0.345
-0.345
-0.33
-0.35
-0.355
-0.34
-0.345
-0.345
-0.35
-0.35
-0.35
-0.345
-0.33
-0.34
-0.35
-0.36
-0.35
-0.34
-0.33
-0.32
-0.325
-0.32
-0.325
-0.32
-0.315
-0.325
-0.345
-0.35
-0.33
-0.32
-0.305
-0.305
-0.3
-0.32
-0.325
-0.325
-0.305
-0.29
-0.305
-0.32
-0.325
-0.325
-0.31
-0.31
-0.31
-0.325
-0.31
-0.31
-0.315
-0.31
-0.32
-0.33
-0.32
-0.315
-0.315
-0.315
-0.34
-0.34
-0.325
-0.31
-0.305
-0.32
-0.32
-0.33
-0.33
-0.335
-0.32
-0.32
-0.33
-0.34
-0.345
-0.335
-0.32
-0.33
-0.325
-0.32
-0.325
-0.325
-0.315
-0.315
-0.32
-0.335
-0.335
-0.325
-0.32
-0.33
-0.34
-0.35
-0.33
-0.335
-0.325
-0.31
-0.34
-0.355
-0.335
-0.32
-0.305
-0.31
-0.315
-0.32
-0.35
-0.315
-0.32
-0.32
-0.32
-0.32
-0.32
-0.31
-0.31
-0.315
-0.315
-0.31
-0.295
-0.28
-0.28
-0.29
-0.295
-0.295
-0.285
-0.275
-0.24
-0.22
-0.215
-0.215
-0.175
-0.145
-0.14
-0.15
-0.185
-0.21
-0.215
-0.215
-0.205
-0.21
-0.215
-0.235
-0.255
-0.25
-0.25
-0.24
-0.255
-0.27
-0.275
-0.3
-0.3
-0.325
-0.32
-0.325
-0.315
-0.305
-0.305
-0.315
-0.32
-0.355
-0.35
-0.35
-0.335
-0.32
-0.325
-0.34
-0.35
-0.325
-0.305
-0.31
-0.325
-0.36
-0.355
-0.36
-0.355
-0.36
-0.37
-0.27
-0.085
0.135
0.385
0.69
0.945
1.02
0.89
0.605
0.345
0.115
-0.055
-0.14
-0.185
-0.235
-0.24
-0.25
-0.27
-0.3
-0.315
-0.34
-0.37
-0.38
-0.405
-0.395
-0.385
-0.375
-0.365
-0.375
-0.395
-0.415
-0.42
-0.405
-0.39
-0.41
-0.4
-0.41
-0.39
-0.395
-0.39
-0.395
-0.415
-0.425
-0.42
-0.395
-0.39
-0.4
-0.405
-0.405
-0.395
-0.385
-0.385
-0.385
-0.4
-0.405
-0.405
-0.4
-0.39
-0.385
-0.4
-0.415
-0.405
-0.39
-0.375
-0.37
-0.385
-0.4
-0.385
-0.37
-0.36
-0.365
-0.365
-0.375
-0.38
-0.355
-0.34
-0.34
-0.335
-0.345
-0.335
-0.32
-0.315
-0.33
-0.315
-0.33
-0.315
-0.3
-0.275
-0.255
-0.24
-0.255
-0.245
-0.235
-0.22
-0.21
-0.21
-0.215
-0.205
-0.185
-0.17
-0.15
-0.14
-0.145
-0.14
-0.115
-0.12
-0.125
-0.115
-0.13
-0.12
-0.12
-0.125
-0.115
-0.13
-0.125
-0.125
-0.13
-0.14
-0.16
-0.17
-0.19
-0.195
-0.19
-0.18
-0.195
-0.225
-0.235
-0.24
-0.235
-0.235
-0.24
-0.27
-0.275
-0.28
-0.275
-0.275
-0.28
-0.3
-0.31
-0.31
-0.305
-0.295
-0.295
-0.31
-0.32
-0.305
-0.3
-0.295
-0.315
-0.315
-0.32
-0.305
-0.305
-0.295
-0.31
-0.305
-0.3
-0.305
-0.3
-0.31
-0.295
-0.295
-0.295
-0.29
-0.285
-0.28
-0.275
-0.275
-0.285
-0.29
-0.275
-0.28
-0.27
-0.285
-0.295
-0.295
-0.275
-0.27
-0.265
-0.265
-0.27
-0.265
-0.27
-0.26
-0.26
-0.265
-0.285
-0.285
-0.275
-0.26
-0.265
-0.28
-0.285
-0.28
-0.265
-0.265
-0.265
-0.265
-0.265
-0.27
-0.27
-0.255
-0.265
-0.28
-0.29
-0.28
-0.27
-0.27
-0.265
-0.265
-0.295
-0.28
-0.285
-0.265
-0.265
-0.28
-0.285
-0.285
-0.275
-0.275
-0.275
-0.275
-0.285
-0.285
-0.27
-0.265
-0.27
-0.275
-0.285
-0.28
-0.265
-0.265
-0.275
-0.27
-0.275
-0.275
-0.275
-0.26
-0.265
-0.275
-0.285
-0.28
-0.28
-0.26
-0.27
-0.275
-0.28
-0.28
-0.27
-0.255
-0.225
-0.235
-0.245
-0.24
-0.22
-0.21
-0.215
-0.22
-0.225
-0.235
-0.23
-0.22
-0.19
-0.18
-0.185
-0.15
-0.115
-0.105
-0.1
-0.125
-0.15
-0.155
-0.15
-0.16
-0.175
-0.185
-0.2
-0.19
-0.19
-0.18
-0.195
-0.21
-0.225
-0.22
-0.225
-0.24
-0.24
-0.26
-0.29
-0.285
-0.28
-0.265
-0.275
-0.295
-0.305
-0.295
-0.29
-0.275
-0.285
-0.295
-0.305
-0.32
-0.305
-0.295
-0.3
-0.305
-0.305
-0.295
-0.285
-0.29
-0.31
-0.34
-0.37
-0.365
-0.29
-0.15
0.065
0.295
0.54
0.84
1.085
1.165
1.04
0.765
0.48
0.22
0.015
-0.08
-0.115
-0.185
-0.235
-0.245
-0.235
-0.24
-0.26
-0.3
-0.345
-0.35
-0.365
-0.35
-0.365
-0.375
-0.39
-0.375
-0.37
-0.37
-0.375
-0.385
-0.39
-0.395
-0.4
-0.39
-0.39
-0.4
-0.4
-0.39
-0.385
-0.385
-0.385
-0.395
-0.41
-0.4
-0.39
-0.385
-0.395
-0.395
-0.405
-0.405
-0.39
-0.38
-0.38
-0.395
-0.4
-0.41
-0.39
-0.385
-0.375
-0.385
-0.395
-0.395
-0.39
-0.38
-0.385
-0.39
-0.395
-0.385
-0.375
-0.365
-0.365
-0.37
-0.37
-0.365
-0.35
-0.34
-0.345
-0.345
-0.36
-0.35
-0.32
-0.305
-0.29
-0.3
-0.29
-0.295
-0.28
-0.255
-0.235
-0.245
-0.245
-0.235
-0.225
-0.205
-0.18
-0.18
-0.19
-0.17
-0.155
-0.145
-0.14
-0.15
-0.14
-0.145
-0.135
-0.11
-0.13
-0.125
-0.13
-0.135
-0.12
-0.12
-0.12
-0.145
-0.165
-0.17
-0.175
-0.175
-0.19
-0.215
-0.225
-0.235
-0.25
-0.245
-0.265
-0.27
-0.295
-0.315
-0.305
-0.295
-0.3
-0.315
-0.325
-0.325
-0.325
-0.325
-0.33
-0.34
-0.355
-0.36
-0.35
-0.335
-0.355
-0.36
-0.365
-0.365
-0.345
-0.35
-0.36
-0.36
-0.355
-0.35
-0.345
-0.335
-0.345
-0.365
-0.375
-0.365
-0.35
-0.355
-0.345
-0.35
-0.35
-0.355
-0.345
-0.33
-0.325
-0.33
-0.35
-0.35
-0.35
-0.34
-0.34
-0.35
-0.355
-0.345
-0.335
-0.33
-0.34
-0.34
-0.35
-0.34
-0.325
-0.325
-0.32
-0.34
-0.355
-0.36
-0.355
-0.345
-0.33
-0.335
-0.345
-0.345
-0.35
-0.33
-0.33
-0.345
-0.345
-0.35
-0.34
-0.345
-0.345
-0.345
-0.35
-0.345
-0.345
-0.335
-0.355
-0.36
-0.365
-0.365
-0.36
-0.35
-0.355
-0.355
-0.355
-0.35
-0.345
-0.34
-0.355
-0.37
-0.38
-0.38
-0.375
-0.365
-0.36
-0.355
-0.355
-0.365
-0.365
-0.345
-0.34
-0.36
-0.385
-0.38
-0.36
-0.345
-0.345
-0.365
-0.375
-0.385
-0.355
-0.35
-0.35
-0.36
-0.37
-0.37
-0.355
-0.35
-0.35
-0.365
-0.365
-0.36
-0.335
-0.325
-0.33
-0.325
-0.33
-0.315
-0.305
-0.31
-0.32
-0.325
-0.32
-0.31
-0.28
-0.265
-0.245
-0.24
-0.23
-0.23
-0.225
-0.22
-0.235
-0.25
-0.265
-0.275
-0.255
-0.26
-0.255
-0.27
-0.3
-0.315
-0.315
-0.32
-0.325
-0.335
-0.355
-0.365
-0.365
-0.38
-0.39
-0.4
-0.395
-0.38
-0.375
-0.385
-0.415
-0.42
-0.42
-0.425
-0.415
-0.405
-0.41
-0.425
-0.43
-0.41
-0.395
-0.4
-0.42
-0.425
-0.435
-0.45
-0.455
-0.465
-0.45
-0.41
-0.265
-0.025
0.205
0.46
0.715
0.975
1.095
1.01
0.755
0.46
0.19
-0.05
-0.185
-0.225
-0.25
-0.28
-0.325
-0.35
-0.355
-0.35
-0.365
-0.385
-0.425
-0.445
-0.445
-0.455
-0.45
-0.455
-0.48
-0.495
-0.485
-0.475
-0.47
-0.47
-0.48
-0.505
-0.5
-0.49
-0.48
-0.495
-0.5
-0.49
-0.49
-0.475
-0.465
-0.475
-0.475
-0.485
-0.49
-0.48
-0.475
-0.465
-0.475
-0.49
-0.475
-0.465
-0.475
-0.485
-0.485
-0.485
-0.475
-0.47
-0.465
-0.475
-0.475
-0.48
-0.47
-0.475
-0.46
-0.46
-0.465
-0.485
-0.475
-0.47
-0.455
-0.465
-0.455
-0.46
-0.46
-0.455
-0.435
-0.435
-0.43
-0.435
-0.435
-0.415
-0.41
-0.4
-0.395
-0.41
-0.4
-0.38
-0.355
-0.355
-0.375
-0.355
-0.345
-0.32
-0.305
-0.29
-0.29
-0.28
-0.275
-0.255
-0.235
-0.235
-0.235
-0.245
-0.24
-0.21
-0.195
-0.18
-0.19
-0.195
-0.19
-0.185
-0.175
-0.17
-0.18
-0.185
-0.175
-0.19
-0.19
-0.195
-0.21
-0.235
-0.26
-0.255
-0.255
-0.27
-0.295
-0.32
-0.335
-0.345
-0.325
-0.33
-0.355
-0.37
-0.37
-0.375
-0.365
-0.375
-0.38
-0.39
-0.41
-0.405
-0.405
-0.395
-0.41
-0.42
-0.42
-0.41
-0.39
-0.395
-0.405
-0.415
-0.42
-0.415
-0.41
-0.415
-0.42
-0.425
-0.425
-0.425
-0.4
-0.405
-0.415
-0.425
-0.42
-0.42
-0.42
-0.43
-0.43
-0.43
-0.43
-0.405
-0.405
-0.405
-0.415
-0.43
-0.42
-0.415
-0.41
-0.4
-0.415
-0.415
-0.415
-0.41
-0.39
-0.39
-0.4
-0.41
-0.415
-0.395
-0.385
-0.39
-0.405
-0.395
-0.4
-0.385
-0.38
-0.39
-0.4
-0.415
-0.41
-0.4
-0.4
-0.41
-0.42
-0.405
-0.41
-0.4
-0.4
-0.395
-0.4
-0.415
-0.42
-0.415
-0.41
-0.42
-0.42
-0.42
-0.43
-0.415
-0.395
-0.4
-0.405
-0.42
-0.435
-0.425
-0.42
-0.415
-0.405
-0.41
-0.43
-0.43
-0.395
-0.41
-0.42
-0.425
-0.415
-0.405
-0.41
-0.405
-0.415
-0.415
-0.415
-0.405
-0.385
-0.41
-0.42
-0.43
-0.42
-0.41
-0.4
-0.405
-0.42
-0.42
-0.43
-0.415
-0.4
-0.41
-0.405
-0.405
-0.415
-0.4
-0.41
-0.41
-0.42
-0.41
-0.405
-0.39
-0.375
-0.375
-0.375
-0.375
-0.375
-0.365
-0.345
-0.345
-0.35
-0.375
-0.37
-0.335
-0.29
-0.27
-0.25
-0.235
-0.225
-0.225
-0.225
-0.245
-0.245
-0.26
-0.27
-0.275
-0.27
-0.275
-0.29
-0.31
-0.315
-0.32
-0.32
-0.33
-0.355
-0.38
-0.39
-0.395
-0.385
-0.4
-0.4
-0.42
-0.435
-0.425
-0.41
-0.42
-0.42
-0.43
-0.435
-0.43
-0.415
-0.425
-0.435
-0.44
-0.425
-0.43
-0.42
-0.41
-0.42
-0.43
-0.455
-0.46
-0.47
-0.49
-0.475
-0.415
-0.27
-0.045
0.18
0.43
0.72
0.98
1.1
1.04
0.79
0.48
0.175
-0.075
-0.23
-0.28
-0.305
-0.355
-0.38
-0.395
-0.395
-0.395
-0.4
-0.43
-0.455
-0.47
-0.485
-0.485
-0.485
-0.505
-0.51
-0.505
-0.515
-0.5
-0.49
-0.49
-0.495
-0.51
-0.525
-0.51
-0.49
-0.49
-0.485
-0.49
-0.505
-0.5
-0.485
-0.49
-0.49
-0.495
-0.485
-0.485
-0.485
-0.485
-0.49
-0.49
-0.485
-0.47
-0.47
-0.48
-0.475
-0.49
-0.49
-0.47
-0.455
-0.45
-0.455
-0.46
-0.47
-0.46
-0.455
-0.445
-0.465
-0.47
-0.46
-0.45
-0.43
-0.435
-0.425
-0.43
-0.435
-0.43
-0.42
-0.42
-0.42
-0.425
-0.41
-0.39
-0.375
-0.38
-0.37
-0.37
-0.38
-0.37
-0.355
-0.345
-0.355
-0.345
-0.34
-0.315
-0.3
-0.295
-0.28
-0.28
-0.27
-0.25
-0.245
-0.245
-0.235
-0.23
-0.235
-0.225
-0.205
-0.195
-0.195
-0.195
-0.2
-0.18
-0.17
-0.17
-0.17
-0.185
-0.185
-0.175
-0.165
-0.165
-0.18
-0.18
-0.185
-0.195
-0.205
-0.23
-0.24
-0.245
-0.265
-0.27
-0.27
-0.285
-0.305
-0.315
-0.315
-0.315
-0.31
-0.315
-0.32
-0.335
-0.34
-0.34
-0.335
-0.34
-0.345
-0.36
-0.365
-0.355
-0.35
-0.345
-0.36
-0.375
-0.37
-0.37
-0.365
-0.36
-0.365
-0.375
-0.365
-0.35
-0.33
-0.345
-0.35
-0.35
-0.35
-0.345
-0.33
-0.335
-0.34
-0.355
-0.365
-0.34
-0.33
-0.335
-0.34
-0.345
-0.345
-0.34
-0.32
-0.33
-0.34
-0.33
-0.335
-0.335
-0.33
-0.335
-0.335
-0.335
-0.335
-0.325
-0.31
-0.315
-0.325
-0.32
-0.335
-0.32
-0.31
-0.315
-0.32
-0.32
-0.32
-0.32
-0.31
-0.32
-0.32
-0.33
-0.34
-0.32
-0.31
-0.31
-0.325
-0.335
-0.335
-0.315
-0.315
-0.33
-0.33
-0.33
-0.33
-0.33
-0.31
-0.32
-0.33
-0.33
-0.33
-0.325
-0.315
-0.32
-0.325
-0.33
-0.335
-0.325
-0.305
-0.315
-0.32
-0.33
-0.33
-0.315
-0.315
-0.31
-0.325
-0.325
-0.325
-0.315
-0.31
-0.315
-0.32
-0.325
-0.32
-0.315
-0.315
-0.31
-0.325
-0.33
-0.325
-0.325
-0.31
-0.3
-0.32
-0.32
-0.33
-0.325
-0.31
-0.32
-0.315
-0.315
-0.32
-0.325
-0.31
-0.305
-0.31
-0.32
-0.33
-0.315
-0.295
-0.29
-0.29
-0.31
-0.3
-0.285
-0.28
-0.28
-0.275
-0.285
-0.275
-0.25
-0.22
-0.2
-0.2
-0.18
-0.155
-0.13
-0.125
-0.13
-0.165
-0.18
-0.19
-0.195
-0.19
-0.2
-0.215
-0.22
-0.225
-0.23
-0.215
-0.235
-0.255
-0.26
-0.285
-0.295
-0.31
-0.31
-0.325
-0.335
-0.355
-0.35
-0.35
-0.36
-0.36
-0.37
-0.375
-0.36
-0.35
-0.35
-0.37
-0.385
-0.385
-0.375
-0.36
-0.37
-0.37
-0.37
-0.375
-0.39
-0.385
-0.405
-0.43
-0.43
-0.415
-0.3
-0.135
0.075
0.275
0.515
0.785
0.975
1
0.82
0.53
0.265
0
-0.2
-0.27
-0.3
-0.335
-0.37
-0.37
-0.36
-0.365
-0.39
-0.415
-0.455
-0.48
-0.47
-0.465
-0.48
-0.475
-0.5
-0.495
-0.485
-0.49
-0.49
-0.5
-0.515
-0.515
-0.5
-0.485
-0.485
-0.49
-0.51
-0.52
-0.52
-0.51
-0.495
-0.49
-0.5
-0.5
-0.515
-0.515
-0.52
-0.52
-0.52
-0.525
-0.505
-0.5
-0.49
-0.515
-0.515
-0.535
-0.51
-0.515
-0.515
-0.54
-0.545
-0.52
-0.51
-0.485
-0.485
-0.495
-0.51
-0.525
-0.51
-0.5
-0.495
-0.51
-0.505
-0.5
-0.475
-0.49
-0.48
-0.485
-0.495
-0.495
-0.495
-0.495
-0.49
-0.495
-0.485
-0.47
-0.45
-0.44
-0.44
-0.45
-0.465
-0.455
-0.445
-0.415
-0.42
-0.41
-0.415
-0.41
-0.395
-0.37
-0.365
-0.355
-0.36
-0.37
-0.355
-0.32
-0.305
-0.32
-0.325
-0.33
-0.315
-0.295
-0.3
-0.28
-0.285
-0.28
-0.275
-0.265
-0.265
-0.27
-0.28
-0.29
-0.295
-0.295
-0.305
-0.32
-0.32
-0.335
-0.33
-0.335
-0.36
-0.355
-0.365
-0.38
-0.405
-0.405
-0.415
-0.44
-0.435
-0.445
-0.44
-0.42
-0.425
-0.445
-0.45
-0.46
-0.445
-0.45
-0.455
-0.465
-0.47
-0.465
-0.44
-0.44
-0.46
-0.465
-0.465
-0.455
-0.455
-0.48
-0.49
-0.48
-0.48
-0.505
-0.485
-0.46
-0.455
-0.465
-0.48
-0.49
-0.465
-0.435
-0.43
-0.455
-0.485
-0.49
-0.46
-0.445
-0.45
-0.47
-0.485
-0.47
-0.45
-0.445
-0.44
-0.425
-0.46
-0.46
-0.455
-0.455
-0.455
-0.45
-0.46
-0.455
-0.44
-0.43
-0.43
-0.445
-0.45
-0.45
-0.445
-0.445
-0.46
-0.47
-0.46
-0.465
-0.45
-0.445
-0.43
-0.445
-0.46
-0.46
-0.435
-0.44
-0.43
-0.425
-0.445
-0.455
-0.465
-0.465
-0.47
-0.46
-0.455
-0.445
-0.445
-0.455
-0.45
-0.445
-0.45
-0.47
-0.48
-0.455
-0.435
-0.44
-0.45
-0.47
-0.465
-0.445
-0.445
-0.465
-0.47
-0.465
-0.465
-0.465
-0.475
-0.48
-0.48
-0.475
-0.475
-0.455
-0.46
-0.47
-0.48
-0.48
-0.46
-0.46
-0.46
-0.46
-0.46
-0.47
-0.45
-0.44
-0.42
-0.415
-0.425
-0.425
-0.42
-0.405
-0.39
-0.4
-0.415
-0.4
-0.365
-0.32
-0.29
-0.305
-0.345
-0.385
-0.345
-0.34
-0.325
-0.35
-0.38
-0.4
-0.39
-0.38
-0.4
-0.405
-0.43
-0.45
-0.455
-0.45
-0.46
-0.47
-0.475
-0.49
-0.475
-0.47
-0.465
-0.465
-0.475
-0.47
-0.455
-0.46
-0.505
-0.55
-0.55
-0.535
-0.5
-0.465
-0.45
-0.475
-0.51
-0.535
-0.545
-0.52
-0.525
-0.525
-0.54
-0.535
-0.46
-0.31
-0.08
0.185
0.475
0.78
1.025
1.065
0.85
0.515
0.205
-0.095
-0.29
-0.38
-0.405
-0.465
-0.485
-0.505
-0.505
-0.505
-0.505
-0.54
-0.565
-0.59
-0.575
-0.555
-0.555
-0.56
-0.565
-0.585
-0.575
-0.565
-0.57
-0.56
-0.565
-0.57
-0.57
-0.56
-0.55
-0.57
-0.56
-0.58
-0.57
-0.575
-0.565
-0.575
-0.57
-0.57
-0.58
-0.57
-0.56
-0.565
-0.56
-0.565
-0.555
-0.555
-0.565
-0.555
-0.56
-0.575
-0.565
-0.55
-0.54
-0.53
-0.54
-0.57
-0.57
-0.565
-0.565
-0.555
-0.555
-0.555
-0.53
-0.52
-0.525
-0.525
-0.535
-0.53
-0.52
-0.5
-0.5
-0.515
-0.525
-0.525
-0.49
-0.475
-0.465
-0.48
-0.47
-0.47
-0.45
-0.445
-0.44
-0.435
-0.445
-0.445
-0.435
-0.435
-0.42
-0.395
-0.38
-0.355
-0.34
-0.33
-0.345
-0.34
-0.345
-0.345
-0.33
-0.31
-0.305
-0.295
-0.3
-0.315
-0.305
-0.28
-0.295
-0.3
-0.305
-0.31
-0.315
-0.325
-0.32
-0.32
-0.35
-0.36
-0.37
-0.37
-0.37
-0.385
-0.405
-0.41
-0.405
-0.41
-0.415
-0.435
-0.445
-0.47
-0.445
-0.445
-0.425
-0.455
-0.46
-0.465
-0.465
-0.465
-0.465
-0.455
-0.45
-0.46
-0.45
-0.445
-0.455
-0.465
-0.46
-0.465
-0.445
-0.43
-0.425
-0.445
-0.44
-0.45
-0.455
-0.435
-0.43
-0.43
-0.455
-0.465
-0.44
-0.425
-0.42
-0.44
-0.45
-0.435
-0.42
-0.4
-0.4
-0.41
-0.425
-0.425
-0.415
-0.415
-0.425
-0.415
-0.415
-0.415
-0.4
-0.4
-0.41
-0.425
-0.425
-0.42
-0.41
-0.4
-0.41
-0.425
-0.435
-0.44
-0.39
-0.385
-0.37
-0.36
-0.35
-0.355
-0.39
-0.41
-0.45
-0.46
-0.465
-0.465
-0.44
-0.39
-0.355
-0.305
-0.315
-0.37
-0.425
-0.435
-0.435
-0.42
-0.39
-0.37
-0.365
-0.35
-0.375
-0.39
-0.425
-0.42
-0.41
-0.405
-0.395
-0.395
-0.385
-0.39
-0.385
-0.38
-0.375
-0.365
-0.36
-0.355
-0.355
-0.35
-0.37
-0.375
-0.38
-0.385
-0.37
-0.355
-0.365
-0.37
-0.38
-0.38
-0.365
-0.34
-0.33
-0.335
-0.345
-0.35
-0.355
-0.325
-0.31
-0.32
-0.33
-0.32
-0.29
-0.255
-0.23
-0.19
-0.175
-0.185
-0.18
-0.2
-0.205
-0.22
-0.23
-0.235
-0.245
-0.25
-0.25
-0.255
-0.25
-0.25
-0.24
-0.255
-0.27
-0.275
-0.275
-0.285
-0.28
-0.305
-0.345
-0.365
-0.355
-0.365
-0.37
-0.355
-0.375
-0.365
-0.385
-0.38
-0.375
-0.36
-0.37
-0.375
-0.385
-0.375
-0.365
-0.345
-0.365
-0.385
-0.42
-0.44
-0.45
-0.38
-0.22
0.01
0.32
0.695
1.095
1.365
1.375
1.13
0.75
0.39
0.12
-0.015
-0.065
-0.1
-0.17
-0.2
-0.225
-0.235
-0.27
-0.305
-0.355
-0.375
-0.38
-0.395
-0.38
-0.395
-0.405
-0.425
-0.415
-0.41
-0.405
-0.4
-0.42
-0.43
-0.415
-0.415
-0.425
-0.435
-0.425
-0.43
-0.42
-0.41
-0.405
-0.415
-0.415
-0.425
-0.41
-0.4
-0.39
-0.405
-0.415
-0.42
-0.41
-0.39
-0.39
-0.395
-0.415
-0.42
-0.4
-0.395
-0.41
-0.42
-0.42
-0.415
-0.415
-0.39
-0.395
-0.39
-0.395
-0.39
-0.395
-0.39
-0.385
-0.385
-0.395
-0.385
-0.375
-0.36
-0.375
-0.37
-0.36
-0.355
-0.33
-0.32
-0.315
-0.32
-0.325
-0.32
-0.28
-0.26
-0.255
-0.26
-0.265
-0.26
-0.23
-0.205
-0.19
-0.19
-0.19
-0.185
-0.155
-0.135
-0.115
-0.125
-0.125
-0.11
-0.11
-0.105
-0.09
-0.09
-0.08
-0.08
-0.09
-0.065
-0.09
-0.09
-0.09
-0.1
-0.11
-0.125
-0.13
-0.145
-0.165
-0.19
-0.195
-0.2
-0.21
-0.23
-0.245
-0.26
-0.27
-0.265
-0.27
-0.28
-0.295
-0.325
-0.315
-0.31
-0.3
-0.29
-0.31
-0.32
-0.32
-0.305
-0.31
-0.33
-0.345
-0.355
-0.34
-0.33
-0.335
-0.325
-0.325
-0.33
-0.33
-0.32
-0.325
-0.33
-0.335
-0.335
-0.33
-0.315
-0.325
-0.32
-0.315
-0.325
-0.31
-0.315
-0.31
-0.295
-0.305
-0.315
-0.325
-0.31
-0.31
-0.305
-0.295
-0.31
-0.305
-0.295
-0.285
-0.285
-0.285
-0.3
-0.31
-0.3
-0.295
-0.28
-0.31
-0.31
-0.295
-0.275
-0.275
-0.29
-0.3
-0.31
-0.3
-0.275
-0.28
-0.285
-0.3
-0.31
-0.3
-0.28
-0.285
-0.3
-0.305
-0.31
-0.3
-0.295
-0.29
-0.285
-0.295
-0.295
-0.275
-0.28
-0.28
-0.3
-0.305
-0.3
-0.29
-0.285
-0.28
-0.285
-0.29
-0.3
-0.29
-0.295
-0.29
-0.29
-0.295
-0.3
-0.3
-0.295
-0.29
-0.295
-0.29
-0.31
-0.3
-0.29
-0.285
-0.285
-0.305
-0.3
-0.3
-0.295
-0.28
-0.285
-0.305
-0.3
-0.295
-0.27
-0.26
-0.26
-0.27
-0.285
-0.265
-0.25
-0.245
-0.255
-0.27
-0.27
-0.25
-0.23
-0.19
-0.15
-0.135
-0.135
-0.155
-0.15
-0.15
-0.15
-0.16
-0.185
-0.21
-0.205
-0.205
-0.215
-0.225
-0.23
-0.22
-0.21
-0.23
-0.25
-0.29
-0.3
-0.295
-0.305
-0.305
-0.33
-0.335
-0.335
-0.34
-0.335
-0.33
-0.32
-0.315
-0.34
-0.34
-0.315
-0.315
-0.335
-0.345
-0.35
-0.35
-0.335
-0.335
-0.33
-0.345
-0.355
-0.355
-0.365
-0.335
-0.205
0.015
0.32
0.695
1.075
1.325
1.305
1.045
0.69
0.36
0.105
-0.02
-0.055
-0.095
-0.145
-0.185
-0.205
-0.21
-0.235
-0.27
-0.285
-0.29
-0.3
-0.305
-0.32
-0.315
-0.305
-0.31
-0.36
-0.425
-0.47
-0.495
-0.495
-0.475
-0.455
-0.45
-0.45
-0.455
-0.45
-0.445
-0.425
-0.42
-0.42
-0.42
-0.42
-0.415
-0.415
-0.405
-0.415
-0.435
-0.435
-0.41
-0.4
-0.41
-0.41
-0.42
-0.415
-0.41
-0.415
-0.415
-0.42
-0.42
-0.435
-0.435
-0.43
-0.44
-0.435
-0.43
-0.43
-0.42
-0.405
-0.4
-0.42
-0.435
-0.445
-0.415
-0.405
-0.41
-0.415
-0.42
-0.435
-0.41
-0.4
-0.39
-0.39
-0.405
-0.395
-0.37
-0.365
-0.36
-0.36
-0.36
-0.33
-0.32
-0.315
-0.325
-0.33
-0.32
-0.32
-0.28
-0.25
-0.235
-0.21
-0.21
-0.225
-0.19
-0.165
-0.17
-0.18
-0.195
-0.21
-0.2
-0.175
-0.16
-0.175
-0.175
-0.18
-0.17
-0.165
-0.16
-0.175
-0.19
-0.195
-0.19
-0.22
-0.255
-0.3
-0.34
-0.335
-0.32
-0.315
-0.335
-0.345
-0.35
-0.35
-0.36
-0.365
-0.365
-0.365
-0.355
-0.37
-0.37
-0.365
-0.365
-0.375
-0.385
-0.385
-0.37
-0.38
-0.39
-0.405
-0.4
-0.405
-0.405
-0.385
-0.375
-0.385
-0.395
-0.415
-0.395
-0.375
-0.365
-0.37
-0.395
-0.39
-0.395
-0.38
-0.375
-0.37
-0.39
-0.405
-0.385
-0.37
-0.36
-0.36
-0.37
-0.375
-0.385
-0.365
-0.36
-0.36
-0.355
-0.355
-0.345
-0.345
-0.34
-0.34
-0.355
-0.37
-0.36
-0.355
-0.35
-0.335
-0.34
-0.335
-0.335
-0.34
-0.34
-0.365
-0.35
-0.335
-0.335
-0.325
-0.34
-0.355
-0.375
-0.375
-0.345
-0.325
-0.325
-0.34
-0.365
-0.37
-0.375
-0.355
-0.365
-0.37
-0.395
-0.385
-0.36
-0.345
-0.325
-0.315
-0.31
-0.305
-0.255
-0.21
-0.23
-0.29
-0.36
-0.405
-0.44
-0.455
-0.44
-0.42
-0.4
-0.385
-0.36
-0.33
-0.295
-0.3
-0.345
-0.4
-0.41
-0.38
-0.365
-0.37
-0.375
-0.38
-0.35
-0.34
-0.34
-0.33
-0.33
-0.33
-0.32
-0.32
-0.325
-0.34
-0.34
-0.315
-0.295
-0.25
-0.205
-0.175
-0.195
-0.215
-0.215
-0.215
-0.215
-0.22
-0.235
-0.25
-0.25
-0.25
-0.245
-0.25
-0.265
-0.285
-0.295
-0.305
-0.31
-0.345
-0.37
-0.375
-0.365
-0.355
-0.35
-0.35
-0.36
-0.38
-0.37
-0.36
-0.36
-0.365
-0.375
-0.39
-0.39
-0.365
-0.355
-0.36
-0.38
-0.38
-0.38
-0.385
-0.395
-0.41
-0.445
-0.44
-0.365
-0.175
0.08
0.35
0.655
0.975
1.21
1.22
0.995
0.67
0.335
0.045
-0.105
-0.125
-0.165
-0.22
-0.24
-0.27
-0.295
-0.33
-0.36
-0.385
-0.4
-0.405
-0.405
-0.41
-0.425
-0.45
-0.48
-0.485
-0.465
-0.45
-0.445
-0.435
-0.435
-0.445
-0.44
-0.44
-0.46
-0.465
-0.475
-0.475
-0.47
-0.45
-0.45
-0.45
-0.45
-0.45
-0.435
-0.43
-0.445
-0.455
-0.465
-0.475
-0.465
-0.455
-0.46
-0.455
-0.475
-0.475
-0.47
-0.45
-0.435
-0.44
-0.44
-0.455
-0.45
-0.44
-0.415
-0.43
-0.44
-0.445
-0.435
-0.425
-0.42
-0.415
-0.425
-0.425
-0.42
-0.41
-0.405
-0.405
-0.405
-0.405
-0.395
-0.38
-0.37
-0.36
-0.37
-0.37
-0.355
-0.33
-0.315
-0.32
-0.32
-0.325
-0.31
-0.295
-0.29
-0.285
-0.285
-0.29
-0.275
-0.255
-0.24
-0.22
-0.215
-0.215
-0.19
-0.175
-0.175
-0.195
-0.2
-0.195
-0.155
-0.13
-0.12
-0.11
-0.11
-0.11
-0.105
-0.125
-0.145
-0.16
-0.18
-0.185
-0.185
-0.175
-0.165
-0.17
-0.205
-0.245
-0.26
-0.27
-0.27
-0.28
-0.285
-0.3
-0.295
-0.3
-0.3
-0.315
-0.32
-0.33
-0.305
-0.3
-0.32
-0.32
-0.315
-0.33
-0.32
-0.31
-0.32
-0.33
-0.34
-0.335
-0.33
-0.315
-0.31
-0.31
-0.33
-0.335
-0.325
-0.32
-0.305
-0.33
-0.33
-0.33
-0.315
-0.295
-0.29
-0.3
-0.3
-0.325
-0.3
-0.295
-0.285
-0.3
-0.305
-0.295
-0.295
-0.28
-0.265
-0.275
-0.3
-0.305
-0.315
-0.315
-0.3
-0.31
-0.305
-0.29
-0.28
-0.265
-0.295
-0.285
-0.31
-0.29
-0.275
-0.27
-0.275
-0.27
-0.28
-0.31
-0.3
-0.29
-0.295
-0.28
-0.29
-0.295
-0.28
-0.265
-0.27
-0.295
-0.305
-0.31
-0.305
-0.28
-0.285
-0.29
-0.295
-0.3
-0.295
-0.29
-0.28
-0.27
-0.28
-0.285
-0.28
-0.27
-0.285
-0.295
-0.295
-0.3
-0.295
-0.285
-0.28
-0.285
-0.29
-0.29
-0.275
-0.275
-0.27
-0.295
-0.32
-0.33
-0.315
-0.31
-0.3
-0.305
-0.305
-0.305
-0.3
-0.28
-0.28
-0.29
-0.295
-0.31
-0.29
-0.29
-0.275
-0.27
-0.275
-0.285
-0.28
-0.27
-0.265
-0.27
-0.28
-0.275
-0.25
-0.245
-0.26
-0.265
-0.265
-0.25
-0.21
-0.175
-0.145
-0.12
-0.105
-0.115
-0.115
-0.13
-0.12
-0.135
-0.135
-0.165
-0.165
-0.18
-0.185
-0.205
-0.195
-0.21
-0.205
-0.21
-0.225
-0.24
-0.27
-0.29
-0.3
-0.305
-0.305
-0.32
-0.325
-0.335
-0.315
-0.31
-0.315
-0.32
-0.32
-0.34
-0.315
-0.31
-0.31
-0.325
-0.325
-0.335
-0.325
-0.3
-0.3
-0.315
-0.335
-0.335
-0.34
-0.355
-0.38
-0.385
-0.37
-0.3
-0.13
0.07
0.29
0.545
0.83
1.06
1.145
1.015
0.735
0.425
0.165
-0.04
-0.145
-0.155
-0.17
-0.185
-0.21
-0.245
-0.28
-0.29
-0.315
-0.345
-0.37
-0.395
-0.435
-0.43
-0.43
-0.42
-0.42
-0.445
-0.44
-0.435
-0.425
-0.43
-0.44
-0.44
-0.43
-0.43
-0.435
-0.44
-0.455
-0.455
-0.445
-0.435
-0.425
-0.42
-0.42
-0.43
-0.44
-0.415
-0.415
-0.43
-0.435
-0.44
-0.435
-0.43
-0.415
-0.42
-0.42
-0.43
-0.42
-0.41
-0.405
-0.41
-0.41
-0.425
-0.41
-0.39
-0.38
-0.385
-0.405
-0.415
-0.415
-0.41
-0.405
-0.4
-0.41
-0.42
-0.41
-0.41
-0.395
-0.395
-0.405
-0.4
-0.39
-0.38
-0.375
-0.375
-0.38
-0.375
-0.37
-0.365
-0.355
-0.35
-0.35
-0.355
-0.35
-0.335
-0.315
-0.305
-0.3
-0.3
-0.28
-0.265
-0.255
-0.265
-0.26
-0.265
-0.27
-0.245
-0.225
-0.235
-0.215
-0.215
-0.205
-0.19
-0.175
-0.175
-0.18
-0.175
-0.17
-0.15
-0.14
-0.145
-0.15
-0.16
-0.15
-0.17
-0.17
-0.175
-0.21
-0.24
-0.25
-0.25
-0.24
-0.245
-0.25
-0.275
-0.26
-0.275
-0.29
-0.305
-0.315
-0.33
-0.32
-0.33
-0.325
-0.305
-0.315
-0.325
-0.325
-0.325
-0.33
-0.32
-0.34
-0.365
-0.35
-0.355
-0.355
-0.35
-0.355
-0.36
-0.355
-0.325
-0.305
-0.32
-0.325
-0.34
-0.34
-0.335
-0.32
-0.33
-0.345
-0.345
-0.33
-0.31
-0.315
-0.325
-0.335
-0.345
-0.335
-0.32
-0.325
-0.335
-0.345
-0.35
-0.335
-0.335
-0.315
-0.32
-0.315
-0.325
-0.31
-0.31
-0.305
-0.305
-0.31
-0.33
-0.325
-0.315
-0.295
-0.295
-0.3
-0.31
-0.295
-0.29
-0.29
-0.315
-0.315
-0.31
-0.28
-0.28
-0.28
-0.305
-0.31
-0.325
-0.335
-0.335
-0.315
-0.32
-0.315
-0.32
-0.295
-0.285
-0.285
-0.29
-0.305
-0.31
-0.31
-0.295
-0.305
-0.31
-0.32
-0.32
-0.325
-0.32
-0.325
-0.315
-0.31
-0.31
-0.33
-0.315
-0.33
-0.315
-0.33
-0.325
-0.32
-0.305
-0.315
-0.315
-0.315
-0.335
-0.325
-0.325
-0.32
-0.31
-0.315
-0.32
-0.32
-0.31
-0.3
-0.295
-0.32
-0.335
-0.305
-0.275
-0.27
-0.27
-0.28
-0.305
-0.305
-0.275
-0.275
-0.275
-0.285
-0.29
-0.27
-0.215
-0.2
-0.185
-0.155
-0.135
-0.145
-0.175
-0.195
-0.215
-0.23
-0.245
-0.24
-0.24
-0.23
-0.23
-0.24
-0.255
-0.255
-0.27
-0.28
-0.285
-0.3
-0.315
-0.34
-0.34
-0.34
-0.33
-0.34
-0.36
-0.35
-0.335
-0.32
-0.345
-0.36
-0.37
-0.375
-0.385
-0.37
-0.355
-0.36
-0.375
-0.385
-0.36
-0.33
-0.33
-0.345
-0.385
-0.4
-0.415
-0.415
-0.42
-0.385
-0.28
-0.08
0.155
0.425
0.745
1.03
1.165
1.085
0.85
0.57
0.3
0.03
-0.145
-0.195
-0.22
-0.265
-0.305
-0.33
-0.335
-0.355
-0.38
-0.42
-0.445
-0.45
-0.46
-0.445
-0.435
-0.45
-0.45
-0.465
-0.475
-0.475
-0.475
-0.48
-0.47
-0.46
-0.465
-0.46
-0.44
-0.43
-0.43
-0.44
-0.45
-0.465
-0.48
-0.485
-0.485
-0.475
-0.48
-0.475
-0.465
-0.44
-0.45
-0.455
-0.455
-0.465
-0.45
-0.45
-0.465
-0.485
-0.485
-0.475
-0.47
-0.465
-0.465
-0.47
-0.47
-0.455
-0.45
-0.44
-0.44
-0.46
-0.475
-0.445
-0.445
-0.42
-0.42
-0.42
-0.43
-0.435
-0.42
-0.41
-0.41
-0.405
-0.405
-0.395
-0.385
-0.375
-0.365
-0.38
-0.385
-0.365
-0.35
-0.345
-0.335
-0.335
-0.33
-0.31
-0.305
-0.285
-0.275
-0.275
-0.28
-0.265
-0.255
-0.235
-0.2
-0.22
-0.23
-0.23
-0.225
-0.2
-0.19
-0.185
-0.2
-0.195
-0.185
-0.175
-0.18
-0.18
-0.185
-0.19
-0.175
-0.185
-0.2
-0.225
-0.245
-0.25
-0.245
-0.235
-0.245
-0.275
-0.29
-0.3
-0.295
-0.305
-0.305
-0.315
-0.335
-0.335
-0.34
-0.325
-0.335
-0.355
-0.365
-0.365
-0.355
-0.34
-0.355
-0.35
-0.36
-0.36
-0.35
-0.365
-0.37
-0.37
-0.37
-0.365
-0.35
-0.345
-0.355
-0.375
-0.385
-0.39
-0.365
-0.345
-0.34
-0.35
-0.36
-0.35
-0.345
-0.33
-0.34
-0.345
-0.365
-0.35
-0.33
-0.315
-0.325
-0.33
-0.345
-0.335
-0.33
-0.32
-0.315
-0.335
-0.33
-0.335
-0.32
-0.32
-0.315
-0.32
-0.32
-0.325
-0.325
-0.325
-0.32
-0.325
-0.335
-0.325
-0.32
-0.31
-0.315
-0.32
-0.34
-0.32
-0.32
-0.305
-0.31
-0.315
-0.34
-0.345
-0.32
-0.33
-0.315
-0.315
-0.33
-0.33
-0.33
-0.335
-0.335
-0.32
-0.33
-0.325
-0.32
-0.315
-0.325
-0.32
-0.34
-0.33
-0.33
-0.32
-0.33
-0.345
-0.335
-0.34
-0.325
-0.32
-0.315
-0.31
-0.33
-0.325
-0.32
-0.32
-0.325
-0.33
-0.345
-0.34
-0.325
-0.32
-0.335
-0.33
-0.345
-0.335
-0.325
-0.31
-0.315
-0.32
-0.335
-0.34
-0.32
-0.32
-0.32
-0.31
-0.31
-0.3
-0.3
-0.31
-0.315
-0.325
-0.32
-0.31
-0.285
-0.27
-0.285
-0.285
-0.3
-0.29
-0.26
-0.235
-0.215
-0.19
-0.17
-0.14
-0.135
-0.14
-0.17
-0.165
-0.175
-0.185
-0.195
-0.2
-0.205
-0.225
-0.225
-0.22
-0.215
-0.225
-0.235
-0.26
-0.28
-0.28
-0.295
-0.295
-0.305
-0.315
-0.325
-0.33
-0.315
-0.305
-0.3
-0.315
-0.335
-0.34
-0.33
-0.315
-0.32
-0.335
-0.34
-0.345
-0.34
-0.325
-0.335
-0.355
-0.365
-0.375
-0.385
-0.39
-0.395
-0.36
-0.245
-0.04
0.19
0.48
0.81
1.095
1.19
1.035
0.735
0.45
0.18
-0.015
-0.095
-0.11
-0.135
-0.165
-0.19
-0.225
-0.245
-0.27
-0.305
-0.325
-0.365
-0.38
-0.395
-0.39
-0.385
-0.375
-0.385
-0.395
-0.41
-0.405
-0.4
-0.395
-0.4
-0.42
-0.42
-0.41
-0.405
-0.405
-0.405
-0.405
-0.4
-0.39
-0.385
-0.4
-0.405
-0.4
-0.415
-0.4
-0.42
-0.385
-0.39
-0.385
-0.4
-0.385
-0.39
-0.395
-0.41
-0.415
-0.415
-0.415
-0.395
-0.39
-0.38
-0.38
-0.395
-0.39
-0.375
-0.37
-0.365
-0.39
-0.4
-0.395
-0.38
-0.365
-0.365
-0.365
-0.37
-0.355
-0.345
-0.345
-0.34
-0.345
-0.35
-0.335
-0.32
-0.305
-0.295
-0.295
-0.31
-0.28
-0.265
-0.245
-0.235
-0.245
-0.25
-0.24
-0.205
-0.19
-0.18
-0.165
-0.155
-0.16
-0.145
-0.14
-0.145
-0.135
-0.155
-0.155
-0.125
-0.115
-0.105
-0.105
-0.115
-0.115
-0.1
-0.105
-0.13
-0.145
-0.175
-0.17
-0.175
-0.17
-0.19
-0.215
-0.22
-0.23
-0.235
-0.24
-0.26
-0.28
-0.29
-0.3
-0.28
-0.285
-0.3
-0.31
-0.33
-0.335
-0.32
-0.31
-0.325
-0.325
-0.34
-0.34
-0.325
-0.31
-0.31
-0.33
-0.345
-0.34
-0.335
-0.335
-0.315
-0.325
-0.335
-0.34
-0.325
-0.3
-0.3
-0.32
-0.335
-0.32
-0.305
-0.305
-0.31
-0.315
-0.32
-0.315
-0.305
-0.3
-0.29
-0.295
-0.305
-0.285
-0.28
-0.28
-0.295
-0.315
-0.325
-0.315
-0.295
-0.285
-0.27
-0.28
-0.3
-0.295
-0.28
-0.27
-0.27
-0.285
-0.3
-0.295
-0.28
-0.275
-0.275
-0.28
-0.29
-0.275
-0.27
-0.265
-0.275
-0.29
-0.295
-0.295
-0.285
-0.27
-0.28
-0.29
-0.3
-0.285
-0.275
-0.275
-0.275
-0.285
-0.285
-0.295
-0.285
-0.275
-0.28
-0.28
-0.3
-0.29
-0.29
-0.28
-0.275
-0.29
-0.305
-0.275
-0.265
-0.26
-0.26
-0.275
-0.295
-0.285
-0.28
-0.265
-0.275
-0.295
-0.3
-0.285
-0.285
-0.275
-0.275
-0.28
-0.285
-0.285
-0.28
-0.29
-0.27
-0.285
-0.285
-0.285
-0.28
-0.275
-0.27
-0.285
-0.29
-0.28
-0.28
-0.26
-0.255
-0.27
-0.28
-0.27
-0.255
-0.25
-0.25
-0.25
-0.245
-0.245
-0.225
-0.2
-0.18
-0.17
-0.15
-0.12
-0.09
-0.09
-0.105
-0.12
-0.145
-0.155
-0.165
-0.16
-0.16
-0.16
-0.165
-0.16
-0.165
-0.19
-0.205
-0.23
-0.25
-0.26
-0.285
-0.27
-0.265
-0.265
-0.27
-0.26
-0.255
-0.265
-0.265
-0.29
-0.3
-0.29
-0.28
-0.275
-0.27
-0.28
-0.285
-0.295
-0.29
-0.275
-0.275
-0.295
-0.325
-0.34
-0.355
-0.32
-0.26
-0.13
0.03
0.285
0.6
0.95
1.19
1.215
0.995
0.67
0.375
0.17
0.055
0.02
0.005
-0.025
-0.05
-0.07
-0.105
-0.145
-0.21
-0.245
-0.275
-0.28
-0.285
-0.3
-0.32
-0.32
-0.33
-0.315
-0.32
-0.33
-0.345
-0.34
-0.335
-0.345
-0.34
-0.34
-0.355
-0.35
-0.355
-0.345
-0.35
-0.365
-0.36
-0.365
-0.345
-0.345
-0.34
-0.35
-0.365
-0.35
-0.35
-0.33
-0.33
-0.34
-0.35
-0.345
-0.35
-0.325
-0.32
-0.315
-0.345
-0.35
-0.34
-0.33
-0.33
-0.335
-0.335
-0.33
-0.33
-0.315
-0.315
-0.315
-0.315
-0.315
-0.295
-0.29
-0.305
-0.31
-0.315
-0.29
-0.27
-0.255
-0.26
-0.27
-0.29
-0.285
-0.26
-0.25
-0.25
-0.235
-0.245
-0.225
-0.215
-0.185
-0.185
-0.19
-0.2
-0.21
-0.19
-0.17
-0.175
-0.155
-0.15
-0.135
-0.12
-0.1
-0.085
-0.085
-0.09
-0.09
-0.075
-0.06
-0.05
-0.065
-0.085
-0.07
-0.055
-0.07
-0.075
-0.09
-0.105
-0.115
-0.115
-0.125
-0.13
-0.155
-0.17
-0.165
-0.175
-0.175
-0.195
-0.21
-0.225
-0.235
-0.23
-0.24
-0.22
-0.23
-0.235
-0.245
-0.23
-0.235
-0.235
-0.245
-0.265
-0.26
-0.25
-0.245
-0.26
-0.275
-0.285
-0.275
-0.26
-0.255
-0.25
-0.25
-0.25
-0.24
-0.24
-0.245
-0.265
-0.275
-0.285
-0.275
-0.265
-0.26
-0.26
-0.26
-0.265
-0.255
-0.25
-0.24
-0.25
-0.25
-0.245
-0.245
-0.235
-0.225
-0.22
-0.235
-0.26
-0.245
-0.235
-0.23
-0.225
-0.23
-0.235
-0.24
-0.225
-0.215
-0.22
-0.22
-0.24
-0.24
-0.25
-0.24
-0.25
-0.245
-0.255
-0.235
-0.24
-0.24
-0.24
-0.235
-0.24
-0.225
-0.215
-0.225
-0.235
-0.245
-0.255
-0.245
-0.23
-0.225
-0.215
-0.235
-0.24
-0.255
-0.245
-0.24
-0.245
-0.24
-0.25
-0.25
-0.24
-0.245
-0.245
-0.24
-0.25
-0.25
-0.25
-0.24
-0.235
-0.24
-0.24
-0.24
-0.235
-0.225
-0.215
-0.24
-0.235
-0.25
-0.245
-0.23
-0.235
-0.235
-0.245
-0.255
-0.24
-0.24
-0.215
-0.225
-0.245
-0.245
-0.235
-0.225
-0.225
-0.235
-0.25
-0.245
-0.24
-0.23
-0.215
-0.225
-0.22
-0.22
-0.21
-0.185
-0.18
-0.19
-0.19
-0.195
-0.195
-0.175
-0.175
-0.155
-0.14
-0.1
-0.06
-0.04
-0.06
-0.08
-0.095
-0.09
-0.085
-0.09
-0.11
-0.125
-0.125
-0.135
-0.135
-0.125
-0.14
-0.16
-0.175
-0.185
-0.205
-0.225
-0.23
-0.23
-0.245
-0.25
-0.255
-0.24
-0.24
-0.245
-0.265
-0.25
-0.25
-0.245
-0.245
-0.27
-0.28
-0.255
-0.27
-0.25
-0.255
-0.26
-0.265
-0.275
-0.29
-0.305
-0.325
-0.33
-0.315
-0.225
-0.045
0.185
0.465
0.795
1.085
1.155
0.995
0.705
0.395
0.15
0.05
0.055
0.035
0
-0.06
-0.115
-0.17
-0.225
-0.255
-0.27
-0.275
-0.305
-0.33
-0.35
-0.345
-0.345
-0.345
-0.345
-0.36
-0.355
-0.36
-0.34
-0.345
-0.35
-0.355
-0.375
-0.365
-0.355
-0.355
-0.36
-0.38
-0.38
-0.345
-0.345
-0.355
-0.36
-0.38
-0.37
-0.355
-0.345
-0.36
-0.365
-0.36
-0.36
-0.355
-0.335
-0.35
-0.365
-0.36
-0.36
-0.34
-0.33
-0.34
-0.35
-0.37
-0.36
-0.34
-0.315
-0.32
-0.335
-0.345
-0.34
-0.32
-0.315
-0.295
-0.305
-0.31
-0.31
-0.295
-0.29
-0.29
-0.285
-0.295
-0.285
-0.285
-0.265
-0.25
-0.23
-0.23
-0.22
-0.21
-0.195
-0.21
-0.2
-0.205
-0.19
-0.175
-0.165
-0.15
-0.145
-0.15
-0.145
-0.13
-0.1
-0.1
-0.105
-0.105
-0.105
-0.1
-0.085
-0.08
-0.09
-0.1
-0.115
-0.11
-0.105
-0.125
-0.14
-0.16
-0.175
-0.17
-0.175
-0.18
-0.18
-0.2
-0.22
-0.225
-0.22
-0.22
-0.22
-0.235
-0.255
-0.255
-0.255
-0.255
-0.26
-0.255
-0.275
-0.29
-0.29
-0.285
-0.28
-0.295
-0.295
-0.285
-0.265
-0.275
-0.275
-0.29
-0.305
-0.3
-0.265
-0.24
-0.26
-0.265
-0.275
-0.26
-0.255
-0.265
-0.26
-0.255
-0.265
-0.26
-0.235
-0.24
-0.245
-0.265
-0.25
-0.245
-0.245
-0.245
-0.245
-0.255
-0.245
-0.235
-0.225
-0.23
-0.24
-0.24
-0.245
-0.24
-0.23
-0.24
-0.235
-0.23
-0.255
-0.255
-0.22
-0.225
-0.235
-0.245
-0.255
-0.265
-0.245
-0.245
-0.245
-0.25
-0.24
-0.245
-0.255
-0.265
-0.25
-0.25
-0.255
-0.245
-0.24
-0.245
-0.245
-0.255
-0.265
-0.24
-0.23
-0.23
-0.245
-0.25
-0.255
-0.25
-0.235
-0.255
-0.26
-0.265
-0.275
-0.265
-0.26
-0.25
-0.255
-0.27
-0.29
-0.265
-0.255
-0.25
-0.27
-0.27
-0.265
-0.245
-0.24
-0.25
-0.265
-0.275
-0.28
-0.265
-0.25
-0.245
-0.245
-0.265
-0.27
-0.255
-0.245
-0.25
-0.26
-0.28
-0.285
-0.275
-0.265
-0.27
-0.265
-0.285
-0.265
-0.24
-0.245
-0.26
-0.275
-0.275
-0.28
-0.265
-0.255
-0.255
-0.24
-0.22
-0.19
-0.14
-0.1
-0.105
-0.12
-0.145
-0.16
-0.155
-0.16
-0.185
-0.19
-0.2
-0.21
-0.195
-0.18
-0.185
-0.195
-0.22
-0.25
-0.265
-0.26
-0.285
-0.3
-0.32
-0.33
-0.32
-0.305
-0.305
-0.305
-0.315
-0.325
-0.335
-0.335
-0.33
-0.34
-0.34
-0.36
-0.345
-0.345
-0.34
-0.355
-0.35
-0.355
-0.355
-0.36
-0.385
-0.385
-0.395
-0.355
-0.255
-0.075
0.105
0.335
0.635
0.895
0.95
0.755
0.43
0.15
-0.045
-0.16
-0.185
-0.185
-0.225
-0.24
-0.255
-0.305
-0.32
-0.36
-0.4
-0.42
-0.435
-0.44
-0.445
-0.445
-0.455
-0.485
-0.505
-0.5
-0.47
-0.465
-0.46
-0.48
-0.48
-0.475
-0.465
-0.46
-0.475
-0.49
-0.505
-0.505
-0.495
-0.48
-0.475
-0.51
-0.53
-0.52
-0.505
-0.5
-0.5
-0.51
-0.52
-0.515
-0.52
-0.535
-0.525
-0.52
-0.52
-0.525
-0.505
-0.485
-0.51
-0.55
-0.565
-0.55
-0.525
-0.5
-0.515
-0.525
-0.525
-0.52
-0.505
-0.48
-0.48
-0.495
-0.505
-0.5
-0.49
-0.475
-0.485
-0.5
-0.505
-0.485
-0.48
-0.47
-0.46
-0.46
-0.46
-0.45
-0.435
-0.425
-0.42
-0.405
-0.405
-0.385
-0.365
-0.355
-0.36
-0.36
-0.365
-0.365
-0.345
-0.32
-0.315
-0.33
-0.335
-0.35
-0.335
-0.305
-0.295
-0.295
-0.31
-0.31
-0.32
-0.32
-0.345
-0.345
-0.365
-0.37
-0.37
-0.375
-0.38
-0.39
-0.4
-0.425
-0.425
-0.42
-0.43
-0.435
-0.435
-0.445
-0.445
-0.45
-0.455
-0.465
-0.48
-0.485
-0.485
-0.47
-0.465
-0.475
-0.485
-0.485
-0.475
-0.47
-0.475
-0.465
-0.485
-0.485
-0.47
-0.455
-0.46
-0.465
-0.465
-0.475
-0.46
-0.44
-0.435
-0.45
-0.45
-0.44
-0.45
-0.435
-0.455
-0.44
-0.445
-0.44
-0.425
-0.42
-0.415
-0.42
-0.415
-0.405
-0.4
-0.395
-0.39
-0.405
-0.405
-0.4
-0.38
-0.37
-0.385
-0.37
-0.375
-0.375
-0.365
-0.35
-0.355
-0.345
-0.36
-0.365
-0.36
-0.34
-0.345
-0.34
-0.345
-0.36
-0.35
-0.345
-0.345
-0.335
-0.35
-0.355
-0.335
-0.335
-0.325
-0.32
-0.33
-0.325
-0.315
-0.305
-0.31
-0.31
-0.34
-0.35
-0.325
-0.315
-0.315
-0.34
-0.33
-0.33
-0.31
-0.31
-0.315
-0.33
-0.325
-0.315
-0.3
-0.3
-0.29
-0.305
-0.32
-0.32
-0.3
-0.28
-0.285
-0.295
-0.295
-0.285
-0.285
-0.275
-0.285
-0.295
-0.29
-0.295
-0.275
-0.265
-0.265
-0.26
-0.28
-0.265
-0.26
-0.25
-0.24
-0.24
-0.255
-0.26
-0.245
-0.22
-0.185
-0.165
-0.125
-0.11
-0.09
-0.095
-0.115
-0.12
-0.125
-0.125
-0.13
-0.13
-0.145
-0.16
-0.175
-0.185
-0.17
-0.145
-0.16
-0.18
-0.205
-0.225
-0.225
-0.22
-0.23
-0.225
-0.25
-0.265
-0.255
-0.245
-0.255
-0.265
-0.275
-0.255
-0.255
-0.24
-0.24
-0.255
-0.275
-0.27
-0.26
-0.24
-0.25
-0.26
-0.265
-0.255
-0.255
-0.285
-0.32
-0.35
-0.365
-0.32
-0.195
-0.015
0.22
0.49
0.81
1.1
1.25
1.155
0.89
0.605
0.345
0.13
0.045
0.04
0.01
-0.04
-0.085
-0.095
-0.115
-0.15
-0.19
-0.22
-0.25
-0.27
-0.26
-0.26
-0.285
-0.3
-0.33
-0.34
-0.325
-0.31
-0.33
-0.325
-0.34
-0.33
-0.325
-0.32
-0.32
-0.325
-0.325
-0.325
-0.315
-0.32
-0.325
-0.32
-0.335
-0.335
-0.33
-0.32
-0.315
-0.33
-0.335
-0.345
-0.32
-0.305
-0.32
-0.33
-0.34
-0.335
-0.335
-0.31
-0.31
-0.32
-0.335
-0.33
-0.315
-0.305
-0.3
-0.305
-0.315
-0.315
-0.31
-0.295
-0.28
-0.28
-0.29
-0.285
-0.265
-0.255
-0.26
-0.26
-0.265
-0.26
-0.245
-0.23
-0.23
-0.235
-0.225
-0.215
-0.195
-0.165
-0.17
-0.18
-0.19
-0.2
-0.18
-0.14
-0.12
-0.11
-0.115
-0.115
-0.095
-0.085
-0.08
-0.07
-0.065
-0.07
-0.07
-0.07
-0.065
-0.07
-0.06
-0.05
-0.04
-0.04
-0.07
-0.075
-0.08
-0.07
-0.075
-0.09
-0.125
-0.14
-0.16
-0.18
-0.17
-0.17
-0.165
-0.185
-0.2
-0.21
-0.205
-0.21
-0.22
-0.225
-0.235
-0.245
-0.245
-0.25
-0.245
-0.255
-0.27
-0.275
-0.265
-0.255
-0.265
-0.27
-0.28
-0.295
-0.28
-0.275
-0.275
-0.27
-0.27
-0.285
-0.27
-0.26
-0.265
-0.275
-0.285
-0.275
-0.25
-0.245
-0.245
-0.25
-0.26
-0.27
-0.26
-0.25
-0.26
-0.265
-0.27
-0.26
-0.255
-0.25
-0.255
-0.26
-0.26
-0.255
-0.235
-0.235
-0.235
-0.24
-0.245
-0.265
-0.245
-0.245
-0.235
-0.24
-0.245
-0.265
-0.25
-0.24
-0.25
-0.24
-0.24
-0.24
-0.225
-0.215
-0.215
-0.225
-0.24
-0.255
-0.23
-0.21
-0.21
-0.23
-0.245
-0.24
-0.235
-0.22
-0.225
-0.23
-0.245
-0.26
-0.245
-0.24
-0.235
-0.24
-0.245
-0.24
-0.23
-0.225
-0.22
-0.23
-0.255
-0.24
-0.23
-0.22
-0.24
-0.25
-0.245
-0.255
-0.25
-0.24
-0.235
-0.245
-0.245
-0.25
-0.245
-0.23
-0.24
-0.245
-0.25
-0.255
-0.245
-0.215
-0.23
-0.235
-0.25
-0.245
-0.24
-0.23
-0.235
-0.25
-0.275
-0.27
-0.265
-0.235
-0.24
-0.245
-0.245
-0.235
-0.23
-0.225
-0.23
-0.25
-0.24
-0.235
-0.23
-0.235
-0.225
-0.225
-0.225
-0.205
-0.165
-0.115
-0.09
-0.085
-0.1
-0.125
-0.125
-0.12
-0.12
-0.13
-0.15
-0.16
-0.155
-0.15
-0.155
-0.16
-0.175
-0.195
-0.19
-0.185
-0.19
-0.225
-0.25
-0.26
-0.26
-0.255
-0.265
-0.26
-0.265
-0.27
-0.275
-0.28
-0.285
-0.285
-0.29
-0.295
-0.285
-0.28
-0.285
-0.285
-0.3
-0.315
-0.3
-0.28
-0.28
-0.305
-0.325
-0.36
-0.385
-0.4
-0.405
-0.34
-0.21
-0.015
0.23
0.495
0.81
1.07
1.18
1.04
0.775
0.505
0.265
0.075
0.01
0
-0.025
-0.06
-0.1
-0.12
-0.165
-0.225
-0.265
-0.29
-0.325
-0.36
-0.375
-0.375
-0.385
-0.385
-0.39
-0.39
-0.405
-0.415
-0.42
-0.4
-0.395
-0.41
-0.41
-0.42
-0.41
-0.4
-0.395
-0.42
-0.42
-0.42
-0.395
-0.4
-0.39
-0.4
-0.41
-0.4
-0.39
-0.38
-0.37
-0.39
-0.405
-0.41
-0.415
-0.395
-0.4
-0.41
-0.395
-0.41
-0.4
-0.405
-0.405
-0.405
-0.405
-0.405
-0.39
-0.365
-0.365
-0.38
-0.37
-0.39
-0.4
-0.37
-0.375
-0.37
-0.365
-0.37
-0.37
-0.37
-0.34
-0.345
-0.34
-0.335
-0.32
-0.31
-0.305
-0.295
-0.295
-0.29
-0.285
-0.27
-0.255
-0.26
-0.26
-0.26
-0.25
-0.235
-0.225
-0.225
-0.21
-0.195
-0.17
-0.155
-0.15
-0.15
-0.16
-0.155
-0.145
-0.14
-0.125
-0.125
-0.125
-0.125
-0.13
-0.125
-0.11
-0.12
-0.145
-0.16
-0.145
-0.16
-0.165
-0.195
-0.205
-0.22
-0.22
-0.23
-0.225
-0.235
-0.255
-0.27
-0.285
-0.265
-0.285
-0.3
-0.315
-0.31
-0.31
-0.305
-0.31
-0.31
-0.33
-0.345
-0.33
-0.325
-0.33
-0.325
-0.33
-0.325
-0.32
-0.315
-0.31
-0.325
-0.325
-0.33
-0.31
-0.31
-0.31
-0.33
-0.33
-0.335
-0.33
-0.315
-0.32
-0.325
-0.335
-0.335
-0.32
-0.315
-0.305
-0.315
-0.32
-0.33
-0.33
-0.31
-0.3
-0.305
-0.32
-0.32
-0.31
-0.29
-0.285
-0.295
-0.315
-0.325
-0.32
-0.305
-0.305
-0.31
-0.32
-0.315
-0.32
-0.3
-0.285
-0.295
-0.31
-0.325
-0.32
-0.305
-0.295
-0.295
-0.305
-0.31
-0.31
-0.305
-0.315
-0.33
-0.33
-0.32
-0.305
-0.31
-0.305
-0.315
-0.34
-0.345
-0.31
-0.31
-0.31
-0.31
-0.32
-0.33
-0.315
-0.315
-0.31
-0.325
-0.32
-0.33
-0.34
-0.33
-0.325
-0.33
-0.335
-0.345
-0.33
-0.325
-0.335
-0.32
-0.345
-0.34
-0.325
-0.305
-0.31
-0.32
-0.335
-0.345
-0.34
-0.335
-0.31
-0.32
-0.335
-0.345
-0.34
-0.32
-0.315
-0.32
-0.32
-0.33
-0.315
-0.31
-0.3
-0.305
-0.305
-0.305
-0.29
-0.27
-0.27
-0.28
-0.275
-0.28
-0.255
-0.245
-0.24
-0.235
-0.2
-0.185
-0.145
-0.11
-0.105
-0.115
-0.14
-0.175
-0.185
-0.175
-0.18
-0.195
-0.215
-0.22
-0.22
-0.215
-0.22
-0.235
-0.25
-0.265
-0.265
-0.265
-0.275
-0.325
-0.355
-0.355
-0.345
-0.32
-0.33
-0.365
-0.385
-0.385
-0.37
-0.365
-0.36
-0.365
-0.37
-0.385
-0.385
-0.395
-0.405
-0.41
-0.4
-0.395
-0.405
-0.395
-0.405
-0.435
-0.44
-0.435
-0.435
-0.425
-0.43
-0.405
-0.285
-0.11
0.075
0.315
0.62
0.865
0.94
0.785
0.54
0.3
0.09
-0.1
-0.18
-0.175
-0.18
-0.21
-0.235
-0.275
-0.32
-0.37
-0.4
-0.43
-0.475
-0.5
-0.53
-0.535
-0.515
-0.505
-0.515
-0.535
-0.56
-0.55
-0.535
-0.515
-0.53
-0.545
-0.555
-0.555
-0.54
-0.545
-0.535
-0.535
-0.54
-0.555
-0.54
-0.54
-0.52
-0.525
-0.55
-0.555
-0.55
-0.53
-0.52
-0.505
-0.52
-0.55
-0.56
-0.545
-0.53
-0.535
-0.535
-0.55
-0.555
-0.54
-0.54
-0.54
-0.545
-0.55
-0.535
-0.53
-0.525
-0.505
-0.505
-0.525
-0.555
-0.54
-0.51
-0.495
-0.525
-0.52
-0.515
-0.5
-0.485
-0.49
-0.495
-0.495
-0.485
-0.47
-0.465
-0.475
-0.47
-0.47
-0.445
-0.435
-0.445
-0.46
-0.465
-0.44
-0.425
-0.4
-0.395
-0.395
-0.385
-0.4
-0.375
-0.36
-0.345
-0.345
-0.35
-0.35
-0.34
-0.325
-0.315
-0.315
-0.305
-0.32
-0.305
-0.3
-0.28
-0.28
-0.29
-0.305
-0.295
-0.29
-0.295
-0.31
-0.32
-0.33
-0.325
-0.33
-0.345
-0.365
-0.385
-0.4
-0.39
-0.385
-0.385
-0.395
-0.415
-0.43
-0.435
-0.43
-0.44
-0.43
-0.445
-0.455
-0.44
-0.425
-0.44
-0.455
-0.465
-0.47
-0.465
-0.445
-0.455
-0.45
-0.45
-0.45
-0.425
-0.43
-0.43
-0.425
-0.44
-0.45
-0.445
-0.44
-0.425
-0.42
-0.41
-0.42
-0.43
-0.41
-0.41
-0.405
-0.4
-0.405
-0.38
-0.385
-0.39
-0.39
-0.385
-0.385
-0.365
-0.365
-0.365
-0.38
-0.37
-0.365
-0.36
-0.365
-0.36
-0.365
-0.365
-0.36
-0.365
-0.345
-0.345
-0.36
-0.36
-0.355
-0.355
-0.345
-0.33
-0.33
-0.335
-0.345
-0.34
-0.335
-0.35
-0.355
-0.36
-0.35
-0.335
-0.345
-0.345
-0.355
-0.36
-0.36
-0.345
-0.345
-0.34
-0.35
-0.355
-0.36
-0.355
-0.34
-0.345
-0.34
-0.355
-0.345
-0.345
-0.325
-0.34
-0.35
-0.365
-0.355
-0.345
-0.335
-0.325
-0.335
-0.35
-0.365
-0.355
-0.34
-0.33
-0.33
-0.335
-0.345
-0.36
-0.345
-0.33
-0.325
-0.35
-0.345
-0.33
-0.32
-0.335
-0.325
-0.325
-0.33
-0.315
-0.305
-0.305
-0.295
-0.305
-0.305
-0.29
-0.28
-0.285
-0.285
-0.275
-0.25
-0.225
-0.2
-0.18
-0.135
-0.13
-0.16
-0.16
-0.17
-0.155
-0.165
-0.18
-0.2
-0.205
-0.2
-0.2
-0.21
-0.205
-0.21
-0.22
-0.225
-0.23
-0.25
-0.27
-0.29
-0.3
-0.295
-0.29
-0.295
-0.305
-0.315
-0.31
-0.305
-0.3
-0.31
-0.32
-0.32
-0.33
-0.29
-0.305
-0.315
-0.32
-0.32
-0.3
-0.3
-0.295
-0.3
-0.325
-0.35
-0.365
-0.385
-0.39
-0.36
-0.295
-0.12
0.1
0.335
0.63
0.94
1.135
1.11
0.9
0.63
0.385
0.16
0.02
-0.015
-0.03
-0.075
-0.105
-0.13
-0.17
-0.205
-0.22
-0.255
-0.285
-0.325
-0.31
-0.325
-0.33
-0.32
-0.335
-0.33
-0.34
-0.36
-0.35
-0.345
-0.335
-0.335
-0.335
-0.33
-0.335
-0.335
-0.335
-0.335
-0.34
-0.34
-0.355
-0.35
-0.33
-0.33
-0.325
-0.33
-0.34
-0.325
-0.325
-0.325
-0.345
-0.36
-0.34
-0.325
-0.32
-0.32
-0.32
-0.32
-0.325
-0.32
-0.315
-0.31
-0.315
-0.33
-0.325
-0.305
-0.295
-0.3
-0.315
-0.315
-0.295
-0.285
-0.29
-0.295
-0.29
-0.295
-0.28
-0.25
-0.25
-0.25
-0.265
-0.26
-0.235
-0.23
-0.22
-0.205
-0.215
-0.205
-0.2
-0.185
-0.18
-0.165
-0.155
-0.16
-0.135
-0.14
-0.13
-0.12
-0.115
-0.12
-0.09
-0.075
-0.06
-0.05
-0.07
-0.065
-0.055
-0.045
-0.03
-0.03
-0.035
-0.04
-0.03
-0.03
-0.03
-0.035
-0.065
-0.065
-0.06
-0.045
-0.05
-0.075
-0.1
-0.125
-0.125
-0.125
-0.11
-0.115
-0.135
-0.165
-0.2
-0.225
-0.245
-0.235
-0.225
-0.22
-0.225
-0.225
-0.22
-0.225
-0.215
-0.23
-0.22
-0.215
-0.215
-0.225
-0.225
-0.225
-0.22
-0.22
-0.225
-0.23
-0.23
-0.23
-0.225
-0.22
-0.21
-0.22
-0.22
-0.225
-0.2
-0.195
-0.18
-0.19
-0.215
-0.22
-0.215
-0.195
-0.2
-0.195
-0.2
-0.195
-0.205
-0.2
-0.19
-0.2
-0.2
-0.21
-0.205
-0.205
-0.2
-0.195
-0.18
-0.195
-0.2
-0.18
-0.165
-0.175
-0.18
-0.2
-0.2
-0.195
-0.195
-0.195
-0.215
-0.215
-0.205
-0.205
-0.205
-0.21
-0.21
-0.22
-0.21
-0.21
-0.2
-0.2
-0.215
-0.23
-0.22
-0.215
-0.225
-0.215
-0.215
-0.22
-0.205
-0.195
-0.195
-0.205
-0.22
-0.23
-0.215
-0.2
-0.205
-0.22
-0.215
-0.215
-0.205
-0.2
-0.205
-0.2
-0.205
-0.225
-0.22
-0.22
-0.215
-0.22
-0.23
-0.24
-0.225
-0.205
-0.205
-0.195
-0.195
-0.2
-0.195
-0.19
-0.17
-0.165
-0.17
-0.18
-0.165
-0.155
-0.15
-0.14
-0.12
-0.115
-0.06
-0.03
-0.03
-0.06
-0.085
-0.08
-0.065
-0.075
-0.09
-0.105
-0.11
-0.115
-0.11
-0.115
-0.12
-0.12
-0.145
-0.175
-0.18
-0.205
-0.21
-0.215
-0.215
-0.22
-0.215
-0.23
-0.23
-0.23
-0.25
-0.255
-0.255
-0.245
-0.235
-0.235
-0.245
-0.265
-0.265
-0.26
-0.25
-0.25
-0.265
-0.305
-0.325
-0.345
-0.33
-0.28
-0.15
0.05
0.315
0.63
0.98
1.21
1.2
0.92
0.605
0.355
0.155
0.075
0.07
0.05
0.015
-0.015
-0.065
-0.115
-0.17
-0.24
-0.265
-0.29
-0.29
-0.29
-0.3
-0.325
-0.32
-0.315
-0.315
-0.315
-0.33
-0.34
-0.34
-0.34
-0.33
-0.335
-0.325
-0.345
-0.335
-0.335
-0.34
-0.335
-0.345
-0.345
-0.325
-0.305
-0.31
-0.305
-0.31
-0.31
-0.32
-0.33
-0.335
-0.33
-0.315
-0.335
-0.345
-0.35
-0.34
-0.34
-0.34
-0.355
-0.345
-0.34
-0.335
-0.315
-0.33
-0.335
-0.325
-0.33
-0.31
-0.305
-0.305
-0.305
-0.315
-0.3
-0.285
-0.29
-0.29
-0.29
-0.27
-0.26
-0.255
-0.26
-0.265
-0.255
-0.24
-0.21
-0.215
-0.21
-0.21
-0.205
-0.18
-0.16
-0.145
-0.135
-0.165
-0.15
-0.125
-0.115
-0.08
-0.08
-0.085
-0.095
-0.095
-0.065
-0.06
-0.05
-0.045
-0.05
-0.035
-0.03
-0.04
-0.04
-0.05
-0.065
-0.075
-0.07
-0.06
-0.07
-0.085
-0.105
-0.115
-0.125
-0.12
-0.14
-0.175
-0.18
-0.175
-0.175
-0.165
-0.19
-0.205
-0.225
-0.225
-0.215
-0.215
-0.225
-0.22
-0.235
-0.235
-0.235
-0.24
-0.235
-0.235
-0.245
-0.235
-0.23
-0.225
-0.24
-0.25
-0.25
-0.24
-0.23
-0.235
-0.245
-0.24
-0.24
-0.23
-0.215
-0.225
-0.22
-0.23
-0.235
-0.235
-0.215
-0.205
-0.21
-0.21
-0.215
-0.22
-0.22
-0.215
-0.225
-0.23
-0.235
-0.23
-0.23
-0.22
-0.225
-0.225
-0.235
-0.225
-0.215
-0.215
-0.22
-0.24
-0.24
-0.23
-0.22
-0.22
-0.225
-0.22
-0.23
-0.23
-0.225
-0.23
-0.225
-0.23
-0.235
-0.225
-0.23
-0.225
-0.225
-0.215
-0.22
-0.22
-0.22
-0.215
-0.225
-0.215
-0.22
-0.22
-0.21
-0.205
-0.205
-0.2
-0.21
-0.22
-0.22
-0.215
-0.23
-0.24
-0.25
-0.24
-0.225
-0.22
-0.215
-0.22
-0.245
-0.245
-0.23
-0.235
-0.235
-0.235
-0.24
-0.225
-0.205
-0.21
-0.245
-0.24
-0.25
-0.225
-0.21
-0.205
-0.22
-0.22
-0.24
-0.225
-0.2
-0.185
-0.2
-0.205
-0.195
-0.165
-0.135
-0.105
-0.075
-0.065
-0.085
-0.105
-0.1
-0.095
-0.115
-0.125
-0.145
-0.15
-0.15
-0.15
-0.155
-0.16
-0.18
-0.2
-0.21
-0.225
-0.225
-0.23
-0.24
-0.255
-0.26
-0.265
-0.265
-0.28
-0.285
-0.285
-0.285
-0.275
-0.29
-0.295
-0.3
-0.28
-0.285
-0.275
-0.28
-0.285
-0.3
-0.305
-0.32
-0.345
-0.36
-0.365
-0.32
-0.145
0.045
0.28
0.58
0.92
1.16
1.18
0.955
0.65
0.36
0.135
0.025
0.025
0.005
-0.015
-0.055
-0.1
-0.15
-0.185
-0.225
-0.245
-0.3
-0.33
-0.34
-0.35
-0.345
-0.33
-0.34
-0.35
-0.37
-0.37
-0.37
-0.35
-0.365
-0.365
-0.375
-0.385
-0.375
-0.355
-0.36
-0.375
-0.39
-0.39
-0.38
-0.365
-0.375
-0.37
-0.38
-0.365
-0.375
-0.36
-0.365
-0.375
-0.38
-0.37
-0.37
-0.365
-0.38
-0.375
-0.385
-0.37
-0.365
-0.355
-0.365
-0.365
-0.395
-0.375
-0.37
-0.345
-0.35
-0.355
-0.37
-0.355
-0.35
-0.335
-0.335
-0.345
-0.345
-0.33
-0.33
-0.32
-0.325
-0.31
-0.31
-0.3
-0.29
-0.275
-0.27
-0.275
-0.28
-0.26
-0.25
-0.225
-0.23
-0.23
-0.23
-0.21
-0.195
-0.18
-0.155
-0.145
-0.145
-0.14
-0.145
-0.145
-0.14
-0.13
-0.13
-0.13
-0.115
-0.105
-0.11
-0.105
-0.125
-0.13
-0.115
-0.11
-0.105
-0.12
-0.14
-0.16
-0.16
-0.16
-0.175
-0.205
-0.215
-0.22
-0.215
-0.235
-0.25
-0.25
-0.285
-0.28
-0.27
-0.265
-0.275
-0.285
-0.29
-0.29
-0.29
-0.285
-0.295
-0.305
-0.315
-0.315
-0.305
-0.29
-0.29
-0.3
-0.31
-0.31
-0.295
-0.295
-0.3
-0.305
-0.31
-0.3
-0.3
-0.29
-0.29
-0.305
-0.31
-0.31
-0.295
-0.28
-0.285
-0.285
-0.305
-0.31
-0.3
-0.285
-0.315
-0.315
-0.315
-0.315
-0.32
-0.3
-0.29
-0.295
-0.31
-0.305
-0.305
-0.29
-0.305
-0.31
-0.315
-0.315
-0.315
-0.295
-0.29
-0.29
-0.305
-0.31
-0.31
-0.305
-0.305
-0.31
-0.325
-0.325
-0.31
-0.3
-0.295
-0.305
-0.325
-0.32
-0.3
-0.3
-0.3
-0.315
-0.31
-0.315
-0.31
-0.3
-0.295
-0.31
-0.33
-0.32
-0.31
-0.3
-0.305
-0.32
-0.315
-0.315
-0.32
-0.305
-0.295
-0.305
-0.32
-0.315
-0.31
-0.3
-0.295
-0.31
-0.335
-0.33
-0.325
-0.315
-0.32
-0.33
-0.34
-0.34
-0.315
-0.3
-0.31
-0.31
-0.315
-0.305
-0.305
-0.3
-0.305
-0.3
-0.31
-0.29
-0.275
-0.275
-0.28
-0.285
-0.305
-0.295
-0.275
-0.25
-0.225
-0.21
-0.175
-0.155
-0.15
-0.16
-0.17
-0.185
-0.19
-0.2
-0.2
-0.205
-0.21
-0.23
-0.23
-0.235
-0.235
-0.24
-0.26
-0.26
-0.275
-0.295
-0.315
-0.32
-0.335
-0.34
-0.35
-0.34
-0.33
-0.335
-0.34
-0.345
-0.365
-0.36
-0.355
-0.355
-0.355
-0.385
-0.38
-0.39
-0.37
-0.36
-0.36
-0.37
-0.37
-0.385
-0.395
-0.42
-0.44
-0.455
-0.445
-0.325
-0.14
0.085
0.345
0.655
0.935
1.06
0.955
0.68
0.38
0.12
-0.045
-0.08
-0.085
-0.11
-0.15
-0.185
-0.235
-0.285
-0.32
-0.36
-0.39
-0.415
-0.435
-0.445
-0.435
-0.435
-0.455
-0.465
-0.47
-0.47
-0.47
-0.475
-0.48
-0.47
-0.485
-0.485
-0.48
-0.47
-0.47
-0.475
-0.47
-0.475
-0.47
-0.47
-0.465
-0.475
-0.48
-0.485
-0.485
-0.465
-0.475
-0.49
-0.49
-0.49
-0.485
-0.47
-0.435
-0.455
-0.46
-0.475
-0.47
-0.465
-0.475
-0.485
-0.49
-0.48
-0.465
-0.45
-0.465
-0.485
-0.49
-0.455
-0.455
-0.44
-0.44
-0.45
-0.455
-0.43
-0.44
-0.44
-0.42
-0.435
-0.435
-0.43
-0.405
-0.395
-0.395
-0.395
-0.405
-0.385
-0.375
-0.355
-0.36
-0.355
-0.36
-0.345
-0.325
-0.31
-0.305
-0.3
-0.3
-0.29
-0.27
-0.26
-0.25
-0.255
-0.26
-0.255
-0.235
-0.215
-0.215
-0.225
-0.22
-0.22
-0.205
-0.205
-0.2
-0.21
-0.22
-0.21
-0.22
-0.225
-0.24
-0.245
-0.265
-0.275
-0.275
-0.285
-0.3
-0.305
-0.335
-0.335
-0.335
-0.335
-0.35
-0.365
-0.37
-0.38
-0.365
-0.37
-0.375
-0.4
-0.405
-0.405
-0.405
-0.395
-0.39
-0.39
-0.405
-0.395
-0.4
-0.38
-0.385
-0.395
-0.41
-0.41
-0.39
-0.365
-0.38
-0.395
-0.4
-0.395
-0.38
-0.37
-0.385
-0.39
-0.41
-0.405
-0.385
-0.375
-0.375
-0.385
-0.415
-0.395
-0.39
-0.38
-0.37
-0.365
-0.39
-0.375
-0.375
-0.37
-0.375
-0.38
-0.38
-0.375
-0.365
-0.365
-0.37
-0.38
-0.375
-0.385
-0.37
-0.365
-0.37
-0.38
-0.4
-0.395
-0.385
-0.375
-0.38
-0.395
-0.4
-0.39
-0.375
-0.37
-0.385
-0.375
-0.385
-0.38
-0.37
-0.365
-0.375
-0.395
-0.4
-0.4
-0.4
-0.385
-0.38
-0.37
-0.385
-0.39
-0.38
-0.38
-0.385
-0.395
-0.41
-0.395
-0.395
-0.385
-0.405
-0.405
-0.41
-0.4
-0.385
-0.38
-0.375
-0.385
-0.4
-0.395
-0.395
-0.39
-0.39
-0.395
-0.405
-0.405
-0.39
-0.375
-0.375
-0.395
-0.405
-0.4
-0.395
-0.39
-0.395
-0.405
-0.415
-0.41
-0.4
-0.385
-0.38
-0.38
-0.385
-0.385
-0.37
-0.35
-0.335
-0.325
-0.31
-0.29
-0.27
-0.23
-0.22
-0.2
-0.21
-0.21
-0.225
-0.215
-0.22
-0.24
-0.255
-0.255
-0.255
-0.25
-0.265
-0.285
-0.285
-0.29
-0.3
-0.305
-0.32
-0.345
-0.365
-0.385
-0.38
-0.39
-0.39
-0.4
-0.4
-0.405
-0.385
-0.38
-0.385
-0.4
-0.42
-0.4
-0.405
-0.4
-0.4
-0.415
-0.42
-0.425
-0.425
-0.425
-0.435
-0.465
-0.485
-0.505
-0.49
-0.385
-0.215
-0.005
0.235
0.55
0.84
0.95
0.84
0.565
0.3
0.075
-0.085
-0.14
-0.145
-0.19
-0.245
-0.27
-0.29
-0.305
-0.325
-0.365
-0.425
-0.46
-0.465
-0.45
-0.475
-0.49
-0.52
-0.52
-0.52
-0.51
-0.51
-0.52
-0.525
-0.535
-0.525
-0.52
-0.525
-0.53
-0.535
-0.525
-0.515
-0.51
-0.525
-0.525
-0.53
-0.51
-0.5
-0.48
-0.49
-0.515
-0.515
-0.5
-0.49
-0.48
-0.475
-0.49
-0.505
-0.505
-0.49
-0.48
-0.485
-0.495
-0.505
-0.5
-0.5
-0.48
-0.475
-0.485
-0.48
-0.49
-0.465
-0.455
-0.465
-0.48
-0.475
-0.475
-0.445
-0.44
-0.435
-0.45
-0.45
-0.43
-0.415
-0.41
-0.42
-0.43
-0.425
-0.405
-0.4
-0.385
-0.375
-0.365
-0.375
-0.375
-0.37
-0.34
-0.325
-0.32
-0.33
-0.31
-0.305
-0.29
-0.285
-0.285
-0.28
-0.27
-0.255
-0.23
-0.22
-0.215
-0.225
-0.225
-0.21
-0.205
-0.195
-0.2
-0.2
-0.205
-0.22
-0.2
-0.195
-0.215
-0.245
-0.245
-0.25
-0.23
-0.25
-0.26
-0.27
-0.285
-0.285
-0.275
-0.3
-0.32
-0.355
-0.35
-0.34
-0.345
-0.35
-0.355
-0.385
-0.38
-0.375
-0.375
-0.375
-0.39
-0.4
-0.385
-0.385
-0.38
-0.375
-0.405
-0.41
-0.405
-0.39
-0.385
-0.385
-0.39
-0.4
-0.405
-0.395
-0.37
-0.37
-0.375
-0.39
-0.395
-0.39
-0.38
-0.38
-0.375
-0.395
-0.38
-0.375
-0.375
-0.375
-0.385
-0.39
-0.375
-0.37
-0.355
-0.36
-0.36
-0.37
-0.37
-0.35
-0.335
-0.35
-0.355
-0.36
-0.355
-0.355
-0.345
-0.34
-0.355
-0.365
-0.37
-0.355
-0.355
-0.355
-0.375
-0.385
-0.375
-0.365
-0.365
-0.36
-0.375
-0.37
-0.37
-0.37
-0.365
-0.35
-0.365
-0.375
-0.375
-0.37
-0.36
-0.37
-0.375
-0.365
-0.36
-0.355
-0.36
-0.355
-0.365
-0.365
-0.37
-0.355
-0.36
-0.36
-0.36
-0.37
-0.36
-0.36
-0.36
-0.37
-0.375
-0.375
-0.38
-0.355
-0.365
-0.36
-0.36
-0.36
-0.37
-0.375
-0.37
-0.355
-0.365
-0.375
-0.385
-0.375
-0.375
-0.365
-0.375
-0.38
-0.37
-0.365
-0.36
-0.355
-0.36
-0.37
-0.365
-0.36
-0.345
-0.345
-0.345
-0.355
-0.345
-0.33
-0.33
-0.325
-0.31
-0.295
-0.245
-0.2
-0.185
-0.175
-0.19
-0.215
-0.21
-0.195
-0.205
-0.23
-0.245
-0.245
-0.25
-0.245
-0.24
-0.25
-0.27
-0.295
-0.32
-0.33
-0.335
-0.335
-0.345
-0.365
-0.365
-0.35
-0.355
-0.36
-0.37
-0.38
-0.385
-0.38
-0.385
-0.375
-0.385
-0.39
-0.395
-0.39
-0.38
-0.38
-0.395
-0.415
-0.39
-0.39
-0.405
-0.425
-0.46
-0.475
-0.445
-0.35
-0.195
-0.01
0.21
0.495
0.805
0.99
0.9
0.615
0.33
0.095
-0.04
-0.09
-0.09
-0.125
-0.165
-0.19
-0.23
-0.26
-0.295
-0.365
-0.405
-0.425
-0.435
-0.45
-0.455
-0.46
-0.465
-0.48
-0.495
-0.495
-0.485
-0.485
-0.495
-0.5
-0.505
-0.495
-0.49
-0.48
-0.485
-0.495
-0.51
-0.495
-0.495
-0.49
-0.5
-0.505
-0.505
-0.49
-0.5
-0.505
-0.495
-0.5
-0.5
-0.49
-0.48
-0.475
-0.485
-0.495
-0.49
-0.49
-0.49
-0.49
-0.505
-0.5
-0.5
-0.495
-0.485
-0.475
-0.475
-0.495
-0.49
-0.47
-0.465
-0.455
-0.475
-0.47
-0.465
-0.45
-0.435
-0.43
-0.44
-0.455
-0.44
-0.425
-0.415
-0.42
-0.43
-0.41
-0.395
-0.385
-0.36
-0.37
-0.365
-0.375
-0.35
-0.345
-0.32
-0.31
-0.3
-0.305
-0.305
-0.28
-0.27
-0.26
-0.265
-0.26
-0.26
-0.245
-0.225
-0.215
-0.215
-0.215
-0.22
-0.21
-0.2
-0.195
-0.215
-0.215
-0.215
-0.225
-0.22
-0.235
-0.245
-0.25
-0.26
-0.275
-0.28
-0.28
-0.3
-0.31
-0.32
-0.315
-0.33
-0.34
-0.35
-0.365
-0.35
-0.385
-0.36
-0.37
-0.38
-0.375
-0.39
-0.38
-0.39
-0.39
-0.39
-0.4
-0.395
-0.4
-0.385
-0.395
-0.39
-0.4
-0.395
-0.385
-0.37
-0.38
-0.395
-0.4
-0.395
-0.375
-0.375
-0.375
-0.385
-0.395
-0.385
-0.38
-0.37
-0.385
-0.395
-0.395
-0.39
-0.385
-0.355
-0.36
-0.36
-0.38
-0.39
-0.38
-0.365
-0.365
-0.375
-0.385
-0.39
-0.375
-0.36
-0.36
-0.375
-0.375
-0.37
-0.37
-0.37
-0.39
-0.385
-0.385
-0.38
-0.365
-0.355
-0.36
-0.375
-0.375
-0.375
-0.37
-0.36
-0.37
-0.37
-0.38
-0.38
-0.37
-0.345
-0.37
-0.365
-0.375
-0.365
-0.365
-0.36
-0.37
-0.37
-0.37
-0.37
-0.37
-0.355
-0.35
-0.365
-0.38
-0.37
-0.355
-0.345
-0.36
-0.365
-0.38
-0.385
-0.375
-0.36
-0.36
-0.36
-0.37
-0.375
-0.37
-0.355
-0.355
-0.355
-0.375
-0.38
-0.36
-0.35
-0.36
-0.37
-0.375
-0.385
-0.365
-0.35
-0.35
-0.35
-0.365
-0.38
-0.365
-0.355
-0.34
-0.345
-0.345
-0.35
-0.335
-0.325
-0.315
-0.325
-0.335
-0.32
-0.29
-0.24
-0.205
-0.185
-0.195
-0.21
-0.225
-0.195
-0.215
-0.24
-0.25
-0.26
-0.245
-0.24
-0.265
-0.29
-0.3
-0.31
-0.3
-0.305
-0.35
-0.37
-0.385
-0.385
-0.385
-0.385
-0.4
-0.41
-0.405
-0.405
-0.405
-0.395
-0.41
-0.425
-0.425
-0.445
-0.43
-0.42
-0.45
-0.445
-0.44
-0.44
-0.43
-0.425
-0.435
-0.45
-0.47
-0.5
-0.505
-0.485
-0.425
-0.285
-0.08
0.16
0.48
0.78
0.9
0.775
0.46
0.19
-0.045
-0.175
-0.24
-0.275
-0.325
-0.32
-0.315
-0.33
-0.38
-0.41
-0.46
-0.49
-0.505
-0.5
-0.5
-0.5
-0.51
-0.515
-0.52
-0.52
-0.53
-0.545
-0.545
-0.54
-0.535
-0.525
-0.515
-0.52
-0.535
-0.545
-0.535
-0.52
-0.53
-0.535
-0.54
-0.535
-0.52
-0.515
-0.54
-0.53
-0.545
-0.545
-0.53
-0.505
-0.52
-0.55
-0.555
-0.53
-0.51
-0.505
-0.52
-0.525
-0.52
-0.51
-0.51
-0.515
-0.51
-0.52
-0.52
-0.515
-0.505
-0.49
-0.485
-0.495
-0.5
-0.505
-0.49
-0.48
-0.485
-0.495
-0.48
-0.48
-0.47
-0.455
-0.44
-0.45
-0.455
-0.455
-0.435
-0.405
-0.41
-0.41
-0.405
-0.395
-0.385
-0.365
-0.37
-0.365
-0.36
-0.355
-0.335
-0.315
-0.315
-0.32
-0.32
-0.32
-0.285
-0.265
-0.265
-0.275
-0.27
-0.26
-0.25
-0.235
-0.255
-0.255
-0.26
-0.265
-0.27
-0.255
-0.28
-0.265
-0.275
-0.3
-0.31
-0.31
-0.31
-0.315
-0.335
-0.35
-0.36
-0.35
-0.365
-0.37
-0.38
-0.39
-0.395
-0.4
-0.41
-0.42
-0.42
-0.42
-0.42
-0.41
-0.405
-0.405
-0.415
-0.425
-0.4
-0.385
-0.4
-0.415
-0.415
-0.41
-0.4
-0.4
-0.415
-0.41
-0.415
-0.41
-0.415
-0.4
-0.415
-0.42
-0.42
-0.415
-0.405
-0.39
-0.385
-0.4
-0.405
-0.415
-0.405
-0.41
-0.415
-0.425
-0.41
-0.4
-0.38
-0.365
-0.385
-0.39
-0.41
-0.41
-0.395
-0.39
-0.4
-0.405
-0.395
-0.395
-0.39
-0.39
-0.405
-0.41
-0.4
-0.4
-0.395
-0.405
-0.425
-0.43
-0.41
-0.41
-0.41
-0.405
-0.415
-0.415
-0.42
-0.43
-0.43
-0.405
-0.4
-0.4
-0.415
-0.41
-0.395
-0.395
-0.395
-0.41
-0.405
-0.415
-0.41
-0.41
-0.41
-0.43
-0.41
-0.41
-0.4
-0.4
-0.4
-0.41
-0.41
-0.415
-0.41
-0.4
-0.4
-0.41
-0.42
-0.435
-0.415
-0.405
-0.39
-0.39
-0.415
-0.425
-0.41
-0.385
-0.39
-0.395
-0.39
-0.395
-0.375
-0.37
-0.375
-0.365
-0.355
-0.36
-0.345
-0.315
-0.295
-0.295
-0.255
-0.24
-0.225
-0.23
-0.245
-0.255
-0.265
-0.275
-0.28
-0.285
-0.3
-0.315
-0.33
-0.33
-0.315
-0.31
-0.34
-0.335
-0.355
-0.38
-0.385
-0.38
-0.385
-0.41
-0.425
-0.44
-0.43
-0.41
-0.405
-0.405
-0.42
-0.44
-0.43
-0.41
-0.42
-0.43
-0.43
-0.425
-0.41
-0.405
-0.425
-0.435
-0.425
-0.43
-0.435
-0.465
-0.485
-0.495
-0.45
-0.31
-0.08
0.205
0.51
0.855
1.1
1.105
0.875
0.575
0.25
-0.03
-0.175
-0.245
-0.295
-0.355
-0.39
-0.39
-0.4
-0.42
-0.43
-0.455
-0.475
-0.505
-0.52
-0.505
-0.5
-0.505
-0.51
-0.515
-0.53
-0.53
-0.52
-0.5
-0.51
-0.51
-0.535
-0.525
-0.525
-0.51
-0.515
-0.53
-0.53
-0.53
-0.515
-0.51
-0.505
-0.5
-0.51
-0.515
-0.5
-0.49
-0.48
-0.5
-0.5
-0.505
-0.49
-0.48
-0.48
-0.495
-0.495
-0.485
-0.485
-0.47
-0.475
-0.465
-0.47
-0.47
-0.465
-0.45
-0.45
-0.45
-0.465
-0.47
-0.455
-0.43
-0.425
-0.43
-0.425
-0.425
-0.42
-0.4
-0.39
-0.4
-0.395
-0.395
-0.38
-0.355
-0.34
-0.335
-0.335
-0.335
-0.31
-0.3
-0.285
-0.275
-0.27
-0.275
-0.26
-0.235
-0.225
-0.225
-0.22
-0.22
-0.205
-0.18
-0.165
-0.18
-0.19
-0.2
-0.19
-0.17
-0.17
-0.17
-0.18
-0.205
-0.2
-0.2
-0.215
-0.225
-0.225
-0.24
-0.245
-0.245
-0.265
-0.29
-0.3
-0.31
-0.305
-0.295
-0.305
-0.315
-0.335
-0.35
-0.34
-0.325
-0.345
-0.345
-0.365
-0.365
-0.35
-0.34
-0.345
-0.355
-0.365
-0.38
-0.36
-0.35
-0.355
-0.36
-0.35
-0.36
-0.355
-0.345
-0.34
-0.345
-0.345
-0.355
-0.325
-0.33
-0.33
-0.335
-0.335
-0.33
-0.335
-0.32
-0.325
-0.325
-0.335
-0.325
-0.305
-0.31
-0.315
-0.31
-0.31
-0.335
-0.315
-0.295
-0.3
-0.31
-0.325
-0.34
-0.325
-0.3
-0.305
-0.32
-0.32
-0.32
-0.325
-0.315
-0.32
-0.31
-0.31
-0.315
-0.305
-0.3
-0.305
-0.31
-0.32
-0.32
-0.305
-0.29
-0.3
-0.315
-0.315
-0.32
-0.305
-0.305
-0.305
-0.305
-0.32
-0.315
-0.3
-0.285
-0.3
-0.315
-0.31
-0.32
-0.315
-0.31
-0.31
-0.31
-0.31
-0.325
-0.3
-0.29
-0.295
-0.31
-0.305
-0.315
-0.315
-0.295
-0.3
-0.3
-0.31
-0.305
-0.305
-0.295
-0.3
-0.295
-0.305
-0.315
-0.295
-0.28
-0.285
-0.295
-0.3
-0.29
-0.28
-0.26
-0.27
-0.275
-0.275
-0.27
-0.26
-0.245
-0.25
-0.245
-0.225
-0.205
-0.165
-0.125
-0.11
-0.11
-0.125
-0.13
-0.135
-0.13
-0.14
-0.165
-0.18
-0.18
-0.18
-0.18
-0.16
-0.17
-0.195
-0.21
-0.205
-0.22
-0.25
-0.26
-0.26
-0.28
-0.275
-0.265
-0.27
-0.285
-0.305
-0.31
-0.305
-0.29
-0.29
-0.295
-0.31
-0.31
-0.31
-0.3
-0.295
-0.31
-0.315
-0.305
-0.305
-0.325
-0.365
-0.39
-0.395
-0.365
-0.235
-0.03
0.22
0.525
0.85
1.145
1.265
1.1
0.805
0.495
0.235
0.085
0.055
0.045
-0.005
-0.05
-0.1
-0.145
-0.19
-0.24
-0.29
-0.335
-0.365
-0.365
-0.36
-0.355
-0.36
-0.37
-0.385
-0.405
-0.395
-0.385
-0.385
-0.4
-0.415
-0.405
-0.405
-0.395
-0.405
-0.4
-0.405
-0.415
-0.4
-0.395
-0.385
-0.395
-0.415
-0.39
-0.39
-0.39
-0.39
-0.395
-0.4
-0.395
-0.39
-0.37
-0.38
-0.39
-0.41
-0.41
-0.4
-0.385
-0.395
-0.41
-0.395
-0.38
-0.37
-0.37
-0.37
-0.375
-0.395
-0.39
-0.37
-0.36
-0.355
-0.36
-0.375
-0.37
-0.36
-0.335
-0.325
-0.33
-0.335
-0.325
-0.305
-0.29
-0.285
-0.285
-0.27
-0.255
-0.25
-0.23
-0.21
-0.215
-0.21
-0.195
-0.18
-0.155
-0.155
-0.165
-0.175
-0.165
-0.145
-0.11
-0.12
-0.12
-0.12
-0.125
-0.1
-0.085
-0.085
-0.1
-0.12
-0.12
-0.095
-0.085
-0.1
-0.125
-0.15
-0.155
-0.15
-0.175
-0.18
-0.2
-0.225
-0.24
-0.225
-0.225
-0.26
-0.275
-0.28
-0.285
-0.275
-0.27
-0.285
-0.295
-0.32
-0.315
-0.305
-0.3
-0.305
-0.315
-0.315
-0.33
-0.315
-0.315
-0.315
-0.32
-0.315
-0.325
-0.29
-0.3
-0.305
-0.31
-0.32
-0.32
-0.315
-0.315
-0.315
-0.32
-0.335
-0.325
-0.305
-0.29
-0.3
-0.32
-0.315
-0.315
-0.31
-0.295
-0.29
-0.31
-0.305
-0.305
-0.3
-0.295
-0.3
-0.3
-0.31
-0.31
-0.3
-0.305
-0.31
-0.32
-0.32
-0.315
-0.315
-0.3
-0.295
-0.295
-0.32
-0.315
-0.31
-0.3
-0.295
-0.315
-0.325
-0.34
-0.31
-0.295
-0.3
-0.31
-0.32
-0.32
-0.305
-0.295
-0.3
-0.3
-0.305
-0.315
-0.315
-0.315
-0.3
-0.305
-0.325
-0.33
-0.315
-0.31
-0.305
-0.315
-0.32
-0.32
-0.305
-0.295
-0.3
-0.305
-0.315
-0.32
-0.305
-0.315
-0.3
-0.315
-0.33
-0.32
-0.305
-0.31
-0.305
-0.32
-0.315
-0.31
-0.295
-0.29
-0.285
-0.285
-0.295
-0.295
-0.265
-0.26
-0.25
-0.255
-0.25
-0.255
-0.235
-0.23
-0.215
-0.205
-0.19
-0.165
-0.115
-0.1
-0.105
-0.14
-0.155
-0.16
-0.15
-0.16
-0.17
-0.185
-0.205
-0.21
-0.2
-0.195
-0.21
-0.225
-0.24
-0.255
-0.265
-0.26
-0.29
-0.32
-0.32
-0.33
-0.315
-0.32
-0.33
-0.34
-0.33
-0.335
-0.33
-0.35
-0.34
-0.35
-0.355
-0.355
-0.36
-0.35
-0.335
-0.35
-0.37
-0.38
-0.39
-0.395
-0.385
-0.36
-0.275
-0.1
0.115
0.345
0.63
0.93
1.075
0.995
0.73
0.455
0.185
0.01
-0.05
-0.06
-0.09
-0.125
-0.17
-0.205
-0.245
-0.31
-0.335
-0.37
-0.39
-0.395
-0.36
-0.34
-0.345
-0.385
-0.445
-0.495
-0.51
-0.495
-0.47
-0.47
-0.475
-0.475
-0.475
-0.485
-0.465
-0.46
-0.435
-0.455
-0.475
-0.485
-0.475
-0.46
-0.465
-0.47
-0.47
-0.475
-0.455
-0.465
-0.46
-0.455
-0.46
-0.47
-0.475
-0.465
-0.44
-0.45
-0.46
-0.485
-0.485
-0.465
-0.47
-0.465
-0.475
-0.465
-0.445
-0.45
-0.45
-0.44
-0.455
-0.455
-0.45
-0.44
-0.43
-0.445
-0.45
-0.44
-0.41
-0.415
-0.41
-0.425
-0.425
-0.415
-0.38
-0.385
-0.375
-0.375
-0.365
-0.36
-0.345
-0.32
-0.32
-0.315
-0.315
-0.32
-0.31
-0.29
-0.285
-0.265
-0.25
-0.265
-0.245
-0.24
-0.225
-0.23
-0.235
-0.225
-0.205
-0.2
-0.21
-0.21
-0.205
-0.225
-0.235
-0.255
-0.245
-0.255
-0.265
-0.28
-0.27
-0.26
-0.27
-0.295
-0.33
-0.35
-0.345
-0.34
-0.34
-0.345
-0.355
-0.355
-0.35
-0.345
-0.33
-0.345
-0.365
-0.375
-0.375
-0.375
-0.36
-0.365
-0.39
-0.39
-0.375
-0.355
-0.365
-0.365
-0.36
-0.365
-0.355
-0.345
-0.35
-0.355
-0.355
-0.37
-0.35
-0.34
-0.33
-0.33
-0.34
-0.335
-0.335
-0.33
-0.33
-0.325
-0.335
-0.345
-0.33
-0.315
-0.295
-0.31
-0.315
-0.325
-0.305
-0.3
-0.295
-0.3
-0.33
-0.325
-0.3
-0.3
-0.295
-0.3
-0.315
-0.315
-0.31
-0.305
-0.305
-0.31
-0.31
-0.32
-0.295
-0.29
-0.295
-0.3
-0.32
-0.32
-0.31
-0.32
-0.3
-0.3
-0.31
-0.31
-0.305
-0.305
-0.29
-0.295
-0.315
-0.34
-0.33
-0.325
-0.305
-0.295
-0.315
-0.32
-0.31
-0.305
-0.305
-0.31
-0.315
-0.32
-0.33
-0.32
-0.32
-0.32
-0.31
-0.315
-0.31
-0.3
-0.3
-0.305
-0.305
-0.315
-0.3
-0.28
-0.28
-0.275
-0.28
-0.27
-0.265
-0.235
-0.245
-0.23
-0.2
-0.175
-0.135
-0.12
-0.12
-0.13
-0.14
-0.145
-0.13
-0.13
-0.15
-0.16
-0.18
-0.175
-0.18
-0.175
-0.17
-0.175
-0.205
-0.225
-0.245
-0.23
-0.245
-0.26
-0.28
-0.29
-0.275
-0.28
-0.275
-0.29
-0.3
-0.31
-0.295
-0.285
-0.295
-0.305
-0.3
-0.305
-0.305
-0.295
-0.295
-0.31
-0.305
-0.305
-0.305
-0.33
-0.36
-0.385
-0.37
-0.275
-0.085
0.165
0.44
0.785
1.07
1.2
1.08
0.8
0.5
0.235
0.075
0.015
0
-0.045
-0.09
-0.125
-0.165
-0.195
-0.22
-0.26
-0.285
-0.305
-0.33
-0.345
-0.335
-0.33
-0.34
-0.35
-0.345
-0.37
-0.37
-0.36
-0.35
-0.335
-0.35
-0.355
-0.35
-0.345
-0.35
-0.365
-0.375
-0.375
-0.355
-0.35
-0.35
-0.345
-0.35
-0.355
-0.345
-0.345
-0.33
-0.35
-0.34
-0.345
-0.34
-0.33
-0.335
-0.335
-0.345
-0.345
-0.325
-0.325
-0.33
-0.34
-0.34
-0.34
-0.34
-0.315
-0.315
-0.32
-0.325
-0.34
-0.305
-0.285
-0.285
-0.295
-0.29
-0.295
-0.285
-0.27
-0.285
-0.27
-0.275
-0.28
-0.25
-0.24
-0.235
-0.235
-0.23
-0.23
-0.22
-0.2
-0.19
-0.19
-0.185
-0.185
-0.16
-0.14
-0.13
-0.115
-0.115
-0.115
-0.1
-0.085
-0.075
-0.075
-0.085
-0.085
-0.06
-0.05
-0.04
-0.03
-0.04
-0.05
-0.03
-0.025
-0.035
-0.035
-0.05
-0.055
-0.05
-0.065
-0.08
-0.09
-0.115
-0.135
-0.15
-0.14
-0.145
-0.155
-0.165
-0.18
-0.18
-0.185
-0.205
-0.205
-0.22
-0.23
-0.22
-0.205
-0.22
-0.23
-0.23
-0.245
-0.235
-0.235
-0.23
-0.23
-0.24
-0.235
-0.225
-0.215
-0.21
-0.23
-0.24
-0.24
-0.235
-0.225
-0.215
-0.21
-0.235
-0.245
-0.23
-0.225
-0.225
-0.215
-0.22
-0.22
-0.215
-0.21
-0.21
-0.21
-0.23
-0.23
-0.215
-0.21
-0.19
-0.205
-0.2
-0.215
-0.2
-0.195
-0.19
-0.19
-0.205
-0.215
-0.215
-0.2
-0.2
-0.2
-0.225
-0.225
-0.22
-0.2
-0.2
-0.195
-0.215
-0.22
-0.215
-0.21
-0.205
-0.21
-0.235
-0.23
-0.21
-0.2
-0.205
-0.21
-0.22
-0.23
-0.23
-0.22
-0.21
-0.215
-0.21
-0.23
-0.235
-0.22
-0.215
-0.215
-0.23
-0.23
-0.22
-0.215
-0.225
-0.245
-0.25
-0.245
-0.205
-0.2
-0.225
-0.24
-0.245
-0.245
-0.24
-0.215
-0.215
-0.225
-0.225
-0.24
-0.24
-0.23
-0.225
-0.23
-0.23
-0.235
-0.235
-0.225
-0.205
-0.195
-0.18
-0.175
-0.18
-0.175
-0.18
-0.185
-0.175
-0.16
-0.12
-0.09
-0.07
-0.045
-0.055
-0.065
-0.075
-0.085
-0.065
-0.06
-0.09
-0.12
-0.115
-0.11
-0.1
-0.1
-0.11
-0.13
-0.16
-0.15
-0.18
-0.195
-0.22
-0.24
-0.245
-0.235
-0.225
-0.22
-0.245
-0.255
-0.24
-0.22
-0.21
-0.205
-0.215
-0.225
-0.22
-0.22
-0.24
-0.245
-0.25
-0.25
-0.24
-0.255
-0.28
-0.32
-0.335
-0.345
-0.295
-0.15
0.055
0.3
0.57
0.865
1.135
1.235
1.08
0.795
0.515
0.255
0.065
0
0
-0.025
-0.06
-0.095
-0.12
-0.15
-0.19
-0.245
-0.29
-0.295
-0.29
-0.265
-0.27
-0.3
-0.335
-0.34
-0.325
-0.315
-0.31
-0.32
-0.345
-0.36
-0.35
-0.34
-0.35
-0.335
-0.34
-0.335
-0.32
-0.32
-0.31
-0.315
-0.315
-0.33
-0.325
-0.325
-0.325
-0.315
-0.325
-0.32
-0.305
-0.3
-0.305
-0.315
-0.315
-0.31
-0.305
-0.3
-0.295
-0.285
-0.29
-0.285
-0.285
-0.275
-0.285
-0.285
-0.285
-0.29
-0.265
-0.26
-0.255
-0.255
-0.25
-0.24
-0.225
-0.23
-0.225
-0.225
-0.22
-0.225
-0.21
-0.205
-0.225
-0.225
-0.195
-0.195
-0.17
-0.165
-0.16
-0.13
-0.135
-0.14
-0.115
-0.1
-0.075
-0.075
-0.065
-0.07
-0.06
-0.045
-0.025
-0.025
-0.03
-0.035
-0.01
-0.01
0.005
-0.005
0.015
0.025
0.045
0.055
0.055
0.035
0.015
-0.005
0.005
0.01
0.02
0.025
0.015
0.01
-0.01
-0.04
-0.06
-0.08
-0.1
-0.11
-0.115
-0.09
-0.085
-0.085
-0.11
-0.135
-0.135
-0.14
-0.14
-0.145
-0.16
-0.18
-0.195
-0.175
-0.16
-0.165
-0.175
-0.195
-0.2
-0.2
-0.2
-0.21
-0.2
-0.21
-0.18
-0.175
-0.18
-0.185
-0.185
-0.195
-0.19
-0.185
-0.19
-0.185
-0.195
-0.2
-0.175
-0.17
-0.16
-0.18
-0.18
-0.205
-0.19
-0.195
-0.185
-0.175
-0.16
-0.18
-0.19
-0.185
-0.175
-0.15
-0.135
-0.16
-0.18
-0.18
-0.155
-0.155
-0.16
-0.175
-0.175
-0.175
-0.18
-0.18
-0.18
-0.18
-0.16
-0.155
-0.15
-0.15
-0.165
-0.185
-0.2
-0.195
-0.175
-0.15
-0.145
-0.165
-0.165
-0.16
-0.15
-0.145
-0.16
-0.165
-0.165
-0.145
-0.15
-0.165
-0.18
-0.2
-0.175
-0.15
-0.145
-0.16
-0.18
-0.2
-0.195
-0.165
-0.15
-0.145
-0.16
-0.165
-0.185
-0.175
-0.19
-0.175
-0.175
-0.18
-0.155
-0.145
-0.145
-0.15
-0.16
-0.19
-0.18
-0.16
-0.16
-0.17
-0.175
-0.185
-0.165
-0.155
-0.175
-0.175
-0.165
-0.16
-0.165
-0.17
-0.15
-0.125
-0.125
-0.14
-0.13
-0.125
-0.11
-0.11
-0.12
-0.135
-0.13
-0.09
-0.075
-0.055
-0.03
-0.015
0.015
0.015
0.005
-0.01
-0.01
-0.035
-0.04
-0.055
-0.05
-0.055
-0.06
-0.06
-0.04
-0.015
-0.035
-0.07
-0.11
-0.14
-0.16
-0.175
-0.185
-0.21
-0.215
-0.205
-0.2
-0.165
-0.145
-0.16
-0.16
-0.19
-0.19
-0.2
-0.205
-0.235
-0.27
-0.295
-0.3
-0.28
-0.245
-0.24
-0.235
-0.245
-0.24
-0.23
-0.245
-0.28
-0.315
-0.33
-0.28
-0.17
0
0.205
0.435
0.705
1.01
1.21
1.22
1.02
0.75
0.515
0.285
0.105
-0.005
-0.03
-0.06
-0.11
-0.135
-0.145
-0.15
-0.17
-0.215
-0.255
-0.27
-0.255
-0.245
-0.255
-0.29
-0.3
-0.315
-0.32
-0.32
-0.33
-0.335
-0.34
-0.325
-0.31
-0.31
-0.315
-0.33
-0.345
-0.32
-0.31
-0.33
-0.34
-0.345
-0.34
-0.34
-0.33
-0.325
-0.32
-0.33
-0.33
-0.325
-0.335
-0.33
-0.325
-0.32
-0.315
-0.315
-0.305
-0.3
-0.295
-0.305
-0.33
-0.325
-0.33
-0.32
-0.33
-0.305
-0.305
-0.315
-0.34
-0.345
-0.34
-0.325
-0.31
-0.28
-0.27
-0.255
-0.275
-0.28
-0.29
-0.29
-0.28
-0.24
-0.225
-0.23
-0.26
-0.28
-0.26
-0.235
-0.215
-0.215
-0.215
-0.19
-0.175
-0.175
-0.19
-0.2
-0.195
-0.175
-0.16
-0.145
-0.135
-0.145
-0.145
-0.13
-0.11
-0.08
-0.085
-0.09
-0.085
-0.075
-0.055
-0.055
-0.045
-0.05
-0.075
-0.055
-0.035
-0.035
-0.035
-0.05
-0.05
-0.04
-0.025
-0.03
-0.02
-0.045
-0.075
-0.095
-0.09
-0.08
-0.08
-0.1
-0.125
-0.14
-0.165
-0.185
-0.18
-0.18
-0.2
-0.205
-0.21
-0.21
-0.2
-0.225
-0.245
-0.245
-0.24
-0.225
-0.22
-0.24
-0.25
-0.235
-0.225
-0.22
-0.23
-0.24
-0.24
-0.225
-0.225
-0.23
-0.255
-0.255
-0.25
-0.235
-0.245
-0.245
-0.255
-0.26
-0.255
-0.245
-0.235
-0.24
-0.235
-0.235
-0.25
-0.265
-0.26
-0.245
-0.235
-0.21
-0.21
-0.21
-0.2
-0.21
-0.23
-0.22
-0.23
-0.215
-0.21
-0.21
-0.215
-0.22
-0.25
-0.235
-0.22
-0.19
-0.205
-0.215
-0.225
-0.23
-0.235
-0.235
-0.215
-0.225
-0.24
-0.25
-0.245
-0.245
-0.23
-0.21
-0.23
-0.245
-0.265
-0.265
-0.255
-0.225
-0.235
-0.225
-0.23
-0.225
-0.21
-0.21
-0.225
-0.235
-0.225
-0.21
-0.195
-0.19
-0.225
-0.235
-0.235
-0.225
-0.23
-0.24
-0.25
-0.245
-0.23
-0.215
-0.23
-0.25
-0.245
-0.235
-0.215
-0.215
-0.215
-0.23
-0.245
-0.23
-0.24
-0.245
-0.245
-0.245
-0.255
-0.24
-0.24
-0.24
-0.24
-0.225
-0.225
-0.225
-0.22
-0.21
-0.195
-0.195
-0.2
-0.19
-0.17
-0.165
-0.15
-0.15
-0.185
-0.205
-0.2
-0.17
-0.12
-0.1
-0.055
-0.03
-0.045
-0.075
-0.07
-0.06
-0.065
-0.085
-0.095
-0.095
-0.1
-0.12
-0.14
-0.135
-0.135
-0.13
-0.13
-0.145
-0.18
-0.195
-0.205
-0.215
-0.23
-0.23
-0.24
-0.225
-0.215
-0.215
-0.19
-0.18
-0.175
-0.21
-0.255
-0.29
-0.31
-0.305
-0.29
-0.285
-0.285
-0.275
-0.275
-0.29
-0.295
-0.3
-0.295
-0.29
-0.3
-0.285
-0.25
-0.155
0.015
0.2
0.445
0.74
0.975
1.035
0.87
0.595
0.34
0.12
-0.04
-0.11
-0.125
-0.16
-0.19
-0.19
-0.205
-0.2
-0.215
-0.235
-0.285
-0.305
-0.325
-0.335
-0.335
-0.31
-0.325
-0.32
-0.325
-0.345
-0.345
-0.35
-0.365
-0.365
-0.36
-0.32
-0.31
-0.335
-0.37
-0.375
-0.36
-0.34
-0.325
-0.31
-0.3
-0.325
-0.335
-0.35
-0.355
-0.35
-0.335
-0.33
-0.305
-0.305
-0.32
-0.31
-0.305
-0.32
-0.345
-0.33
-0.3
-0.285
-0.28
-0.28
-0.31
-0.315
-0.345
-0.34
-0.32
-0.315
-0.305
-0.315
-0.315
-0.305
-0.305
-0.305
-0.315
-0.305
-0.3
-0.275
-0.27
-0.26
-0.265
-0.265
-0.26
-0.26
-0.25
-0.235
-0.245
-0.26
-0.23
-0.195
-0.175
-0.17
-0.18
-0.17
-0.16
-0.145
-0.145
-0.125
-0.12
-0.11
-0.1
-0.1
-0.085
-0.09
-0.095
-0.085
-0.07
-0.04
-0.04
-0.045
-0.05
-0.06
-0.06
-0.035
-0.02
-0.02
-0.04
-0.045
-0.055
-0.055
-0.055
-0.05
-0.06
-0.07
-0.09
-0.11
-0.13
-0.15
-0.165
-0.165
-0.155
-0.14
-0.15
-0.175
-0.19
-0.18
-0.165
-0.165
-0.19
-0.2
-0.235
-0.245
-0.235
-0.24
-0.235
-0.245
-0.26
-0.265
-0.245
-0.23
-0.215
-0.21
-0.24
-0.225
-0.24
-0.245
-0.255
-0.27
-0.27
-0.275
-0.25
-0.22
-0.195
-0.21
-0.24
-0.26
-0.235
-0.215
-0.215
-0.24
-0.25
-0.255
-0.24
-0.225
-0.22
-0.21
-0.205
-0.185
-0.19
-0.19
-0.18
-0.155
-0.16
-0.19
-0.225
-0.245
-0.26
-0.24
-0.215
-0.21
-0.215
-0.26
-0.31
-0.315
-0.305
-0.275
-0.26
-0.255
-0.255
-0.26
-0.275
-0.275
-0.27
-0.25
-0.27
-0.27
-0.28
-0.27
-0.26
-0.275
-0.265
-0.275
-0.27
-0.255
-0.25
-0.26
-0.28
-0.275
-0.275
-0.265
-0.26
-0.255
-0.265
-0.28
-0.27
-0.245
-0.245
-0.235
-0.26
-0.285
-0.28
-0.27
-0.245
-0.245
-0.255
-0.255
-0.255
-0.27
-0.28
-0.265
-0.255
-0.24
-0.225
-0.195
-0.2
-0.195
-0.2
-0.2
-0.195
-0.21
-0.225
-0.25
-0.245
-0.235
-0.24
-0.21
-0.185
-0.135
-0.095
-0.075
-0.075
-0.085
-0.11
-0.145
-0.165
-0.155
-0.135
-0.135
-0.125
-0.13
-0.13
-0.135
-0.155
-0.15
-0.185
-0.215
-0.235
-0.24
-0.255
-0.26
-0.255
-0.24
-0.235
-0.25
-0.265
-0.285
-0.285
-0.275
-0.28
-0.305
-0.33
-0.32
-0.32
-0.3
-0.3
-0.3
-0.315
-0.33
-0.325
-0.33
-0.345
-0.365
-0.39
-0.405
-0.395
-0.335
-0.19
0.025
0.25
0.56
0.89
1.145
1.125
0.835
0.495
0.2
0.02
-0.055
-0.09
-0.175
-0.235
-0.265
-0.275
-0.29
-0.29
-0.32
-0.355
-0.37
-0.365
-0.36
-0.38
-0.395
-0.395
-0.39
-0.39
-0.395
-0.41
-0.41
-0.4
-0.38
-0.385
-0.39
-0.41
-0.42
-0.42
-0.405
-0.4
-0.375
-0.36
-0.35
-0.35
-0.375
-0.405
-0.42
-0.425
-0.42
-0.425
-0.395
-0.37
-0.365
-0.355
-0.36
-0.395
-0.415
-0.425
-0.435
-0.42
-0.425
-0.415
-0.4
-0.39
-0.385
-0.4
-0.415
-0.4
-0.41
-0.39
-0.405
-0.42
-0.425
-0.395
-0.375
-0.355
-0.335
-0.335
-0.36
-0.37
-0.355
-0.34
-0.345
-0.36
-0.37
-0.345
-0.32
-0.285
-0.26
-0.235
-0.235
-0.24
-0.25
-0.23
-0.2
-0.2
-0.22
-0.24
-0.22
-0.175
-0.155
-0.165
-0.19
-0.18
-0.165
-0.155
-0.16
-0.175
-0.175
-0.17
-0.145
-0.15
-0.16
-0.18
-0.185
-0.23
-0.255
-0.26
-0.255
-0.255
-0.27
-0.305
-0.315
-0.325
-0.32
-0.345
-0.37
-0.375
-0.375
-0.37
-0.36
-0.36
-0.355
-0.36
-0.37
-0.395
-0.405
-0.4
-0.41
-0.405
-0.39
-0.395
-0.375
-0.37
-0.39
-0.41
-0.395
-0.385
-0.38
-0.39
-0.405
-0.415
-0.4
-0.39
-0.365
-0.37
-0.39
-0.405
-0.41
-0.375
-0.36
-0.355
-0.365
-0.385
-0.37
-0.34
-0.345
-0.345
-0.36
-0.365
-0.375
-0.36
-0.37
-0.35
-0.355
-0.355
-0.355
-0.36
-0.37
-0.385
-0.39
-0.41
-0.405
-0.4
-0.385
-0.365
-0.38
-0.375
-0.345
-0.31
-0.315
-0.33
-0.365
-0.38
-0.4
-0.4
-0.38
-0.37
-0.36
-0.37
-0.37
-0.355
-0.35
-0.36
-0.37
-0.39
-0.415
-0.425
-0.4
-0.385
-0.38
-0.375
-0.39
-0.395
-0.385
-0.405
-0.435
-0.45
-0.43
-0.405
-0.4
-0.37
-0.355
-0.36
-0.365
-0.37
-0.38
-0.39
-0.4
-0.39
-0.385
-0.395
-0.395
-0.405
-0.415
-0.43
-0.405
-0.375
-0.35
-0.37
-0.41
-0.43
-0.41
-0.39
-0.375
-0.345
-0.325
-0.33
-0.345
-0.365
-0.36
-0.36
-0.32
-0.31
-0.295
-0.275
-0.25
-0.235
-0.265
-0.285
-0.245
-0.205
-0.21
-0.26
-0.315
-0.31
-0.295
-0.29
-0.315
-0.33
-0.355
-0.355
-0.345
-0.365
-0.425
-0.465
-0.455
-0.42
-0.405
-0.425
-0.465
-0.505
-0.485
-0.45
-0.445
-0.455
-0.46
-0.47
-0.49
-0.515
-0.54
-0.55
-0.51
-0.46
-0.45
-0.485
-0.535
-0.55
-0.57
-0.57
-0.53
-0.395
-0.145
0.155
0.51
0.88
1.13
1.1
0.84
0.495
0.14
-0.14
-0.285
-0.34
-0.385
-0.45
-0.475
-0.475
-0.455
-0.44
-0.455
-0.505
-0.55
-0.565
-0.575
-0.605
-0.61
-0.61
-0.575
-0.56
-0.58
-0.6
-0.6
-0.605
-0.58
-0.585
-0.595
-0.625
-0.635
-0.64
-0.63
-0.59
-0.565
-0.58
-0.6
-0.63
-0.635
-0.61
-0.595
-0.605
-0.595
-0.575
-0.58
-0.625
-0.66
-0.625
-0.585
-0.585
-0.585
-0.6
-0.6
-0.61
-0.575
-0.565
-0.58
-0.59
-0.605
-0.6
-0.595
-0.585
-0.59
-0.615
-0.61
-0.59
-0.575
-0.57
-0.56
-0.55
-0.53
-0.545
-0.565
-0.575
-0.565
-0.545
-0.505
-0.505
-0.515
-0.52
-0.51
-0.495
-0.475
-0.465
-0.425
-0.42
-0.44
-0.44
-0.405
-0.385
-0.385
-0.375
-0.355
-0.33
-0.32
-0.32
-0.32
-0.31
-0.33
-0.34
-0.33
-0.315
-0.27
-0.25
-0.255
-0.295
-0.32
-0.34
-0.335
-0.325
-0.34
-0.365
-0.405
-0.41
-0.395
-0.38
-0.385
-0.395
-0.405
-0.43
-0.425
-0.445
-0.475
-0.515
-0.53
-0.525
-0.525
-0.535
-0.495
-0.49
-0.505
-0.55
-0.59
-0.575
-0.545
-0.53
-0.515
-0.545
-0.565
-0.52
-0.505
-0.52
-0.555
-0.585
-0.57
-0.55
-0.535
-0.555
-0.585
-0.615
-0.595
-0.54
-0.505
-0.47
-0.5
-0.59
-0.615
-0.575
-0.525
-0.515
-0.53
-0.55
-0.545
-0.515
-0.525
-0.53
-0.535
-0.545
-0.53
-0.51
-0.485
-0.49
-0.485
-0.485
-0.5
-0.52
-0.535
-0.525
-0.52
-0.535
-0.525
-0.515
-0.53
-0.545
-0.55
-0.57
-0.545
-0.515
-0.515
-0.52
-0.54
-0.565
-0.52
-0.475
-0.46
-0.485
-0.545
-0.59
-0.58
-0.535
-0.51
-0.52
-0.53
-0.535
-0.525
-0.53
-0.535
-0.55
-0.56
-0.565
-0.535
-0.535
-0.535
-0.53
-0.51
-0.505
-0.49
-0.485
-0.52
-0.54
-0.535
-0.5
-0.475
-0.465
-0.49
-0.515
-0.53
-0.54
-0.55
-0.535
-0.49
-0.46
-0.445
-0.45
-0.455
-0.45
-0.44
-0.445
-0.42
-0.39
-0.365
-0.32
-0.265
-0.26
-0.305
-0.34
-0.34
-0.34
-0.33
-0.355
-0.37
-0.375
-0.395
-0.42
-0.41
-0.375
-0.355
-0.37
-0.425
-0.46
-0.505
-0.535
-0.5
-0.475
-0.475
-0.485
-0.495
-0.515
-0.51
-0.52
-0.535
-0.555
-0.545
-0.52
-0.51
-0.49
-0.505
-0.535
-0.55
-0.55
-0.555
-0.57
-0.605
-0.63
-0.605
-0.495
-0.3
-0.04
0.285
0.65
1.02
1.25
1.245
0.965
0.53
0.185
-0.045
-0.175
-0.265
-0.37
-0.435
-0.435
-0.445
-0.485
-0.525
-0.54
-0.515
-0.5
-0.5
-0.51
-0.54
-0.57
-0.59
-0.595
-0.56
-0.555
-0.56
-0.57
-0.56
-0.55
-0.545
-0.565
-0.595
-0.61
-0.6
-0.57
-0.545
-0.545
-0.545
-0.54
-0.52
-0.51
-0.505
-0.5
-0.52
-0.54
-0.55
-0.555
-0.535
-0.52
-0.52
-0.535
-0.535
-0.515
-0.535
-0.55
-0.575
-0.615
-0.57
-0.485
-0.46
-0.48
-0.505
-0.525
-0.51
-0.51
-0.52
-0.49
-0.465
-0.515
-0.545
-0.485
-0.355
-0.305
-0.4
-0.485
-0.45
-0.34
-0.295
-0.345
-0.38
-0.43
-0.455
-0.4
-0.345
-0.33
-0.305
-0.31
-0.34
-0.365
-0.345
-0.3
-0.27
-0.215
-0.15
-0.15
-0.215
-0.26
-0.24
-0.155
-0.115
-0.1
-0.09
-0.115
-0.155
-0.215
-0.275
-0.245
-0.125
-0.065
-0.105
-0.155
-0.15
-0.13
-0.175
-0.27
-0.345
-0.34
-0.3
-0.315
-0.32
-0.34
-0.385
-0.465
-0.44
-0.31
-0.2
-0.215
-0.345
-0.445
-0.45
-0.39
-0.35
-0.345
-0.36
-0.37
-0.385
-0.425
-0.45
-0.47
-0.485
-0.545
-0.55
-0.44
-0.265
-0.23
-0.32
-0.35
-0.37
-0.42
-0.435
-0.42
-0.42
-0.45
-0.495
-0.47
-0.41
-0.37
-0.395
-0.4
-0.35
-0.295
-0.27
-0.31
-0.385
-0.43
-0.44
-0.435
-0.4
-0.36
-0.335
-0.35
-0.395
-0.43
-0.42
-0.36
-0.335
-0.35
-0.41
-0.475
-0.46
-0.385
-0.315
-0.32
-0.365
-0.4
-0.405
-0.39
-0.36
-0.33
-0.345
-0.415
-0.395
-0.3
-0.285
-0.37
-0.445
-0.46
-0.36
-0.3
-0.315
-0.425
-0.535
-0.495
-0.31
-0.145
-0.175
-0.325
-0.455
-0.515
-0.445
-0.305
-0.205
-0.25
-0.34
-0.375
-0.425
-0.49
-0.505
-0.385
-0.23
-0.165
-0.215
-0.295
-0.38
-0.435
-0.42
-0.4
-0.4
-0.385
-0.325
-0.265
-0.22
-0.185
-0.125
-0.095
-0.13
-0.24
-0.335
-0.315
-0.22
-0.14
-0.12
-0.16
-0.23
-0.28
-0.31
-0.315
-0.315
-0.345
-0.395
-0.39
-0.315
-0.26
-0.29
-0.37
-0.42
-0.415
-0.445
-0.48
-0.42
-0.285
-0.245
-0.31
-0.4
-0.435
-0.41
-0.39
-0.365
-0.35
-0.375
-0.41
-0.415
-0.39
-0.365
-0.375
-0.45
-0.535
-0.565
-0.555
-0.49
-0.315
-0.065
0.25
0.625
1.045
1.375
1.455
1.23
0.825
0.43
0.115
0.01
0.015
-0.095
-0.345
-0.455
-0.325
-0.19
-0.21
-0.31
-0.39
-0.435
-0.48
-0.535
-0.515
-0.45
-0.43
-0.47
-0.505
-0.46
-0.38
-0.34
-0.35
-0.425
-0.495
-0.525
-0.435
-0.37
-0.375
-0.445
-0.505
-0.53
-0.5
-0.495
-0.575
-0.6
-0.555
-0.43
-0.365
-0.37
-0.455
-0.51
-0.51
-0.505
-0.465
-0.44
-0.45
-0.505
-0.48
-0.365
-0.29
-0.38
-0.52
-0.55
-0.48
-0.39
-0.385
-0.465
-0.48
-0.38
-0.335
-0.385
-0.45
-0.45
-0.465
-0.46
-0.455
-0.4
-0.37
-0.39
-0.435
-0.465
-0.375
-0.265
-0.215
-0.25
-0.275
-0.255
-0.235
-0.28
-0.34
-0.335
-0.285
-0.21
-0.165
-0.18
-0.225
-0.24
-0.225
-0.2
-0.205
-0.16
-0.115
-0.105
-0.115
-0.12
-0.155
-0.15
-0.075
-0.025
-0.04
-0.045
-0.035
-0.075
-0.115
-0.195
-0.28
-0.27
-0.155
-0.05
-0.035
-0.12
-0.205
-0.31
-0.345
-0.335
-0.27
-0.25
-0.285
-0.295
-0.27
-0.255
-0.28
-0.33
-0.37
-0.39
-0.43
-0.445
-0.41
-0.325
-0.295
-0.275
-0.275
-0.31
-0.335
-0.38
-0.42
-0.45
-0.445
-0.44
-0.44
-0.395
-0.36
-0.325
-0.34
-0.375
-0.365
-0.31
-0.29
-0.295
-0.325
-0.325
-0.305
-0.31
-0.34
-0.365
-0.375
-0.37
-0.36
-0.33
-0.31
-0.33
-0.38
-0.395
-0.345
-0.285
-0.29
-0.31
-0.335
-0.37
-0.38
-0.365
-0.32
-0.29
-0.32
-0.35
-0.345
-0.355
-0.37
-0.38
-0.37
-0.34
-0.3
-0.31
-0.345
-0.335
-0.295
-0.275
-0.285
-0.33
-0.35
-0.335
-0.29
-0.3
-0.335
-0.35
-0.355
-0.31
-0.28
-0.29
-0.335
-0.355
-0.345
-0.36
-0.37
-0.38
-0.375
-0.35
-0.315
-0.315
-0.305
-0.275
-0.305
-0.385
-0.4
-0.33
-0.27
-0.27
-0.275
-0.295
-0.305
-0.31
-0.335
-0.355
-0.355
-0.3
-0.225
-0.15
-0.15
-0.185
-0.175
-0.175
-0.205
-0.235
-0.215
-0.21
-0.22
-0.205
-0.2
-0.22
-0.28
-0.315
-0.28
-0.19
-0.175
-0.215
-0.265
-0.3
-0.305
-0.295
-0.34
-0.39
-0.405
-0.36
-0.315
-0.335
-0.375
-0.375
-0.375
-0.345
-0.32
-0.32
-0.335
-0.36
-0.395
-0.43
-0.415
-0.38
-0.36
-0.35
-0.36
-0.41
-0.445
-0.415
-0.385
-0.39
-0.435
-0.48
-0.425
-0.29
-0.075
0.19
0.495
0.85
1.195
1.43
1.42
1.175
0.82
0.475
0.235
0.13
0.04
-0.125
-0.27
-0.285
-0.235
-0.235
-0.285
-0.335
-0.365
-0.39
-0.36
-0.32
-0.31
-0.36
-0.395
-0.4
-0.365
-0.345
-0.35
-0.365
-0.38
-0.38
-0.4
-0.39
-0.395
-0.4
-0.395
-0.38
-0.38
-0.4
-0.395
-0.37
-0.34
-0.33
-0.35
-0.395
-0.455
-0.475
-0.44
-0.395
-0.355
-0.345
-0.335
-0.345
-0.325
-0.36
-0.435
-0.475
-0.415
-0.31
-0.29
-0.315
-0.325
-0.34
-0.355
-0.38
-0.39
-0.39
-0.43
-0.43
-0.35
-0.255
-0.255
-0.32
-0.32
-0.29
-0.28
-0.285
-0.33
-0.38
-0.395
-0.355
-0.295
-0.28
-0.315
-0.315
-0.28
-0.255
-0.255
-0.24
-0.23
-0.225
-0.215
-0.235
-0.24
-0.21
-0.165
-0.145
-0.125
-0.125
-0.155
-0.155
-0.105
-0.09
-0.095
-0.06
0
-0.005
-0.065
-0.095
-0.08
-0.02
0.04
0.055
0.02
-0.005
0
-0.005
-0.01
-0.03
-0.065
-0.115
-0.135
-0.1
-0.065
-0.105
-0.205
-0.23
-0.18
-0.17
-0.19
-0.22
-0.25
-0.275
-0.29
-0.285
-0.25
-0.265
-0.305
-0.315
-0.275
-0.235
-0.27
-0.34
-0.355
-0.315
-0.295
-0.305
-0.325
-0.32
-0.305
-0.26
-0.3
-0.37
-0.365
-0.335
-0.32
-0.315
-0.31
-0.32
-0.355
-0.355
-0.305
-0.28
-0.29
-0.3
-0.33
-0.32
-0.29
-0.255
-0.24
-0.245
-0.275
-0.315
-0.335
-0.305
-0.275
-0.305
-0.34
-0.285
-0.19
-0.18
-0.245
-0.285
-0.32
-0.325
-0.28
-0.24
-0.23
-0.24
-0.265
-0.32
-0.35
-0.29
-0.22
-0.21
-0.245
-0.29
-0.305
-0.28
-0.25
-0.24
-0.27
-0.33
-0.375
-0.375
-0.31
-0.21
-0.14
-0.155
-0.23
-0.29
-0.27
-0.225
-0.21
-0.205
-0.25
-0.31
-0.34
-0.3
-0.24
-0.185
-0.185
-0.27
-0.31
-0.28
-0.2
-0.155
-0.175
-0.22
-0.185
-0.16
-0.165
-0.225
-0.27
-0.24
-0.155
-0.11
-0.05
-0.03
-0.015
-0.045
-0.085
-0.115
-0.145
-0.145
-0.08
-0.065
-0.075
-0.135
-0.165
-0.125
-0.065
-0.07
-0.1
-0.14
-0.2
-0.24
-0.285
-0.285
-0.245
-0.205
-0.225
-0.235
-0.24
-0.235
-0.185
-0.165
-0.22
-0.285
-0.31
-0.29
-0.23
-0.14
-0.13
-0.23
-0.355
-0.35
-0.185
-0.05
-0.08
-0.185
-0.275
-0.32
-0.31
-0.26
-0.175
-0.07
0.115
0.39
0.735
1.115
1.44
1.59
1.505
1.195
0.825
0.485
0.215
0.135
0.13
0.05
-0.105
-0.185
-0.215
-0.25
-0.265
-0.255
-0.245
-0.295
-0.37
-0.385
-0.385
-0.385
-0.385
-0.365
-0.35
-0.34
-0.35
-0.37
-0.39
-0.405
-0.38
-0.33
-0.335
-0.365
-0.37
-0.335
-0.34
-0.375
-0.455
-0.5
-0.49
-0.425
-0.385
-0.33
-0.34
-0.375
-0.375
-0.385
-0.405
-0.415
-0.45
-0.45
-0.42
-0.335
-0.27
-0.265
-0.355
-0.405
-0.4
-0.365
-0.37
-0.375
-0.385
-0.365
-0.345
-0.33
-0.31
-0.275
-0.3
-0.335
-0.37
-0.375
-0.365
-0.345
-0.33
-0.34
-0.36
-0.355
-0.315
-0.25
-0.235
-0.255
-0.265
-0.245
-0.245
-0.24
-0.26
-0.275
-0.25
-0.23
-0.23
-0.24
-0.21
-0.185
-0.175
-0.185
-0.225
-0.225
-0.14
-0.09
-0.05
0
0.015
-0.02
-0.09
-0.13
-0.075
-0.01
0
0.005
0.005
0.005
0.025
0.075
0.065
0.015
-0.025
-0.02
0.025
0.035
0.01
-0.035
-0.045
-0.06
-0.08
-0.075
-0.105
-0.125
-0.16
-0.185
-0.215
-0.215
-0.215
-0.225
-0.235
-0.225
-0.225
-0.255
-0.27
-0.26
-0.24
-0.24
-0.28
-0.305
-0.31
-0.3
-0.32
-0.33
-0.3
-0.28
-0.26
-0.26
-0.295
-0.345
-0.335
-0.315
-0.3
-0.3
-0.295
-0.315
-0.33
-0.31
-0.23
-0.195
-0.21
-0.25
-0.245
-0.23
-0.265
-0.305
-0.355
-0.345
-0.295
-0.205
-0.18
-0.22
-0.275
-0.305
-0.265
-0.23
-0.23
-0.24
-0.255
-0.225
-0.2
-0.225
-0.29
-0.325
-0.29
-0.2
-0.115
-0.15
-0.23
-0.245
-0.22
-0.21
-0.205
-0.195
-0.215
-0.24
-0.24
-0.235
-0.195
-0.18
-0.18
-0.17
-0.2
-0.205
-0.21
-0.23
-0.275
-0.295
-0.265
-0.215
-0.19
-0.22
-0.26
-0.285
-0.285
-0.29
-0.28
-0.28
-0.27
-0.235
-0.18
-0.13
-0.13
-0.15
-0.165
-0.155
-0.19
-0.22
-0.18
-0.145
-0.155
-0.185
-0.17
-0.115
-0.025
0.015
-0.02
-0.045
-0.07
-0.12
-0.175
-0.2
-0.2
-0.215
-0.2
-0.175
-0.125
-0.15
-0.225
-0.265
-0.265
-0.245
-0.235
-0.24
-0.26
-0.255
-0.255
-0.285
-0.305
-0.31
-0.29
-0.265
-0.28
-0.29
-0.29
-0.29
-0.28
-0.3
-0.325
-0.325
-0.315
-0.29
-0.29
-0.32
-0.35
-0.38
-0.38
-0.365
-0.335
-0.25
-0.06
0.23
0.555
0.91
1.245
1.485
1.51
1.28
0.89
0.5
0.185
-0.03
-0.085
-0.135
-0.185
-0.225
-0.24
-0.25
-0.275
-0.33
-0.365
-0.365
-0.34
-0.335
-0.38
-0.39
-0.385
-0.36
-0.375
-0.405
-0.4
-0.4
-0.4
-0.415
-0.43
-0.425
-0.425
-0.415
-0.395
-0.365
-0.38
-0.4
-0.435
-0.465
-0.465
-0.425
-0.41
-0.415
-0.42
-0.415
-0.41
-0.415
-0.415
-0.43
-0.465
-0.505
-0.47
-0.375
-0.305
-0.315
-0.36
-0.38
-0.39
-0.4
-0.4
-0.425
-0.405
-0.385
-0.355
-0.325
-0.31
-0.335
-0.38
-0.42
-0.405
-0.335
-0.32
-0.335
-0.35
-0.345
-0.325
-0.315
-0.31
-0.315
-0.33
-0.325
-0.295
-0.245
-0.22
-0.21
-0.225
-0.245
-0.245
-0.24
-0.24
-0.205
-0.145
-0.09
-0.065
-0.075
-0.1
-0.105
-0.07
-0.05
-0.04
-0.015
-0.03
-0.045
-0.06
-0.04
0.005
0.02
0.01
-0.01
-0.02
-0.015
0.015
0.005
-0.015
-0.055
-0.065
-0.07
-0.09
-0.12
-0.135
-0.16
-0.165
-0.195
-0.21
-0.2
-0.185
-0.195
-0.22
-0.25
-0.255
-0.25
-0.26
-0.275
-0.265
-0.25
-0.24
-0.27
-0.28
-0.28
-0.27
-0.25
-0.235
-0.24
-0.255
-0.265
-0.27
-0.265
-0.255
-0.27
-0.285
-0.28
-0.265
-0.27
-0.28
-0.275
-0.275
-0.27
-0.285
-0.29
-0.285
-0.285
-0.28
-0.26
-0.255
-0.245
-0.25
-0.25
-0.25
-0.25
-0.255
-0.265
-0.265
-0.26
-0.255
-0.245
-0.245
-0.25
-0.25
-0.25
-0.255
-0.26
-0.25
-0.255
-0.245
-0.235
-0.24
-0.265
-0.27
-0.285
-0.27
-0.255
-0.25
-0.245
-0.24
-0.24
-0.24
-0.23
-0.245
-0.25
-0.26
-0.26
-0.26
-0.245
-0.215
-0.24
-0.265
-0.26
-0.26
-0.26
-0.265
-0.265
-0.245
-0.23
-0.25
-0.235
-0.25
-0.25
-0.245
-0.23
-0.22
-0.23
-0.215
-0.21
-0.205
-0.215
-0.205
-0.175
-0.145
-0.12
-0.11
-0.085
-0.05
-0.045
-0.055
-0.075
-0.09
-0.085
-0.095
-0.07
-0.08
-0.095
-0.14
-0.17
-0.155
-0.135
-0.135
-0.145
-0.17
-0.195
-0.22
-0.235
-0.23
-0.235
-0.25
-0.25
-0.26
-0.245
-0.255
-0.255
-0.265
-0.27
-0.27
-0.275
-0.275
-0.29
-0.3
-0.3
-0.28
-0.27
-0.27
-0.275
-0.295
-0.295
-0.305
-0.325
-0.32
-0.29
-0.24
-0.08
0.14
0.415
0.73
1.075
1.37
1.495
1.36
1.025
0.665
0.315
0.04
-0.065
-0.05
-0.075
-0.135
-0.165
-0.195
-0.21
-0.225
-0.245
-0.29
-0.335
-0.36
-0.36
-0.34
-0.315
-0.335
-0.36
-0.365
-0.375
-0.385
-0.37
-0.36
-0.365
-0.365
-0.385
-0.405
-0.38
-0.365
-0.38
-0.385
-0.39
-0.4
-0.38
-0.38
-0.385
-0.395
-0.405
-0.405
-0.395
-0.38
-0.37
-0.38
-0.395
-0.385
-0.385
-0.385
-0.39
-0.39
-0.39
-0.38
-0.38
-0.375
-0.37
-0.375
-0.375
-0.375
-0.38
-0.375
-0.375
-0.37
-0.36
-0.375
-0.365
-0.365
-0.355
-0.355
-0.355
-0.34
-0.34
-0.33
-0.335
-0.345
-0.345
-0.32
-0.315
-0.305
-0.305
-0.3
-0.295
-0.275
-0.265
-0.255
-0.26
-0.265
-0.245
-0.235
-0.2
-0.19
-0.19
-0.2
-0.195
-0.16
-0.135
-0.13
-0.12
-0.13
-0.115
-0.09
-0.075
-0.065
-0.075
-0.07
-0.065
-0.045
-0.035
-0.04
-0.045
-0.065
-0.075
-0.075
-0.075
-0.075
-0.105
-0.115
-0.14
-0.165
-0.15
-0.175
-0.2
-0.215
-0.235
-0.23
-0.24
-0.245
-0.255
-0.265
-0.28
-0.27
-0.275
-0.27
-0.27
-0.28
-0.285
-0.295
-0.275
-0.275
-0.29
-0.31
-0.305
-0.31
-0.3
-0.295
-0.31
-0.315
-0.31
-0.31
-0.3
-0.3
-0.315
-0.315
-0.31
-0.305
-0.28
-0.285
-0.29
-0.315
-0.31
-0.285
-0.275
-0.27
-0.285
-0.3
-0.305
-0.3
-0.28
-0.285
-0.29
-0.305
-0.305
-0.275
-0.275
-0.285
-0.28
-0.29
-0.29
-0.285
-0.275
-0.29
-0.285
-0.295
-0.295
-0.285
-0.285
-0.275
-0.28
-0.285
-0.3
-0.285
-0.29
-0.285
-0.3
-0.305
-0.305
-0.305
-0.285
-0.29
-0.29
-0.3
-0.3
-0.295
-0.295
-0.285
-0.29
-0.3
-0.285
-0.285
-0.28
-0.29
-0.3
-0.31
-0.325
-0.315
-0.305
-0.3
-0.285
-0.3
-0.305
-0.295
-0.28
-0.265
-0.255
-0.265
-0.275
-0.255
-0.25
-0.225
-0.21
-0.185
-0.18
-0.14
-0.105
-0.095
-0.12
-0.145
-0.155
-0.145
-0.13
-0.14
-0.155
-0.185
-0.195
-0.195
-0.195
-0.2
-0.21
-0.235
-0.255
-0.26
-0.25
-0.27
-0.29
-0.31
-0.325
-0.32
-0.315
-0.33
-0.325
-0.35
-0.36
-0.35
-0.34
-0.355
-0.36
-0.365
-0.37
-0.365
-0.36
-0.37
-0.375
-0.365
-0.36
-0.345
-0.345
-0.375
-0.395
-0.4
-0.375
-0.315
-0.175
0.065
0.345
0.655
1
1.295
1.355
1.125
0.75
0.38
0.055
-0.15
-0.195
-0.205
-0.26
-0.28
-0.29
-0.305
-0.31
-0.355
-0.41
-0.43
-0.445
-0.455
-0.45
-0.45
-0.45
-0.46
-0.47
-0.48
-0.48
-0.49
-0.495
-0.485
-0.48
-0.47
-0.47
-0.485
-0.485
-0.485
-0.495
-0.48
-0.485
-0.485
-0.485
-0.49
-0.49
-0.485
-0.46
-0.47
-0.48
-0.485
-0.485
-0.475
-0.475
-0.485
-0.485
-0.495
-0.51
-0.485
-0.47
-0.465
-0.45
-0.465
-0.47
-0.47
-0.465
-0.465
-0.48
-0.48
-0.5
-0.465
-0.45
-0.42
-0.425
-0.45
-0.47
-0.45
-0.42
-0.4
-0.4
-0.41
-0.425
-0.395
-0.37
-0.345
-0.355
-0.37
-0.37
-0.335
-0.3
-0.28
-0.27
-0.28
-0.27
-0.27
-0.245
-0.245
-0.23
-0.205
-0.195
-0.18
-0.18
-0.17
-0.15
-0.15
-0.145
-0.145
-0.155
-0.175
-0.16
-0.145
-0.16
-0.16
-0.165
-0.185
-0.21
-0.225
-0.235
-0.245
-0.25
-0.265
-0.3
-0.285
-0.31
-0.325
-0.325
-0.32
-0.335
-0.345
-0.365
-0.345
-0.33
-0.335
-0.345
-0.335
-0.345
-0.35
-0.36
-0.365
-0.365
-0.36
-0.345
-0.35
-0.355
-0.365
-0.375
-0.37
-0.365
-0.345
-0.335
-0.34
-0.345
-0.36
-0.375
-0.355
-0.33
-0.315
-0.325
-0.355
-0.355
-0.335
-0.32
-0.32
-0.335
-0.365
-0.365
-0.345
-0.345
-0.35
-0.335
-0.335
-0.33
-0.325
-0.33
-0.32
-0.33
-0.345
-0.35
-0.33
-0.32
-0.31
-0.325
-0.34
-0.35
-0.32
-0.3
-0.305
-0.325
-0.32
-0.33
-0.34
-0.315
-0.3
-0.315
-0.32
-0.335
-0.33
-0.345
-0.325
-0.31
-0.315
-0.325
-0.335
-0.32
-0.31
-0.305
-0.315
-0.34
-0.315
-0.31
-0.31
-0.305
-0.305
-0.315
-0.3
-0.29
-0.275
-0.29
-0.29
-0.28
-0.255
-0.23
-0.215
-0.2
-0.175
-0.17
-0.135
-0.105
-0.1
-0.125
-0.155
-0.155
-0.15
-0.16
-0.18
-0.2
-0.21
-0.22
-0.21
-0.22
-0.215
-0.24
-0.25
-0.27
-0.295
-0.3
-0.305
-0.31
-0.33
-0.355
-0.345
-0.33
-0.3
-0.32
-0.345
-0.38
-0.38
-0.375
-0.37
-0.385
-0.385
-0.375
-0.36
-0.345
-0.345
-0.36
-0.385
-0.43
-0.415
-0.4
-0.365
-0.255
-0.075
0.16
0.49
0.805
1.11
1.27
1.175
0.85
0.485
0.205
0
-0.135
-0.21
-0.3
-0.325
-0.335
-0.32
-0.35
-0.4
-0.43
-0.435
-0.435
-0.44
-0.445
-0.465
-0.475
-0.48
-0.485
-0.48
-0.495
-0.51
-0.505
-0.495
-0.485
-0.48
-0.485
-0.5
-0.49
-0.485
-0.475
-0.485
-0.5
-0.495
-0.505
-0.51
-0.5
-0.485
-0.465
-0.47
-0.505
-0.525
-0.515
-0.505
-0.505
-0.52
-0.53
-0.52
-0.51
-0.485
-0.485
-0.5
-0.515
-0.52
-0.5
-0.475
-0.475
-0.485
-0.5
-0.495
-0.49
-0.495
-0.5
-0.49
-0.51
-0.5
-0.465
-0.45
-0.445
-0.46
-0.46
-0.445
-0.435
-0.42
-0.425
-0.42
-0.395
-0.365
-0.365
-0.375
-0.375
-0.35
-0.325
-0.305
-0.285
-0.285
-0.275
-0.285
-0.28
-0.265
-0.245
-0.22
-0.22
-0.205
-0.2
-0.195
-0.175
-0.165
-0.16
-0.17
-0.19
-0.195
-0.19
-0.195
-0.215
-0.225
-0.245
-0.255
-0.285
-0.315
-0.33
-0.32
-0.315
-0.325
-0.34
-0.36
-0.395
-0.405
-0.42
-0.415
-0.425
-0.425
-0.4
-0.405
-0.425
-0.445
-0.445
-0.42
-0.405
-0.41
-0.42
-0.415
-0.41
-0.415
-0.425
-0.445
-0.445
-0.445
-0.43
-0.43
-0.44
-0.43
-0.45
-0.43
-0.435
-0.45
-0.445
-0.44
-0.45
-0.45
-0.455
-0.445
-0.435
-0.42
-0.435
-0.435
-0.44
-0.43
-0.44
-0.455
-0.455
-0.455
-0.435
-0.43
-0.425
-0.42
-0.435
-0.43
-0.435
-0.43
-0.43
-0.435
-0.445
-0.435
-0.415
-0.415
-0.425
-0.425
-0.44
-0.43
-0.425
-0.405
-0.395
-0.395
-0.405
-0.43
-0.44
-0.445
-0.44
-0.45
-0.455
-0.455
-0.455
-0.46
-0.445
-0.45
-0.46
-0.445
-0.445
-0.435
-0.44
-0.445
-0.445
-0.445
-0.44
-0.415
-0.415
-0.41
-0.44
-0.425
-0.425
-0.415
-0.405
-0.41
-0.41
-0.385
-0.355
-0.335
-0.295
-0.27
-0.26
-0.255
-0.245
-0.255
-0.28
-0.29
-0.31
-0.305
-0.285
-0.29
-0.31
-0.325
-0.345
-0.35
-0.365
-0.355
-0.39
-0.42
-0.445
-0.445
-0.435
-0.43
-0.435
-0.455
-0.465
-0.46
-0.45
-0.46
-0.47
-0.485
-0.505
-0.48
-0.475
-0.47
-0.48
-0.485
-0.48
-0.485
-0.48
-0.485
-0.505
-0.525
-0.535
-0.505
-0.4
-0.18
0.085
0.425
0.795
1.11
1.235
1.035
0.645
0.27
-0.025
-0.21
-0.255
-0.3
-0.33
-0.355
-0.385
-0.4
-0.415
-0.445
-0.48
-0.505
-0.535
-0.53
-0.525
-0.52
-0.55
-0.555
-0.565
-0.56
-0.53
-0.515
-0.52
-0.53
-0.545
-0.535
-0.525
-0.535
-0.545
-0.55
-0.56
-0.54
-0.53
-0.52
-0.53
-0.545
-0.55
-0.53
-0.52
-0.505
-0.495
-0.51
-0.535
-0.545
-0.515
-0.51
-0.515
-0.51
-0.51
-0.49
-0.5
-0.51
-0.51
-0.505
-0.505
-0.51
-0.49
-0.475
-0.475
-0.49
-0.5
-0.475
-0.48
-0.465
-0.465
-0.48
-0.475
-0.475
-0.46
-0.45
-0.44
-0.44
-0.45
-0.445
-0.43
-0.4
-0.395
-0.395
-0.395
-0.38
-0.355
-0.33
-0.315
-0.305
-0.325
-0.31
-0.295
-0.275
-0.255
-0.245
-0.255
-0.245
-0.225
-0.21
-0.21
-0.205
-0.215
-0.195
-0.175
-0.155
-0.135
-0.135
-0.17
-0.175
-0.16
-0.135
-0.135
-0.15
-0.18
-0.19
-0.205
-0.225
-0.255
-0.27
-0.28
-0.285
-0.32
-0.32
-0.32
-0.345
-0.365
-0.365
-0.37
-0.355
-0.38
-0.4
-0.405
-0.37
-0.365
-0.36
-0.39
-0.41
-0.435
-0.445
-0.44
-0.445
-0.43
-0.425
-0.41
-0.385
-0.355
-0.385
-0.425
-0.47
-0.475
-0.435
-0.4
-0.375
-0.36
-0.375
-0.415
-0.44
-0.41
-0.395
-0.385
-0.4
-0.41
-0.365
-0.35
-0.36
-0.37
-0.395
-0.415
-0.41
-0.38
-0.35
-0.32
-0.315
-0.345
-0.37
-0.38
-0.365
-0.31
-0.27
-0.3
-0.34
-0.36
-0.35
-0.325
-0.305
-0.325
-0.345
-0.34
-0.32
-0.31
-0.29
-0.325
-0.34
-0.34
-0.315
-0.31
-0.31
-0.32
-0.31
-0.31
-0.315
-0.345
-0.34
-0.325
-0.305
-0.305
-0.315
-0.33
-0.335
-0.345
-0.32
-0.325
-0.34
-0.33
-0.325
-0.33
-0.3
-0.29
-0.27
-0.295
-0.315
-0.325
-0.295
-0.27
-0.225
-0.23
-0.27
-0.28
-0.235
-0.16
-0.105
-0.1
-0.115
-0.12
-0.125
-0.15
-0.13
-0.115
-0.165
-0.245
-0.26
-0.21
-0.14
-0.145
-0.19
-0.25
-0.27
-0.235
-0.21
-0.255
-0.31
-0.32
-0.32
-0.335
-0.355
-0.365
-0.355
-0.37
-0.355
-0.285
-0.25
-0.265
-0.335
-0.39
-0.42
-0.455
-0.415
-0.365
-0.33
-0.35
-0.375
-0.35
-0.335
-0.37
-0.425
-0.47
-0.48
-0.39
-0.175
0.11
0.39
0.675
1.05
1.365
1.405
1.13
0.775
0.435
0.095
-0.13
-0.19
-0.205
-0.255
-0.29
-0.3
-0.345
-0.405
-0.43
-0.43
-0.38
-0.37
-0.38
-0.36
-0.39
-0.47
-0.56
-0.54
-0.495
-0.47
-0.485
-0.485
-0.46
-0.44
-0.435
-0.445
-0.465
-0.475
-0.49
-0.525
-0.545
-0.52
-0.41
-0.385
-0.465
-0.535
-0.575
-0.53
-0.46
-0.44
-0.51
-0.54
-0.55
-0.515
-0.475
-0.495
-0.58
-0.62
-0.61
-0.565
-0.495
-0.435
-0.44
-0.51
-0.6
-0.62
-0.565
-0.5
-0.49
-0.515
-0.52
-0.49
-0.445
-0.455
-0.51
-0.535
-0.52
-0.535
-0.55
-0.56
-0.54
-0.51
-0.47
-0.405
-0.365
-0.375
-0.395
-0.395
-0.38
-0.365
-0.365
-0.375
-0.42
-0.485
-0.505
-0.475
-0.37
-0.255
-0.2
-0.16
-0.17
-0.21
-0.27
-0.325
-0.365
-0.37
-0.355
-0.3
-0.26
-0.24
-0.265
-0.255
-0.19
-0.135
-0.135
-0.13
-0.15
-0.185
-0.225
-0.285
-0.32
-0.33
-0.315
-0.25
-0.215
-0.26
-0.3
-0.34
-0.325
-0.325
-0.33
-0.335
-0.36
-0.38
-0.415
-0.465
-0.525
-0.52
-0.5
-0.435
-0.38
-0.345
-0.35
-0.38
-0.405
-0.43
-0.425
-0.4
-0.385
-0.335
-0.32
-0.31
-0.325
-0.36
-0.39
-0.4
-0.385
-0.385
-0.41
-0.45
-0.47
-0.485
-0.495
-0.5
-0.495
-0.485
-0.465
-0.44
-0.425
-0.445
-0.48
-0.45
-0.405
-0.395
-0.425
-0.425
-0.385
-0.355
-0.355
-0.385
-0.395
-0.39
-0.39
-0.385
-0.38
-0.37
-0.365
-0.395
-0.385
-0.37
-0.365
-0.37
-0.385
-0.4
-0.395
-0.38
-0.39
-0.4
-0.415
-0.42
-0.415
-0.385
-0.36
-0.31
-0.285
-0.295
-0.33
-0.37
-0.36
-0.33
-0.315
-0.325
-0.36
-0.37
-0.36
-0.325
-0.325
-0.32
-0.36
-0.38
-0.365
-0.33
-0.295
-0.275
-0.285
-0.275
-0.285
-0.28
-0.285
-0.27
-0.265
-0.28
-0.25
-0.25
-0.26
-0.295
-0.31
-0.315
-0.29
-0.255
-0.235
-0.195
-0.15
-0.11
-0.095
-0.115
-0.15
-0.14
-0.165
-0.17
-0.175
-0.165
-0.145
-0.155
-0.175
-0.185
-0.195
-0.21
-0.225
-0.245
-0.265
-0.275
-0.27
-0.24
-0.26
-0.285
-0.31
-0.305
-0.27
-0.265
-0.285
-0.295
-0.335
-0.34
-0.305
-0.29
-0.29
-0.295
-0.29
-0.27
-0.27
-0.275
-0.29
-0.295
-0.32
-0.33
-0.32
-0.285
-0.18
0.02
0.26
0.59
0.955
1.325
1.505
1.405
1.065
0.705
0.385
0.17
0.07
0.055
-0.005
-0.07
-0.075
-0.095
-0.125
-0.155
-0.195
-0.225
-0.255
-0.27
-0.295
-0.325
-0.37
-0.38
-0.355
-0.31
-0.305
-0.325
-0.345
-0.34
-0.33
-0.335
-0.34
-0.36
-0.375
-0.37
-0.34
-0.335
-0.335
-0.365
-0.37
-0.35
-0.345
-0.345
-0.345
-0.335
-0.335
-0.35
-0.345
-0.34
-0.335
-0.355
-0.375
-0.37
-0.35
-0.31
-0.31
-0.325
-0.36
-0.39
-0.39
-0.365
-0.355
-0.355
-0.35
-0.33
-0.3
-0.295
-0.335
-0.335
-0.35
-0.34
-0.31
-0.3
-0.295
-0.3
-0.3
-0.29
-0.28
-0.28
-0.285
-0.27
-0.275
-0.25
-0.235
-0.255
-0.25
-0.24
-0.195
-0.15
-0.145
-0.14
-0.14
-0.145
-0.14
-0.14
-0.13
-0.1
-0.07
-0.065
-0.075
-0.065
-0.035
0.005
0.005
-0.025
-0.03
0
0.015
0.045
0.03
0.025
0.025
0.035
0.03
0.035
0.025
0.015
-0.005
-0.03
-0.025
-0.015
-0.025
-0.045
-0.055
-0.065
-0.085
-0.1
-0.115
-0.135
-0.15
-0.16
-0.145
-0.15
-0.165
-0.185
-0.205
-0.205
-0.185
-0.15
-0.155
-0.18
-0.205
-0.22
-0.215
-0.205
-0.195
-0.18
-0.17
-0.17
-0.18
-0.18
-0.2
-0.2
-0.2
-0.19
-0.19
-0.18
-0.18
-0.17
-0.205
-0.22
-0.21
-0.195
-0.17
-0.175
-0.185
-0.2
-0.185
-0.16
-0.155
-0.165
-0.18
-0.17
-0.175
-0.155
-0.155
-0.16
-0.175
-0.165
-0.15
-0.15
-0.165
-0.175
-0.17
-0.155
-0.145
-0.13
-0.135
-0.15
-0.165
-0.16
-0.135
-0.135
-0.14
-0.145
-0.155
-0.15
-0.14
-0.115
-0.12
-0.135
-0.145
-0.145
-0.15
-0.15
-0.165
-0.175
-0.19
-0.17
-0.14
-0.14
-0.14
-0.14
-0.155
-0.15
-0.135
-0.135
-0.14
-0.165
-0.175
-0.16
-0.14
-0.125
-0.135
-0.145
-0.17
-0.175
-0.155
-0.145
-0.125
-0.125
-0.135
-0.12
-0.13
-0.11
-0.11
-0.11
-0.125
-0.115
-0.105
-0.08
-0.05
-0.06
-0.08
-0.07
-0.045
-0.02
0.01
0.03
0.065
0.08
0.08
0.065
0.05
0.045
0.035
0.03
0.03
0.03
0.03
0.02
-0.01
-0.02
-0.025
-0.025
-0.045
-0.06
-0.07
-0.09
-0.125
-0.135
-0.13
-0.125
-0.135
-0.145
-0.145
-0.15
-0.165
-0.165
-0.185
-0.2
-0.185
-0.17
-0.16
-0.175
-0.19
-0.185
-0.18
-0.155
-0.165
-0.185
-0.22
-0.205
-0.19
-0.2
-0.235
-0.25
-0.2
-0.08
0.115
0.34
0.6
0.925
1.27
1.51
1.515
1.255
0.91
0.58
0.29
0.115
0.085
0.095
0.05
-0.035
-0.07
-0.085
-0.09
-0.135
-0.19
-0.245
-0.26
-0.225
-0.185
-0.2
-0.23
-0.27
-0.295
-0.285
-0.265
-0.235
-0.25
-0.265
-0.265
-0.265
-0.265
-0.27
-0.275
-0.27
-0.275
-0.255
-0.235
-0.24
-0.265
-0.29
-0.295
-0.28
-0.25
-0.245
-0.27
-0.29
-0.285
-0.29
-0.275
-0.265
-0.255
-0.26
-0.28
-0.295
-0.28
-0.245
-0.235
-0.25
-0.28
-0.3
-0.275
-0.255
-0.245
-0.25
-0.265
-0.255
-0.265
-0.27
-0.27
-0.26
-0.27
-0.255
-0.235
-0.235
-0.235
-0.24
-0.235
-0.225
-0.235
-0.23
-0.22
-0.2
-0.195
-0.195
-0.165
-0.155
-0.13
-0.13
-0.13
-0.12
-0.12
-0.105
-0.12
-0.1
-0.075
-0.045
-0.04
-0.035
-0.04
-0.02
0
0
0
0.005
0.015
0.03
0.035
0.055
0.035
0.065
0.06
0.05
0.045
0.055
0.065
0.065
0.045
0.015
-0.005
-0.015
-0.02
-0.04
-0.09
-0.105
-0.085
-0.075
-0.095
-0.1
-0.1
-0.105
-0.145
-0.17
-0.185
-0.195
-0.195
-0.185
-0.18
-0.19
-0.205
-0.215
-0.22
-0.22
-0.22
-0.22
-0.21
-0.22
-0.225
-0.23
-0.245
-0.25
-0.245
-0.235
-0.23
-0.235
-0.255
-0.275
-0.26
-0.255
-0.255
-0.26
-0.265
-0.245
-0.24
-0.215
-0.225
-0.235
-0.245
-0.255
-0.26
-0.25
-0.25
-0.26
-0.27
-0.265
-0.24
-0.215
-0.22
-0.245
-0.255
-0.255
-0.23
-0.23
-0.245
-0.26
-0.265
-0.245
-0.235
-0.22
-0.23
-0.24
-0.24
-0.23
-0.235
-0.25
-0.265
-0.265
-0.265
-0.25
-0.25
-0.255
-0.26
-0.235
-0.225
-0.215
-0.215
-0.23
-0.265
-0.28
-0.28
-0.26
-0.23
-0.23
-0.245
-0.26
-0.265
-0.255
-0.245
-0.25
-0.255
-0.275
-0.285
-0.285
-0.275
-0.27
-0.285
-0.285
-0.265
-0.245
-0.23
-0.255
-0.275
-0.27
-0.25
-0.235
-0.225
-0.225
-0.22
-0.23
-0.255
-0.255
-0.23
-0.22
-0.215
-0.21
-0.23
-0.23
-0.22
-0.185
-0.15
-0.13
-0.12
-0.115
-0.085
-0.065
-0.09
-0.125
-0.12
-0.055
0
0
-0.045
-0.085
-0.125
-0.13
-0.12
-0.1
-0.075
-0.09
-0.145
-0.185
-0.215
-0.23
-0.235
-0.225
-0.215
-0.21
-0.21
-0.205
-0.2
-0.205
-0.255
-0.32
-0.36
-0.31
-0.21
-0.145
-0.18
-0.215
-0.23
-0.23
-0.24
-0.26
-0.265
-0.24
-0.215
-0.2
-0.22
-0.27
-0.295
-0.28
-0.225
-0.09
0.09
0.335
0.63
0.99
1.325
1.475
1.335
1.035
0.715
0.42
0.205
0.07
0.05
0.025
-0.015
-0.04
-0.03
-0.04
-0.095
-0.155
-0.22
-0.25
-0.235
-0.195
-0.145
-0.155
-0.21
-0.25
-0.285
-0.3
-0.28
-0.25
-0.225
-0.185
-0.175
-0.18
-0.21
-0.23
-0.24
-0.19
-0.145
-0.115
-0.115
-0.14
-0.16
-0.19
-0.21
-0.245
-0.285
-0.29
-0.24
-0.165
-0.11
-0.13
-0.17
-0.2
-0.2
-0.155
-0.11
-0.075
-0.04
-0.055
-0.065
-0.12
-0.165
-0.195
-0.175
-0.09
0.02
0.115
0.1
0.025
-0.1
-0.22
-0.275
-0.235
-0.14
-0.04
-0.035
-0.105
-0.185
-0.24
-0.21
-0.075
0.115
0.215
0.105
-0.09
-0.24
-0.25
-0.09
0.155
0.25
0.15
-0.04
-0.155
-0.15
-0.105
-0.07
0.035
0.215
0.35
0.31
0.14
-0.055
-0.09
0.1
0.34
0.46
0.42
0.275
0.07
-0.075
-0.09
0.02
0.15
0.2
0.185
0.13
0.025
-0.05
-0.035
0.08
0.21
0.215
0.08
-0.13
-0.265
-0.245
-0.145
-0.05
-0.02
-0.09
-0.18
-0.14
-0.015
0.06
0.045
0.025
-0.025
-0.135
-0.29
-0.325
-0.27
-0.145
-0.025
0.04
-0.01
-0.1
-0.185
-0.255
-0.3
-0.22
-0.08
-0.045
-0.175
-0.3
-0.25
-0.075
-0.005
-0.1
-0.265
-0.355
-0.34
-0.245
-0.14
-0.105
-0.125
-0.195
-0.25
-0.26
-0.26
-0.2
-0.085
-0.025
-0.02
-0.125
-0.27
-0.37
-0.405
-0.37
-0.3
-0.22
-0.145
-0.085
-0.135
-0.27
-0.365
-0.33
-0.24
-0.225
-0.24
-0.22
-0.195
-0.17
-0.175
-0.17
-0.2
-0.285
-0.36
-0.395
-0.365
-0.275
-0.18
-0.14
-0.18
-0.235
-0.265
-0.285
-0.335
-0.39
-0.385
-0.315
-0.215
-0.165
-0.19
-0.285
-0.37
-0.39
-0.345
-0.285
-0.23
-0.175
-0.13
-0.14
-0.215
-0.305
-0.35
-0.35
-0.32
-0.305
-0.285
-0.225
-0.16
-0.11
-0.085
-0.09
-0.085
-0.085
-0.09
-0.09
-0.105
-0.13
-0.125
-0.11
-0.11
-0.14
-0.2
-0.225
-0.205
-0.175
-0.175
-0.19
-0.225
-0.255
-0.29
-0.295
-0.295
-0.31
-0.32
-0.315
-0.315
-0.3
-0.3
-0.305
-0.3
-0.3
-0.295
-0.3
-0.32
-0.33
-0.315
-0.315
-0.305
-0.3
-0.305
-0.335
-0.375
-0.41
-0.425
-0.395
-0.325
-0.225
-0.05
0.17
0.465
0.82
1.14
1.31
1.205
0.9
0.555
0.315
0.145
0.04
-0.05
-0.195
-0.3
-0.3
-0.25
-0.235
-0.26
-0.27
-0.285
-0.3
-0.295
-0.315
-0.34
-0.385
-0.395
-0.405
-0.38
-0.375
-0.37
-0.365
-0.36
-0.36
-0.35
-0.34
-0.345
-0.36
-0.38
-0.38
-0.375
-0.365
-0.325
-0.34
-0.355
-0.35
-0.35
-0.335
-0.34
-0.35
-0.345
-0.335
-0.34
-0.36
-0.375
-0.4
-0.385
-0.355
-0.345
-0.335
-0.35
-0.345
-0.345
-0.335
-0.345
-0.35
-0.365
-0.365
-0.355
-0.35
-0.35
-0.34
-0.335
-0.325
-0.32
-0.305
-0.295
-0.305
-0.32
-0.35
-0.34
-0.31
-0.265
-0.26
-0.27
-0.28
-0.275
-0.295
-0.265
-0.24
-0.225
-0.21
-0.21
-0.21
-0.19
-0.18
-0.17
-0.165
-0.145
-0.145
-0.14
-0.135
-0.14
-0.15
-0.14
-0.11
-0.085
-0.09
-0.1
-0.125
-0.125
-0.1
-0.09
-0.095
-0.115
-0.12
-0.14
-0.15
-0.16
-0.165
-0.175
-0.205
-0.245
-0.25
-0.25
-0.25
-0.27
-0.285
-0.3
-0.285
-0.275
-0.29
-0.295
-0.335
-0.35
-0.335
-0.3
-0.285
-0.295
-0.33
-0.36
-0.355
-0.33
-0.31
-0.305
-0.315
-0.325
-0.345
-0.305
-0.295
-0.3
-0.32
-0.325
-0.325
-0.31
-0.325
-0.325
-0.34
-0.325
-0.31
-0.275
-0.29
-0.31
-0.325
-0.31
-0.295
-0.275
-0.26
-0.255
-0.27
-0.29
-0.27
-0.255
-0.275
-0.305
-0.305
-0.295
-0.29
-0.27
-0.265
-0.285
-0.285
-0.29
-0.29
-0.295
-0.29
-0.285
-0.3
-0.285
-0.27
-0.245
-0.275
-0.295
-0.305
-0.31
-0.315
-0.3
-0.305
-0.29
-0.29
-0.295
-0.29
-0.275
-0.285
-0.29
-0.31
-0.315
-0.305
-0.29
-0.28
-0.285
-0.27
-0.275
-0.26
-0.25
-0.265
-0.275
-0.27
-0.27
-0.265
-0.245
-0.23
-0.22
-0.195
-0.175
-0.14
-0.11
-0.09
-0.09
-0.11
-0.135
-0.13
-0.11
-0.135
-0.155
-0.16
-0.18
-0.175
-0.17
-0.2
-0.2
-0.215
-0.24
-0.26
-0.25
-0.265
-0.29
-0.29
-0.305
-0.305
-0.295
-0.305
-0.315
-0.32
-0.335
-0.33
-0.32
-0.32
-0.31
-0.33
-0.345
-0.355
-0.325
-0.315
-0.315
-0.35
-0.36
-0.39
-0.41
-0.42
-0.395
-0.28
-0.07
0.2
0.495
0.85
1.13
1.235
1.09
0.785
0.48
0.225
0.02
-0.085
-0.19
-0.275
-0.305
-0.295
-0.295
-0.32
-0.335
-0.35
-0.37
-0.395
-0.405
-0.415
-0.425
-0.415
-0.405
-0.39
-0.405
-0.42
-0.43
-0.42
-0.4
-0.405
-0.405
-0.425
-0.435
-0.42
-0.43
-0.43
-0.43
-0.425
-0.42
-0.425
-0.42
-0.415
-0.415
-0.43
-0.425
-0.42
-0.405
-0.41
-0.42
-0.43
-0.42
-0.41
-0.4
-0.41
-0.415
-0.425
-0.425
-0.425
-0.41
-0.42
-0.425
-0.425
-0.41
-0.4
-0.405
-0.415
-0.41
-0.415
-0.405
-0.395
-0.36
-0.36
-0.365
-0.37
-0.37
-0.365
-0.36
-0.355
-0.35
-0.34
-0.35
-0.33
-0.305
-0.295
-0.3
-0.295
-0.295
-0.28
-0.255
-0.245
-0.24
-0.235
-0.23
-0.205
-0.18
-0.19
-0.185
-0.175
-0.165
-0.145
-0.145
-0.135
-0.145
-0.155
-0.155
-0.14
-0.125
-0.125
-0.125
-0.15
-0.155
-0.175
-0.17
-0.19
-0.195
-0.21
-0.22
-0.21
-0.205
-0.23
-0.265
-0.28
-0.295
-0.28
-0.27
-0.27
-0.275
-0.31
-0.315
-0.31
-0.31
-0.31
-0.32
-0.33
-0.33
-0.33
-0.325
-0.32
-0.325
-0.34
-0.34
-0.345
-0.325
-0.32
-0.33
-0.345
-0.35
-0.34
-0.305
-0.305
-0.32
-0.335
-0.335
-0.32
-0.295
-0.305
-0.3
-0.31
-0.33
-0.305
-0.295
-0.315
-0.31
-0.315
-0.315
-0.295
-0.28
-0.28
-0.295
-0.295
-0.3
-0.28
-0.28
-0.28
-0.29
-0.29
-0.295
-0.28
-0.27
-0.275
-0.285
-0.3
-0.3
-0.3
-0.29
-0.29
-0.29
-0.3
-0.315
-0.3
-0.29
-0.275
-0.295
-0.305
-0.315
-0.31
-0.29
-0.29
-0.285
-0.3
-0.305
-0.295
-0.285
-0.29
-0.295
-0.295
-0.3
-0.295
-0.28
-0.27
-0.275
-0.28
-0.28
-0.275
-0.265
-0.26
-0.255
-0.25
-0.26
-0.24
-0.235
-0.235
-0.235
-0.21
-0.18
-0.165
-0.12
-0.1
-0.105
-0.115
-0.14
-0.15
-0.135
-0.13
-0.145
-0.165
-0.195
-0.185
-0.18
-0.18
-0.2
-0.205
-0.21
-0.21
-0.235
-0.26
-0.28
-0.3
-0.29
-0.295
-0.29
-0.29
-0.31
-0.325
-0.32
-0.32
-0.3
-0.29
-0.295
-0.32
-0.32
-0.315
-0.31
-0.31
-0.315
-0.32
-0.335
-0.34
-0.345
-0.375
-0.405
-0.415
-0.395
-0.285
-0.085
0.16
0.415
0.715
1
1.2
1.18
0.92
0.63
0.37
0.145
-0.015
-0.08
-0.14
-0.21
-0.25
-0.245
-0.265
-0.29
-0.3
-0.33
-0.365
-0.395
-0.385
-0.385
-0.4
-0.4
-0.405
-0.41
-0.405
-0.4
-0.4
-0.395
-0.4
-0.43
-0.415
-0.395
-0.39
-0.395
-0.405
-0.405
-0.415
-0.4
-0.41
-0.415
-0.41
-0.415
-0.405
-0.39
-0.395
-0.405
-0.415
-0.42
-0.405
-0.395
-0.395
-0.4
-0.405
-0.405
-0.39
-0.385
-0.39
-0.395
-0.395
-0.41
-0.405
-0.385
-0.38
-0.395
-0.4
-0.41
-0.39
-0.385
-0.38
-0.385
-0.385
-0.375
-0.355
-0.33
-0.32
-0.34
-0.345
-0.35
-0.335
-0.315
-0.32
-0.32
-0.305
-0.295
-0.275
-0.265
-0.25
-0.25
-0.245
-0.235
-0.215
-0.2
-0.2
-0.195
-0.19
-0.18
-0.17
-0.135
-0.13
-0.12
-0.125
-0.115
-0.095
-0.09
-0.11
-0.11
-0.105
-0.09
-0.08
-0.085
-0.095
-0.115
-0.12
-0.13
-0.125
-0.125
-0.145
-0.165
-0.2
-0.205
-0.215
-0.2
-0.215
-0.245
-0.26
-0.275
-0.27
-0.265
-0.275
-0.29
-0.29
-0.305
-0.305
-0.29
-0.29
-0.31
-0.33
-0.335
-0.315
-0.3
-0.3
-0.32
-0.33
-0.33
-0.315
-0.32
-0.315
-0.33
-0.34
-0.335
-0.335
-0.325
-0.33
-0.33
-0.32
-0.32
-0.315
-0.32
-0.315
-0.315
-0.32
-0.315
-0.305
-0.31
-0.315
-0.31
-0.295
-0.315
-0.31
-0.3
-0.305
-0.31
-0.3
-0.31
-0.3
-0.3
-0.3
-0.285
-0.3
-0.295
-0.29
-0.285
-0.3
-0.285
-0.295
-0.305
-0.3
-0.28
-0.265
-0.28
-0.285
-0.295
-0.29
-0.285
-0.285
-0.3
-0.295
-0.295
-0.275
-0.28
-0.275
-0.285
-0.285
-0.295
-0.29
-0.285
-0.275
-0.29
-0.3
-0.295
-0.29
-0.29
-0.28
-0.29
-0.295
-0.29
-0.285
-0.27
-0.275
-0.28
-0.295
-0.285
-0.27
-0.25
-0.255
-0.255
-0.265
-0.265
-0.265
-0.235
-0.24
-0.24
-0.22
-0.195
-0.155
-0.12
-0.11
-0.1
-0.1
-0.12
-0.105
-0.105
-0.12
-0.135
-0.17
-0.17
-0.17
-0.16
-0.16
-0.175
-0.185
-0.22
-0.24
-0.245
-0.26
-0.265
-0.275
-0.285
-0.29
-0.29
-0.29
-0.295
-0.305
-0.32
-0.32
-0.3
-0.3
-0.3
-0.305
-0.325
-0.325
-0.31
-0.315
-0.325
-0.325
-0.335
-0.33
-0.345
-0.37
-0.37
-0.35
-0.24
-0.05
0.19
0.455
0.775
1.065
1.215
1.105
0.815
0.515
0.255
0.035
-0.055
-0.08
-0.105
-0.14
-0.175
-0.2
-0.235
-0.265
-0.3
-0.34
-0.375
-0.385
-0.39
-0.385
-0.385
-0.385
-0.39
-0.395
-0.4
-0.4
-0.395
-0.395
-0.39
-0.395
-0.415
-0.415
-0.38
-0.39
-0.39
-0.4
-0.4
-0.39
-0.39
-0.395
-0.405
-0.41
-0.405
-0.395
-0.38
-0.39
-0.39
-0.38
-0.395
-0.39
-0.375
-0.375
-0.385
-0.41
-0.415
-0.385
-0.37
-0.37
-0.405
-0.4
-0.4
-0.38
-0.375
-0.365
-0.36
-0.375
-0.385
-0.365
-0.355
-0.35
-0.355
-0.355
-0.35
-0.325
-0.33
-0.33
-0.305
-0.305
-0.305
-0.3
-0.29
-0.275
-0.265
-0.275
-0.26
-0.255
-0.225
-0.21
-0.205
-0.205
-0.185
-0.17
-0.15
-0.15
-0.145
-0.145
-0.14
-0.125
-0.105
-0.1
-0.095
-0.095
-0.1
-0.095
-0.105
-0.085
-0.09
-0.105
-0.125
-0.135
-0.135
-0.145
-0.17
-0.185
-0.205
-0.21
-0.205
-0.21
-0.25
-0.26
-0.27
-0.26
-0.255
-0.27
-0.285
-0.3
-0.315
-0.305
-0.29
-0.285
-0.295
-0.32
-0.315
-0.305
-0.31
-0.315
-0.335
-0.34
-0.34
-0.32
-0.32
-0.315
-0.325
-0.35
-0.345
-0.335
-0.335
-0.335
-0.335
-0.345
-0.35
-0.345
-0.33
-0.33
-0.32
-0.335
-0.345
-0.355
-0.33
-0.345
-0.325
-0.335
-0.335
-0.33
-0.305
-0.305
-0.32
-0.33
-0.335
-0.34
-0.325
-0.335
-0.33
-0.33
-0.335
-0.345
-0.305
-0.315
-0.325
-0.335
-0.345
-0.33
-0.305
-0.315
-0.33
-0.34
-0.34
-0.34
-0.325
-0.31
-0.32
-0.335
-0.33
-0.33
-0.32
-0.32
-0.335
-0.34
-0.34
-0.32
-0.325
-0.335
-0.335
-0.325
-0.33
-0.335
-0.31
-0.325
-0.33
-0.325
-0.345
-0.34
-0.335
-0.32
-0.33
-0.33
-0.34
-0.33
-0.325
-0.335
-0.31
-0.305
-0.32
-0.325
-0.305
-0.305
-0.3
-0.305
-0.3
-0.3
-0.285
-0.28
-0.295
-0.28
-0.25
-0.215
-0.185
-0.155
-0.145
-0.145
-0.155
-0.14
-0.15
-0.16
-0.17
-0.19
-0.205
-0.195
-0.205
-0.21
-0.235
-0.245
-0.26
-0.275
-0.28
-0.28
-0.305
-0.325
-0.33
-0.335
-0.325
-0.34
-0.355
-0.35
-0.35
-0.34
-0.335
-0.35
-0.375
-0.38
-0.38
-0.37
-0.365
-0.38
-0.38
-0.385
-0.395
-0.385
-0.375
-0.38
-0.39
-0.42
-0.445
-0.425
-0.39
-0.27
-0.1
0.11
0.375
0.705
0.995
1.115
0.985
0.69
0.385
0.155
-0.01
-0.095
-0.135
-0.185
-0.23
-0.235
-0.26
-0.29
-0.33
-0.385
-0.425
-0.445
-0.44
-0.44
-0.44
-0.445
-0.47
-0.455
-0.46
-0.465
-0.475
-0.485
-0.485
-0.465
-0.455
-0.46
-0.475
-0.48
-0.485
-0.475
-0.46
-0.46
-0.475
-0.47
-0.47
-0.465
-0.465
-0.465
-0.465
-0.455
-0.47
-0.47
-0.46
-0.45
-0.46
-0.475
-0.49
-0.475
-0.45
-0.455
-0.465
-0.47
-0.485
-0.46
-0.46
-0.475
-0.475
-0.465
-0.465
-0.445
-0.45
-0.45
-0.445
-0.445
-0.45
-0.45
-0.425
-0.41
-0.42
-0.41
-0.415
-0.405
-0.4
-0.39
-0.375
-0.375
-0.38
-0.365
-0.335
-0.335
-0.33
-0.325
-0.335
-0.32
-0.285
-0.265
-0.26
-0.26
-0.255
-0.23
-0.21
-0.21
-0.205
-0.205
-0.205
-0.175
-0.165
-0.17
-0.165
-0.17
-0.175
-0.17
-0.175
-0.18
-0.185
-0.2
-0.205
-0.2
-0.2
-0.205
-0.235
-0.255
-0.285
-0.285
-0.27
-0.285
-0.295
-0.315
-0.325
-0.32
-0.33
-0.33
-0.335
-0.355
-0.355
-0.35
-0.345
-0.35
-0.36
-0.375
-0.375
-0.37
-0.365
-0.36
-0.37
-0.39
-0.4
-0.38
-0.37
-0.36
-0.36
-0.385
-0.385
-0.375
-0.365
-0.365
-0.37
-0.37
-0.38
-0.37
-0.365
-0.36
-0.37
-0.38
-0.375
-0.36
-0.35
-0.35
-0.355
-0.375
-0.38
-0.38
-0.355
-0.345
-0.355
-0.355
-0.355
-0.35
-0.345
-0.345
-0.35
-0.36
-0.355
-0.355
-0.345
-0.345
-0.34
-0.35
-0.355
-0.35
-0.345
-0.335
-0.335
-0.34
-0.35
-0.345
-0.33
-0.335
-0.34
-0.345
-0.355
-0.37
-0.35
-0.34
-0.345
-0.345
-0.35
-0.345
-0.34
-0.335
-0.345
-0.355
-0.355
-0.35
-0.325
-0.325
-0.33
-0.33
-0.34
-0.335
-0.33
-0.335
-0.335
-0.34
-0.345
-0.355
-0.34
-0.32
-0.31
-0.315
-0.325
-0.31
-0.31
-0.3
-0.315
-0.32
-0.32
-0.305
-0.285
-0.28
-0.28
-0.29
-0.3
-0.285
-0.26
-0.23
-0.205
-0.195
-0.18
-0.155
-0.125
-0.12
-0.135
-0.15
-0.165
-0.15
-0.145
-0.15
-0.175
-0.18
-0.195
-0.2
-0.19
-0.205
-0.22
-0.24
-0.26
-0.26
-0.265
-0.28
-0.3
-0.31
-0.315
-0.31
-0.315
-0.315
-0.325
-0.325
-0.345
-0.32
-0.315
-0.32
-0.33
-0.33
-0.33
-0.33
-0.33
-0.33
-0.34
-0.345
-0.34
-0.325
-0.32
-0.325
-0.335
-0.365
-0.4
-0.36
-0.245
-0.08
0.13
0.355
0.62
0.9
1.105
1.095
0.885
0.625
0.385
0.185
0.02
-0.05
-0.11
-0.16
-0.205
-0.19
-0.205
-0.22
-0.255
-0.28
-0.32
-0.35
-0.365
-0.375
-0.375
-0.39
-0.415
-0.4
-0.38
-0.38
-0.395
-0.395
-0.41
-0.415
-0.4
-0.405
-0.39
-0.425
-0.42
-0.395
-0.38
-0.385
-0.39
-0.395
-0.395
-0.39
-0.38
-0.39
-0.38
-0.385
-0.39
-0.365
-0.375
-0.38
-0.385
-0.4
-0.395
-0.39
-0.365
-0.365
-0.37
-0.38
-0.39
-0.385
-0.38
-0.365
-0.36
-0.37
-0.385
-0.38
-0.36
-0.355
-0.34
-0.355
-0.355
-0.355
-0.355
-0.33
-0.33
-0.32
-0.32
-0.31
-0.305
-0.295
-0.295
-0.285
-0.29
-0.275
-0.255
-0.25
-0.24
-0.24
-0.235
-0.23
-0.215
-0.19
-0.185
-0.19
-0.185
-0.175
-0.145
-0.135
-0.145
-0.14
-0.14
-0.12
-0.105
-0.095
-0.095
-0.1
-0.095
-0.07
-0.06
-0.065
-0.075
-0.075
-0.1
-0.1
-0.095
-0.1
-0.115
-0.13
-0.135
-0.12
-0.125
-0.14
-0.17
-0.19
-0.19
-0.185
-0.18
-0.2
-0.21
-0.235
-0.245
-0.215
-0.215
-0.23
-0.245
-0.255
-0.265
-0.24
-0.245
-0.235
-0.235
-0.25
-0.25
-0.24
-0.235
-0.25
-0.26
-0.26
-0.27
-0.265
-0.25
-0.265
-0.27
-0.265
-0.265
-0.245
-0.235
-0.25
-0.24
-0.245
-0.26
-0.25
-0.245
-0.23
-0.24
-0.25
-0.26
-0.24
-0.23
-0.235
-0.23
-0.23
-0.255
-0.26
-0.24
-0.23
-0.24
-0.225
-0.23
-0.23
-0.225
-0.235
-0.225
-0.215
-0.22
-0.205
-0.21
-0.2
-0.21
-0.22
-0.225
-0.225
-0.205
-0.205
-0.22
-0.21
-0.21
-0.21
-0.2
-0.2
-0.205
-0.2
-0.205
-0.19
-0.185
-0.18
-0.19
-0.19
-0.21
-0.195
-0.185
-0.18
-0.19
-0.195
-0.205
-0.19
-0.17
-0.17
-0.165
-0.19
-0.195
-0.195
-0.19
-0.185
-0.18
-0.19
-0.19
-0.19
-0.18
-0.17
-0.175
-0.175
-0.17
-0.175
-0.155
-0.145
-0.17
-0.175
-0.165
-0.16
-0.14
-0.12
-0.125
-0.14
-0.14
-0.13
-0.1
-0.065
-0.045
-0.01
0
0.015
0.015
0
-0.01
-0.015
-0.035
-0.05
-0.045
-0.045
-0.05
-0.065
-0.09
-0.08
-0.07
-0.07
-0.09
-0.115
-0.145
-0.155
-0.15
-0.14
-0.15
-0.165
-0.175
-0.17
-0.17
-0.165
-0.175
-0.2
-0.185
-0.18
-0.175
-0.18
-0.195
-0.2
-0.21
-0.195
-0.165
-0.17
-0.175
-0.195
-0.215
-0.235
-0.25
-0.245
-0.255
-0.23
-0.14
0.05
0.255
0.495
0.76
1.035
1.225
1.255
1.085
0.835
0.59
0.37
0.185
0.105
0.06
0.005
-0.06
-0.055
-0.07
-0.09
-0.105
-0.135
-0.185
-0.215
-0.23
-0.22
-0.22
-0.215
-0.245
-0.255
-0.255
-0.26
-0.255
-0.255
-0.26
-0.27
-0.275
-0.25
-0.24
-0.245
-0.255
-0.26
-0.275
-0.27
-0.26
-0.255
-0.25
-0.25
-0.255
-0.25
-0.235
-0.235
-0.24
-0.25
-0.265
-0.26
-0.25
-0.245
-0.25
-0.255
-0.26
-0.25
-0.23
-0.215
-0.23
-0.23
-0.25
-0.235
-0.235
-0.245
-0.245
-0.255
-0.245
-0.23
-0.21
-0.2
-0.215
-0.22
-0.225
-0.23
-0.215
-0.2
-0.185
-0.19
-0.195
-0.19
-0.18
-0.165
-0.155
-0.16
-0.16
-0.15
-0.135
-0.115
-0.11
-0.11
-0.11
-0.1
-0.07
-0.055
-0.04
-0.05
-0.05
-0.04
-0.02
0
0
0.005
0
0.02
0.03
0.035
0.01
0.025
0.03
0.045
0.06
0.06
0.06
0.035
0.04
0.045
0.045
0.035
0.015
-0.005
-0.025
-0.03
-0.02
-0.05
-0.065
-0.065
-0.08
-0.075
-0.085
-0.11
-0.11
-0.125
-0.135
-0.145
-0.135
-0.12
-0.13
-0.135
-0.15
-0.16
-0.16
-0.15
-0.15
-0.15
-0.145
-0.145
-0.155
-0.155
-0.16
-0.17
-0.175
-0.175
-0.16
-0.145
-0.16
-0.16
-0.18
-0.165
-0.155
-0.15
-0.16
-0.18
-0.17
-0.175
-0.165
-0.15
-0.14
-0.14
-0.155
-0.18
-0.16
-0.145
-0.13
-0.135
-0.155
-0.155
-0.14
-0.13
-0.14
-0.14
-0.15
-0.15
-0.135
-0.135
-0.135
-0.135
-0.145
-0.145
-0.13
-0.12
-0.135
-0.145
-0.145
-0.14
-0.125
-0.135
-0.135
-0.14
-0.16
-0.15
-0.145
-0.13
-0.135
-0.145
-0.16
-0.145
-0.13
-0.115
-0.115
-0.12
-0.12
-0.13
-0.125
-0.145
-0.14
-0.135
-0.135
-0.14
-0.13
-0.125
-0.115
-0.125
-0.135
-0.14
-0.13
-0.125
-0.125
-0.135
-0.135
-0.13
-0.13
-0.125
-0.115
-0.115
-0.12
-0.115
-0.105
-0.1
-0.1
-0.095
-0.11
-0.115
-0.09
-0.07
-0.045
-0.03
-0.025
0.01
0.015
0.04
0.03
0.01
-0.005
-0.01
0
-0.005
-0.015
-0.02
-0.04
-0.06
-0.06
-0.065
-0.07
-0.095
-0.105
-0.12
-0.11
-0.13
-0.15
-0.16
-0.18
-0.17
-0.16
-0.16
-0.16
-0.185
-0.205
-0.2
-0.17
-0.17
-0.18
-0.195
-0.21
-0.2
-0.2
-0.19
-0.19
-0.19
-0.2
-0.195
-0.215
-0.24
-0.265
-0.25
-0.255
-0.2
-0.06
0.12
0.325
0.575
0.875
1.14
1.225
1.11
0.835
0.58
0.35
0.18
0.08
0.065
0.025
-0.025
-0.07
-0.07
-0.095
-0.11
-0.16
-0.2
-0.235
-0.25
-0.235
-0.24
-0.24
-0.255
-0.255
-0.265
-0.26
-0.265
-0.255
-0.255
-0.28
-0.28
-0.28
-0.275
-0.27
-0.27
-0.28
-0.275
-0.285
-0.275
-0.28
-0.28
-0.29
-0.275
-0.27
-0.255
-0.26
-0.27
-0.295
-0.29
-0.275
-0.255
-0.245
-0.265
-0.28
-0.265
-0.28
-0.28
-0.27
-0.28
-0.28
-0.285
-0.275
-0.265
-0.265
-0.27
-0.29
-0.27
-0.255
-0.245
-0.25
-0.25
-0.275
-0.26
-0.245
-0.225
-0.24
-0.245
-0.25
-0.245
-0.23
-0.22
-0.225
-0.22
-0.205
-0.185
-0.17
-0.175
-0.18
-0.18
-0.17
-0.155
-0.135
-0.12
-0.12
-0.12
-0.12
-0.095
-0.075
-0.07
-0.07
-0.065
-0.065
-0.045
-0.035
-0.025
-0.015
-0.015
-0.015
-0.02
-0.01
-0.005
0.01
0
-0.01
-0.01
-0.015
-0.025
-0.02
-0.03
-0.05
-0.065
-0.075
-0.075
-0.085
-0.105
-0.125
-0.12
-0.12
-0.125
-0.15
-0.16
-0.18
-0.185
-0.175
-0.17
-0.175
-0.195
-0.21
-0.21
-0.21
-0.205
-0.21
-0.215
-0.215
-0.205
-0.205
-0.2
-0.21
-0.235
-0.235
-0.225
-0.215
-0.21
-0.225
-0.225
-0.24
-0.225
-0.22
-0.21
-0.215
-0.22
-0.22
-0.23
-0.225
-0.215
-0.205
-0.21
-0.205
-0.215
-0.195
-0.19
-0.185
-0.195
-0.22
-0.225
-0.21
-0.195
-0.19
-0.205
-0.215
-0.205
-0.2
-0.2
-0.195
-0.215
-0.225
-0.225
-0.205
-0.205
-0.2
-0.215
-0.22
-0.22
-0.22
-0.21
-0.23
-0.23
-0.24
-0.215
-0.215
-0.22
-0.225
-0.225
-0.235
-0.22
-0.205
-0.205
-0.21
-0.225
-0.245
-0.235
-0.235
-0.225
-0.22
-0.225
-0.23
-0.225
-0.215
-0.2
-0.215
-0.225
-0.24
-0.235
-0.235
-0.225
-0.24
-0.22
-0.2
-0.195
-0.2
-0.195
-0.19
-0.19
-0.195
-0.195
-0.19
-0.19
-0.165
-0.16
-0.15
-0.11
-0.065
-0.04
-0.04
-0.05
-0.07
-0.07
-0.075
-0.05
-0.075
-0.095
-0.105
-0.11
-0.11
-0.115
-0.135
-0.15
-0.17
-0.18
-0.19
-0.21
-0.235
-0.24
-0.23
-0.24
-0.225
-0.23
-0.23
-0.245
-0.27
-0.255
-0.26
-0.255
-0.27
-0.27
-0.27
-0.26
-0.255
-0.265
-0.275
-0.275
-0.275
-0.28
-0.295
-0.305
-0.32
-0.345
-0.34
-0.305
-0.175
0.005
0.215
0.455
0.755
1.01
1.075
0.91
0.625
0.36
0.16
0.035
-0.005
-0.045
-0.105
-0.13
-0.155
-0.175
-0.205
-0.235
-0.275
-0.32
-0.35
-0.34
-0.325
-0.325
-0.33
-0.35
-0.37
-0.36
-0.345
-0.345
-0.35
-0.36
-0.375
-0.37
-0.36
-0.36
-0.365
-0.375
-0.375
-0.385
-0.365
-0.36
-0.355
-0.365
-0.38
-0.375
-0.36
-0.355
-0.355
-0.345
-0.375
-0.37
-0.355
-0.345
-0.355
-0.375
-0.38
-0.35
-0.35
-0.345
-0.355
-0.38
-0.375
-0.375
-0.355
-0.35
-0.36
-0.36
-0.36
-0.365
-0.35
-0.32
-0.325
-0.335
-0.35
-0.335
-0.32
-0.305
-0.32
-0.34
-0.36
-0.33
-0.31
-0.29
-0.285
-0.275
-0.275
-0.27
-0.27
-0.255
-0.225
-0.225
-0.24
-0.21
-0.19
-0.175
-0.17
-0.18
-0.18
-0.16
-0.14
-0.125
-0.12
-0.125
-0.13
-0.12
-0.105
-0.085
-0.1
-0.1
-0.13
-0.12
-0.11
-0.115
-0.125
-0.15
-0.17
-0.17
-0.15
-0.155
-0.175
-0.205
-0.225
-0.225
-0.23
-0.245
-0.25
-0.255
-0.28
-0.29
-0.29
-0.265
-0.26
-0.285
-0.285
-0.285
-0.275
-0.29
-0.3
-0.32
-0.305
-0.3
-0.29
-0.29
-0.285
-0.3
-0.31
-0.325
-0.315
-0.29
-0.28
-0.29
-0.305
-0.305
-0.285
-0.285
-0.285
-0.295
-0.3
-0.295
-0.295
-0.275
-0.285
-0.275
-0.28
-0.275
-0.27
-0.27
-0.265
-0.29
-0.285
-0.28
-0.255
-0.255
-0.26
-0.28
-0.28
-0.265
-0.26
-0.26
-0.275
-0.27
-0.265
-0.265
-0.265
-0.25
-0.26
-0.27
-0.28
-0.275
-0.265
-0.26
-0.27
-0.27
-0.295
-0.3
-0.285
-0.265
-0.265
-0.28
-0.29
-0.285
-0.275
-0.26
-0.27
-0.27
-0.275
-0.28
-0.265
-0.27
-0.275
-0.275
-0.295
-0.28
-0.275
-0.27
-0.27
-0.265
-0.285
-0.29
-0.26
-0.25
-0.25
-0.26
-0.26
-0.26
-0.26
-0.24
-0.235
-0.24
-0.26
-0.255
-0.22
-0.185
-0.16
-0.135
-0.12
-0.105
-0.11
-0.115
-0.135
-0.14
-0.15
-0.15
-0.135
-0.145
-0.165
-0.19
-0.215
-0.2
-0.195
-0.2
-0.22
-0.245
-0.28
-0.285
-0.27
-0.27
-0.29
-0.305
-0.305
-0.295
-0.295
-0.29
-0.295
-0.305
-0.32
-0.325
-0.31
-0.305
-0.31
-0.33
-0.34
-0.335
-0.325
-0.325
-0.33
-0.365
-0.385
-0.355
-0.235
-0.035
0.215
0.485
0.785
1.025
1.015
0.795
0.505
0.24
0.05
-0.04
-0.095
-0.14
-0.16
-0.18
-0.215
-0.25
-0.28
-0.3
-0.335
-0.36
-0.4
-0.385
-0.365
-0.355
-0.365
-0.375
-0.39
-0.395
-0.375
-0.37
-0.365
-0.385
-0.395
-0.39
-0.375
-0.35
-0.35
-0.37
-0.385
-0.395
-0.385
-0.385
-0.375
-0.375
-0.4
-0.395
-0.38
-0.355
-0.355
-0.375
-0.39
-0.385
-0.375
-0.36
-0.365
-0.375
-0.38
-0.385
-0.38
-0.375
-0.375
-0.365
-0.375
-0.37
-0.355
-0.36
-0.37
-0.365
-0.365
-0.35
-0.345
-0.335
-0.33
-0.33
-0.335
-0.335
-0.315
-0.3
-0.31
-0.325
-0.325
-0.305
-0.285
-0.285
-0.275
-0.27
-0.27
-0.25
-0.23
-0.225
-0.225
-0.215
-0.205
-0.19
-0.185
-0.185
-0.17
-0.16
-0.155
-0.15
-0.13
-0.12
-0.11
-0.105
-0.125
-0.12
-0.095
-0.08
-0.08
-0.095
-0.12
-0.135
-0.13
-0.115
-0.135
-0.16
-0.17
-0.18
-0.175
-0.185
-0.21
-0.245
-0.245
-0.235
-0.24
-0.235
-0.245
-0.26
-0.275
-0.27
-0.26
-0.27
-0.27
-0.28
-0.29
-0.295
-0.28
-0.28
-0.28
-0.275
-0.295
-0.305
-0.305
-0.305
-0.305
-0.3
-0.305
-0.315
-0.3
-0.285
-0.275
-0.295
-0.31
-0.31
-0.3
-0.285
-0.29
-0.295
-0.295
-0.295
-0.3
-0.295
-0.285
-0.29
-0.305
-0.295
-0.28
-0.28
-0.29
-0.29
-0.295
-0.29
-0.27
-0.27
-0.27
-0.28
-0.285
-0.28
-0.275
-0.255
-0.275
-0.285
-0.295
-0.285
-0.265
-0.27
-0.275
-0.27
-0.28
-0.28
-0.275
-0.255
-0.245
-0.255
-0.275
-0.275
-0.28
-0.275
-0.27
-0.26
-0.275
-0.275
-0.265
-0.26
-0.265
-0.275
-0.285
-0.285
-0.28
-0.265
-0.265
-0.28
-0.285
-0.28
-0.27
-0.26
-0.265
-0.265
-0.27
-0.27
-0.26
-0.25
-0.255
-0.245
-0.245
-0.265
-0.255
-0.235
-0.24
-0.245
-0.255
-0.24
-0.21
-0.175
-0.155
-0.145
-0.12
-0.115
-0.11
-0.115
-0.12
-0.13
-0.145
-0.155
-0.16
-0.185
-0.19
-0.2
-0.215
-0.21
-0.205
-0.215
-0.245
-0.285
-0.3
-0.29
-0.285
-0.285
-0.3
-0.315
-0.325
-0.32
-0.31
-0.305
-0.32
-0.33
-0.345
-0.34
-0.33
-0.33
-0.34
-0.345
-0.345
-0.345
-0.335
-0.36
-0.38
-0.395
-0.41
-0.355
-0.205
0.015
0.275
0.56
0.845
1.025
0.985
0.74
0.46
0.19
0
-0.085
-0.115
-0.16
-0.19
-0.21
-0.255
-0.285
-0.32
-0.34
-0.375
-0.395
-0.4
-0.41
-0.4
-0.395
-0.395
-0.415
-0.43
-0.415
-0.42
-0.405
-0.42
-0.43
-0.435
-0.42
-0.4
-0.4
-0.41
-0.415
-0.425
-0.415
-0.415
-0.415
-0.41
-0.405
-0.415
-0.415
-0.425
-0.41
-0.4
-0.4
-0.405
-0.415
-0.42
-0.415
-0.41
-0.42
-0.425
-0.4
-0.4
-0.395
-0.405
-0.41
-0.415
-0.425
-0.4
-0.39
-0.375
-0.395
-0.405
-0.39
-0.395
-0.4
-0.37
-0.355
-0.36
-0.355
-0.35
-0.345
-0.33
-0.34
-0.35
-0.335
-0.31
-0.3
-0.28
-0.28
-0.275
-0.255
-0.24
-0.235
-0.22
-0.22
-0.215
-0.205
-0.19
-0.17
-0.165
-0.165
-0.16
-0.14
-0.13
-0.12
-0.13
-0.135
-0.15
-0.14
-0.12
-0.1
-0.115
-0.13
-0.145
-0.16
-0.165
-0.165
-0.195
-0.21
-0.22
-0.225
-0.235
-0.235
-0.245
-0.275
-0.29
-0.3
-0.3
-0.305
-0.305
-0.31
-0.33
-0.325
-0.325
-0.315
-0.315
-0.315
-0.335
-0.34
-0.335
-0.345
-0.33
-0.34
-0.355
-0.335
-0.34
-0.33
-0.34
-0.33
-0.345
-0.345
-0.34
-0.345
-0.335
-0.335
-0.345
-0.35
-0.345
-0.34
-0.355
-0.345
-0.355
-0.35
-0.33
-0.34
-0.33
-0.33
-0.33
-0.315
-0.315
-0.315
-0.325
-0.34
-0.36
-0.33
-0.325
-0.305
-0.305
-0.31
-0.33
-0.335
-0.32
-0.315
-0.315
-0.31
-0.315
-0.315
-0.31
-0.31
-0.31
-0.315
-0.32
-0.325
-0.315
-0.315
-0.31
-0.325
-0.33
-0.32
-0.305
-0.295
-0.31
-0.32
-0.33
-0.33
-0.315
-0.305
-0.31
-0.305
-0.31
-0.31
-0.31
-0.305
-0.3
-0.305
-0.315
-0.315
-0.31
-0.295
-0.3
-0.295
-0.315
-0.31
-0.3
-0.29
-0.275
-0.275
-0.3
-0.285
-0.27
-0.255
-0.265
-0.265
-0.27
-0.265
-0.24
-0.21
-0.19
-0.17
-0.15
-0.135
-0.13
-0.12
-0.13
-0.135
-0.135
-0.14
-0.14
-0.145
-0.15
-0.18
-0.195
-0.215
-0.205
-0.195
-0.215
-0.245
-0.28
-0.295
-0.285
-0.285
-0.285
-0.295
-0.32
-0.33
-0.34
-0.315
-0.305
-0.32
-0.34
-0.34
-0.33
-0.325
-0.33
-0.325
-0.34
-0.34
-0.325
-0.33
-0.34
-0.355
-0.37
-0.39
-0.4
-0.37
-0.285
-0.13
0.075
0.33
0.63
0.92
1.11
1.085
0.86
0.58
0.325
0.12
-0.015
-0.065
-0.12
-0.15
-0.165
-0.19
-0.22
-0.255
-0.3
-0.32
-0.34
-0.36
-0.36
-0.375
-0.38
-0.395
-0.39
-0.385
-0.39
-0.395
-0.405
-0.4
-0.395
-0.375
-0.38
-0.4
-0.415
-0.405
-0.385
-0.375
-0.385
-0.395
-0.415
-0.415
-0.41
-0.385
-0.365
-0.36
-0.375
-0.39
-0.38
-0.37
-0.365
-0.38
-0.385
-0.37
-0.375
-0.37
-0.355
-0.375
-0.39
-0.385
-0.38
-0.375
-0.375
-0.385
-0.395
-0.385
-0.36
-0.335
-0.355
-0.375
-0.38
-0.36
-0.35
-0.34
-0.34
-0.345
-0.34
-0.335
-0.325
-0.31
-0.315
-0.31
-0.33
-0.32
-0.3
-0.29
-0.29
-0.285
-0.29
-0.28
-0.26
-0.245
-0.235
-0.25
-0.24
-0.225
-0.21
-0.195
-0.175
-0.17
-0.18
-0.175
-0.155
-0.14
-0.135
-0.125
-0.135
-0.12
-0.1
-0.1
-0.095
-0.09
-0.09
-0.095
-0.09
-0.085
-0.095
-0.12
-0.14
-0.13
-0.12
-0.135
-0.135
-0.16
-0.18
-0.2
-0.205
-0.195
-0.21
-0.22
-0.23
-0.23
-0.24
-0.25
-0.25
-0.275
-0.28
-0.285
-0.285
-0.26
-0.26
-0.28
-0.3
-0.3
-0.29
-0.29
-0.29
-0.305
-0.31
-0.31
-0.305
-0.29
-0.3
-0.315
-0.32
-0.305
-0.315
-0.305
-0.315
-0.315
-0.33
-0.335
-0.3
-0.29
-0.29
-0.29
-0.31
-0.315
-0.315
-0.305
-0.29
-0.295
-0.295
-0.31
-0.295
-0.29
-0.29
-0.3
-0.295
-0.31
-0.29
-0.285
-0.29
-0.29
-0.295
-0.3
-0.28
-0.29
-0.28
-0.295
-0.29
-0.295
-0.285
-0.275
-0.28
-0.275
-0.3
-0.3
-0.29
-0.28
-0.28
-0.28
-0.295
-0.295
-0.3
-0.295
-0.3
-0.3
-0.305
-0.295
-0.285
-0.27
-0.265
-0.285
-0.3
-0.295
-0.285
-0.27
-0.285
-0.285
-0.305
-0.28
-0.27
-0.26
-0.28
-0.29
-0.29
-0.275
-0.28
-0.26
-0.25
-0.255
-0.265
-0.27
-0.25
-0.235
-0.235
-0.25
-0.245
-0.225
-0.2
-0.175
-0.15
-0.145
-0.135
-0.105
-0.11
-0.105
-0.115
-0.115
-0.14
-0.145
-0.145
-0.14
-0.145
-0.17
-0.18
-0.185
-0.165
-0.18
-0.185
-0.215
-0.235
-0.255
-0.265
-0.245
-0.26
-0.275
-0.285
-0.285
-0.28
-0.285
-0.295
-0.305
-0.315
-0.31
-0.3
-0.295
-0.3
-0.32
-0.325
-0.315
-0.325
-0.305
-0.305
-0.33
-0.335
-0.345
-0.345
-0.355
-0.36
-0.37
-0.35
-0.235
-0.05
0.17
0.405
0.67
0.91
1.055
1.01
0.8
0.555
0.33
0.11
-0.02
-0.07
-0.085
-0.13
-0.17
-0.19
-0.205
-0.225
-0.245
-0.275
-0.325
-0.36
-0.36
-0.35
-0.35
-0.355
-0.38
-0.39
-0.39
-0.375
-0.36
-0.37
-0.37
-0.385
-0.385
-0.385
-0.385
-0.37
-0.37
-0.38
-0.375
-0.39
-0.38
-0.375
-0.38
-0.39
-0.385
-0.38
-0.375
-0.38
-0.395
-0.385
-0.385
-0.38
-0.37
-0.37
-0.39
-0.4
-0.395
-0.375
-0.355
-0.355
-0.38
-0.395
-0.39
-0.38
-0.38
-0.375
-0.375
-0.38
-0.385
-0.365
-0.355
-0.365
-0.355
-0.37
-0.36
-0.355
-0.335
-0.34
-0.345
-0.345
-0.345
-0.34
-0.31
-0.315
-0.325
-0.32
-0.31
-0.305
-0.29
-0.29
-0.275
-0.275
-0.27
-0.245
-0.24
-0.22
-0.23
-0.23
-0.215
-0.2
-0.18
-0.175
-0.17
-0.165
-0.165
-0.14
-0.12
-0.115
-0.115
-0.125
-0.1
-0.1
-0.095
-0.08
-0.075
-0.085
-0.095
-0.09
-0.09
-0.1
-0.105
-0.125
-0.125
-0.125
-0.13
-0.14
-0.16
-0.19
-0.205
-0.195
-0.19
-0.21
-0.225
-0.24
-0.255
-0.255
-0.235
-0.235
-0.255
-0.265
-0.275
-0.275
-0.265
-0.275
-0.27
-0.28
-0.285
-0.27
-0.27
-0.27
-0.27
-0.285
-0.295
-0.29
-0.27
-0.28
-0.29
-0.29
-0.3
-0.295
-0.275
-0.285
-0.295
-0.295
-0.295
-0.285
-0.275
-0.27
-0.275
-0.28
-0.285
-0.27
-0.275
-0.265
-0.27
-0.27
-0.275
-0.27
-0.245
-0.255
-0.265
-0.275
-0.29
-0.27
-0.265
-0.26
-0.275
-0.265
-0.26
-0.245
-0.24
-0.25
-0.26
-0.275
-0.285
-0.275
-0.26
-0.25
-0.27
-0.275
-0.265
-0.27
-0.25
-0.255
-0.275
-0.27
-0.28
-0.265
-0.26
-0.26
-0.27
-0.275
-0.275
-0.26
-0.25
-0.265
-0.27
-0.27
-0.285
-0.26
-0.255
-0.265
-0.265
-0.265
-0.26
-0.265
-0.25
-0.25
-0.255
-0.255
-0.24
-0.24
-0.23
-0.235
-0.23
-0.205
-0.195
-0.165
-0.125
-0.1
-0.095
-0.1
-0.125
-0.11
-0.11
-0.11
-0.125
-0.145
-0.15
-0.15
-0.155
-0.16
-0.165
-0.18
-0.185
-0.195
-0.205
-0.22
-0.245
-0.275
-0.275
-0.27
-0.27
-0.275
-0.285
-0.3
-0.295
-0.295
-0.275
-0.295
-0.31
-0.31
-0.305
-0.305
-0.305
-0.315
-0.315
-0.325
-0.315
-0.31
-0.305
-0.31
-0.33
-0.365
-0.39
-0.37
-0.345
-0.27
-0.14
0.05
0.275
0.53
0.815
1.025
1.05
0.875
0.615
0.38
0.19
0.02
-0.055
-0.09
-0.13
-0.15
-0.16
-0.175
-0.21
-0.245
-0.275
-0.295
-0.305
-0.335
-0.345
-0.36
-0.355
-0.365
-0.36
-0.37
-0.395
-0.39
-0.39
-0.38
-0.37
-0.375
-0.38
-0.39
-0.395
-0.38
-0.375
-0.39
