0.0025, 4078
0.005, 4067
0.0075, 4049
0.01, 4042
0.0125, 4034
0.015, 4033
0.0175, 4036
0.02, 4026
0.0225, 4065
0.025, 4084
0.0275, 4082
0.03, 4095
0.0325, 4073
0.035, 4095
0.0375, 4111
0.04, 4123
0.0425, 4133
0.045, 4128
0.0475, 4078
0.05, 4071
0.0525, 4038
0.055, 4008
0.0575, 4002
0.06, 3993
0.0625, 4014
0.065, 4011
0.0675, 4090
0.07, 4126
0.0725, 4113
0.075, 4138
0.0775, 4103
0.08, 4058
0.0825, 4039
0.085, 4040
0.0875, 4040
0.09, 4043
0.0925, 4043
0.095, 4062
0.0975, 4067
0.1, 4083
0.1025, 4094
0.105, 4089
0.1075, 4090
0.11, 4119
0.1125, 4120
0.115, 4083
0.1175, 4062
0.12, 4060
0.1225, 4048
0.125, 4079
0.1275, 4098
0.13, 4103
0.1325, 4110
0.135, 4113
0.1375, 4100
0.14, 4060
0.1425, 4052
0.145, 4042
0.1475, 4043
0.15, 4042
0.1525, 4038
0.155, 4047
0.1575, 4034
0.16, 4005
0.1625, 4021
0.165, 4036
0.1675, 4049
0.17, 4043
0.1725, 4048
0.175, 4051
0.1775, 4059
0.18, 4045
0.1825, 4056
0.185, 4079
0.1875, 4077
0.19, 4069
0.1925, 4043
0.195, 4071
0.1975, 4091
0.2, 4102
0.2025, 4104
0.205, 4116
0.2075, 4100
0.21, 4108
0.2125, 4080
0.215, 4066
0.2175, 4068
0.22, 4071
0.2225, 4073
0.225, 4074
0.2275, 4066
0.23, 4091
0.2325, 4099
0.235, 4119
0.2375, 4118
0.24, 4103
0.2425, 4104
0.245, 4089
0.2475, 4090
0.25, 4093
0.2525, 4110
0.255, 4089
0.2575, 4082
0.26, 4074
0.2625, 4068
0.265, 4076
0.2675, 4048
0.27, 4063
0.2725, 4070
0.275, 4049
0.2775, 4056
0.28, 4059
0.2825, 4063
0.285, 4057
0.2875, 4095
0.29, 4118
0.2925, 4035
0.295, 3990
0.2975, 3958
0.3, 3919
0.3025, 3900
0.305, 3898
0.3075, 3923
0.31, 3932
0.3125, 3949
0.315, 4047
0.3175, 4237
0.32, 4452
0.3225, 4637
0.325, 4860
0.3275, 5136
0.33, 5351
0.3325, 5406
0.335, 5307
0.3375, 5086
0.34, 4810
0.3425, 4593
0.345, 4315
0.3475, 4010
0.35, 3885
0.3525, 3796
0.355, 3757
0.3575, 3699
0.36, 3690
0.3625, 3697
0.365, 3702
0.3675, 3759
0.37, 3829
0.3725, 3879
0.375, 3953
0.3775, 3991
0.38, 3974
0.3825, 3956
0.385, 3953
0.3875, 3987
0.39, 3986
0.3925, 3969
0.395, 3919
0.3975, 3923
0.4, 3917
0.4025, 3955
0.405, 3976
0.4075, 3985
0.41, 3984
0.4125, 3977
0.415, 4038
0.4175, 4056
0.42, 4007
0.4225, 3989
0.425, 3956
0.4275, 3949
0.43, 3957
0.4325, 4013
0.435, 4020
0.4375, 4021
0.44, 4030
0.4425, 4015
0.445, 4019
0.4475, 4035
0.45, 4026
0.4525, 4028
0.455, 4014
0.4575, 4008
0.46, 4029
0.4625, 4052
0.465, 4085
0.4675, 4134
0.47, 4122
0.4725, 4085
0.475, 4068
0.4775, 4090
0.48, 4093
0.4825, 4067
0.485, 4069
0.4875, 4120
0.49, 4137
0.4925, 4156
0.495, 4130
0.4975, 4088
0.5, 4111
0.5025, 4125
0.505, 4157
0.5075, 4180
0.51, 4188
0.5125, 4228
0.515, 4214
0.5175, 4232
0.52, 4258
0.5225, 4288
0.525, 4263
0.5275, 4237
0.53, 4176
0.5325, 4118
0.535, 4125
0.5375, 4141
0.54, 4151
0.5425, 4173
0.545, 4172
0.5475, 4154
0.55, 4202
0.5525, 4201
0.555, 4177
0.5575, 4196
0.56, 4208
0.5625, 4203
0.565, 4171
0.5675, 4160
0.57, 4144
0.5725, 4150
0.575, 4126
0.5775, 4096
0.58, 4071
0.5825, 4046
0.585, 4022
0.5875, 4005
0.59, 4021
0.5925, 3999
0.595, 4009
0.5975, 3968
0.6, 3929
0.6025, 3889
0.605, 3900
0.6075, 3907
0.61, 3894
0.6125, 3911
0.615, 3906
0.6175, 3893
0.62, 3903
0.6225, 3893
0.625, 3887
0.6275, 3891
0.63, 3918
0.6325, 3940
0.635, 3927
0.6375, 3952
0.64, 3926
0.6425, 3923
0.645, 4001
0.6475, 4004
0.65, 3969
0.6525, 3958
0.655, 3948
0.6575, 3933
0.66, 3960
0.6625, 3990
0.665, 3956
0.6675, 3969
0.67, 3942
0.6725, 4003
0.675, 4007
0.6775, 3989
0.68, 3987
0.6825, 3976
0.685, 3984
0.6875, 3990
0.69, 4011
0.6925, 4003
0.695, 3994
0.6975, 4000
0.7, 3987
0.7025, 3990
0.705, 3995
0.7075, 4025
0.71, 4019
0.7125, 4031
0.715, 3997
0.7175, 3974
0.72, 3986
0.7225, 3994
0.725, 4015
0.7275, 4017
0.73, 4027
0.7325, 4071
0.735, 4058
0.7375, 4059
0.74, 4022
0.7425, 4059
0.745, 4079
0.7475, 4052
0.75, 4082
0.7525, 4078
0.755, 4078
0.7575, 4034
0.76, 4022
0.7625, 4012
0.765, 4017
0.7675, 4046
0.77, 4026
0.7725, 4054
0.775, 4081
0.7775, 4068
0.78, 4096
0.7825, 4098
0.785, 4100
0.7875, 4068
0.79, 4068
0.7925, 4045
0.795, 4061
0.7975, 4023
0.8, 4017
0.8025, 4058
0.805, 4079
0.8075, 4071
0.81, 4027
0.8125, 4034
0.815, 4051
0.8175, 4054
0.82, 4049
0.8225, 4023
0.825, 4052
0.8275, 4049
0.83, 4058
0.8325, 4069
0.835, 4056
0.8375, 4105
0.84, 4077
0.8425, 4065
0.845, 4066
0.8475, 4115
0.85, 4088
0.8525, 4063
0.855, 4074
0.8575, 4096
0.86, 4087
0.8625, 4091
0.865, 4107
0.8675, 4130
0.87, 4114
0.8725, 4087
0.875, 4046
0.8775, 4021
0.88, 4032
0.8825, 4044
0.885, 4094
0.8875, 4102
0.89, 4101
0.8925, 4102
0.895, 4066
0.8975, 4081
0.9, 4077
0.9025, 4058
0.905, 4033
0.9075, 4058
0.91, 4093
0.9125, 4081
0.915, 4070
0.9175, 4096
0.92, 4077
0.9225, 4072
0.925, 4050
0.9275, 4067
0.93, 4088
0.9325, 4098
0.935, 4092
0.9375, 4089
0.94, 4089
0.9425, 4079
0.945, 4078
0.9475, 4092
0.95, 4090
0.9525, 4124
0.955, 4098
0.9575, 4096
0.96, 4104
0.9625, 4081
0.965, 4103
0.9675, 4141
0.97, 4149
0.9725, 4190
0.975, 4207
0.9775, 4205
0.98, 4179
0.9825, 4149
0.985, 4105
0.9875, 4102
0.99, 4084
0.9925, 4087
0.995, 4061
0.9975, 4036
1.0, 4070
1.0025, 4101
1.005, 4112
1.0075, 4107
1.01, 4102
1.0125, 4121
1.015, 4130
1.0175, 4146
1.02, 4154
1.0225, 4128
1.025, 4124
1.0275, 4122
1.03, 4114
1.0325, 4097
1.035, 4074
1.0375, 4061
1.04, 4081
1.0425, 4069
1.045, 4079
1.0475, 4103
1.05, 4100
1.0525, 4128
1.055, 4118
1.0575, 4069
1.06, 4069
1.0625, 4058
1.065, 4053
1.0675, 4061
1.07, 4058
1.0725, 4083
1.075, 4085
1.0775, 4090
1.08, 4076
1.0825, 4043
1.085, 4061
1.0875, 4065
1.09, 4090
1.0925, 4087
1.095, 4109
1.0975, 4098
1.1, 4085
1.1025, 4060
1.105, 4060
1.1075, 4063
1.11, 3983
1.1125, 3992
1.115, 3933
1.1175, 3920
1.12, 3918
1.1225, 3952
1.125, 4013
1.1275, 4090
1.13, 4255
1.1325, 4479
1.135, 4681
1.1375, 4845
1.14, 5069
1.1425, 5270
1.145, 5336
1.1475, 5337
1.15, 5208
1.1525, 4923
1.155, 4680
1.1575, 4453
1.16, 4171
1.1625, 4013
1.165, 3889
1.1675, 3772
1.17, 3739
1.1725, 3760
1.175, 3791
1.1775, 3799
1.18, 3834
1.1825, 3877
1.185, 3928
1.1875, 3951
1.19, 3994
1.1925, 3982
1.195, 3968
1.1975, 3992
1.2, 3970
1.2025, 3972
1.205, 3944
1.2075, 3961
1.21, 3991
1.2125, 4000
1.215, 3989
1.2175, 4024
1.22, 4052
1.2225, 4024
1.225, 4037
1.2275, 4038
1.23, 4054
1.2325, 4089
1.235, 4096
1.2375, 4083
1.24, 4066
1.2425, 4029
1.245, 4030
1.2475, 4033
1.25, 4045
1.2525, 4062
1.255, 4086
1.2575, 4109
1.26, 4121
1.2625, 4096
1.265, 4086
1.2675, 4079
1.27, 4100
1.2725, 4102
1.275, 4119
1.2775, 4143
1.28, 4137
1.2825, 4141
1.285, 4163
1.2875, 4148
1.29, 4170
1.2925, 4182
1.295, 4142
1.2975, 4165
1.3, 4173
1.3025, 4189
1.305, 4193
1.3075, 4178
1.31, 4186
1.3125, 4185
1.315, 4180
1.3175, 4163
1.32, 4182
1.3225, 4166
1.325, 4168
1.3275, 4183
1.33, 4203
1.3325, 4216
1.335, 4233
1.3375, 4227
1.34, 4228
1.3425, 4208
1.345, 4227
1.3475, 4247
1.35, 4256
1.3525, 4258
1.355, 4274
1.3575, 4234
1.36, 4207
1.3625, 4197
1.365, 4232
1.3675, 4255
1.37, 4257
1.3725, 4222
1.375, 4233
1.3775, 4196
1.38, 4175
1.3825, 4178
1.385, 4155
1.3875, 4145
1.39, 4131
1.3925, 4074
1.395, 4082
1.3975, 4013
1.4, 4011
1.4025, 3987
1.405, 3969
1.4075, 3963
1.41, 3959
1.4125, 3972
1.415, 3973
1.4175, 3961
1.42, 3968
1.4225, 3971
1.425, 3956
1.4275, 3952
1.43, 3965
1.4325, 3951
1.435, 3913
1.4375, 3904
1.44, 3915
1.4425, 3924
1.445, 3953
1.4475, 3937
1.45, 3951
1.4525, 3955
1.455, 3946
1.4575, 3921
1.46, 3932
1.4625, 3938
1.465, 3942
1.4675, 3970
1.47, 3944
1.4725, 3942
1.475, 3935
1.4775, 3975
1.48, 3963
1.4825, 3954
1.485, 3943
1.4875, 3957
1.49, 3996
1.4925, 3965
1.495, 3982
1.4975, 3973
1.5, 3976
1.5025, 3975
1.505, 4005
1.5075, 4019
1.51, 4035
1.5125, 3991
1.515, 4039
1.5175, 4035
1.52, 4032
1.5225, 4038
1.525, 4037
1.5275, 4056
1.53, 4037
1.5325, 3998
1.535, 3982
1.5375, 4021
1.54, 4028
1.5425, 4016
1.545, 4019
1.5475, 4025
1.55, 4020
1.5525, 4048
1.555, 4053
1.5575, 4078
1.56, 4075
1.5625, 4051
1.565, 4011
1.5675, 3996
1.57, 4000
1.5725, 4005
1.575, 4035
1.5775, 4039
1.58, 4035
1.5825, 4044
1.585, 4031
1.5875, 4008
1.59, 4013
1.5925, 4046
1.595, 4095
1.5975, 4070
1.6, 4070
1.6025, 4064
1.605, 4055
1.6075, 4074
1.61, 4067
1.6125, 4074
1.615, 4059
1.6175, 4071
1.62, 4098
1.6225, 4090
1.625, 4065
1.6275, 4107
1.63, 4084
1.6325, 4084
1.635, 4069
1.6375, 4088
1.64, 4095
1.6425, 4086
1.645, 4082
1.6475, 4059
1.65, 4044
1.6525, 4060
1.655, 4099
1.6575, 4129
1.66, 4121
1.6625, 4151
1.665, 4138
1.6675, 4153
1.67, 4107
1.6725, 4104
1.675, 4112
1.6775, 4112
1.68, 4070
1.6825, 4079
1.685, 4110
1.6875, 4106
1.69, 4120
1.6925, 4127
1.695, 4094
1.6975, 4076
1.7, 4066
1.7025, 4026
1.705, 4024
1.7075, 4080
1.71, 4101
1.7125, 4099
1.715, 4089
1.7175, 4080
1.72, 4047
1.7225, 4058
1.725, 4054
1.7275, 4064
1.73, 4085
1.7325, 4075
1.735, 4085
1.7375, 4098
1.74, 4097
1.7425, 4109
1.745, 4118
1.7475, 4095
1.75, 4087
1.7525, 4082
1.755, 4093
1.7575, 4088
1.76, 4109
1.7625, 4089
1.765, 4071
1.7675, 4051
1.77, 4047
1.7725, 4047
1.775, 4061
1.7775, 4062
1.78, 4033
1.7825, 4062
1.785, 4080
1.7875, 4069
1.79, 4117
1.7925, 4133
1.795, 4104
1.7975, 4077
1.8, 4021
1.8025, 4015
1.805, 4046
1.8075, 4043
1.81, 4084
1.8125, 4093
1.815, 4081
1.8175, 4076
1.82, 4078
1.8225, 4102
1.825, 4116
1.8275, 4124
1.83, 4136
1.8325, 4136
1.835, 4136
1.8375, 4146
1.84, 4151
1.8425, 4143
1.845, 4118
1.8475, 4123
1.85, 4128
1.8525, 4100
1.855, 4093
1.8575, 4090
1.86, 4048
1.8625, 4050
1.865, 4046
1.8675, 4041
1.87, 4070
1.8725, 4101
1.875, 4099
1.8775, 4083
1.88, 4099
1.8825, 4083
1.885, 4064
1.8875, 4096
1.89, 4074
1.8925, 4070
1.895, 4088
1.8975, 4106
1.9, 4099
1.9025, 4109
1.905, 4067
1.9075, 4045
1.91, 4054
1.9125, 4066
1.915, 4072
1.9175, 4033
1.92, 4017
1.9225, 4035
1.925, 3993
1.9275, 3983
1.93, 3954
1.9325, 3902
1.935, 3882
1.9375, 3853
1.94, 3892
1.9425, 3920
1.945, 4022
1.9475, 4202
1.95, 4427
1.9525, 4637
1.955, 4861
1.9575, 5097
1.96, 5334
1.9625, 5433
1.965, 5386
1.9675, 5187
1.97, 4923
1.9725, 4693
1.975, 4493
1.9775, 4215
1.98, 3977
1.9825, 3838
1.985, 3727
1.9875, 3654
1.99, 3675
1.9925, 3714
1.995, 3781
1.9975, 3802
2.0, 3806
2.0025, 3824
2.005, 3851
2.0075, 3884
2.01, 3910
2.0125, 3926
2.015, 3943
2.0175, 3957
2.02, 3962
2.0225, 3963
2.025, 3941
2.0275, 3935
2.03, 3955
2.0325, 3965
2.035, 3958
2.0375, 3973
2.04, 3968
2.0425, 3979
2.045, 3987
2.0475, 3987
2.05, 3985
2.0525, 3991
2.055, 4002
2.0575, 4067
2.06, 4057
2.0625, 4050
2.065, 4028
2.0675, 4023
2.07, 4073
2.0725, 4105
2.075, 4101
2.0775, 4102
2.08, 4063
2.0825, 4095
2.085, 4099
2.0875, 4100
2.09, 4102
2.0925, 4125
2.095, 4151
2.0975, 4158
2.1, 4123
2.1025, 4136
2.105, 4101
2.1075, 4080
2.11, 4069
2.1125, 4086
2.115, 4093
2.1175, 4110
2.12, 4124
2.1225, 4133
2.125, 4147
2.1275, 4139
2.13, 4165
2.1325, 4118
2.135, 4105
2.1375, 4125
2.14, 4155
2.1425, 4197
2.145, 4194
2.1475, 4169
2.15, 4203
2.1525, 4211
2.155, 4213
2.1575, 4232
2.16, 4255
2.1625, 4314
2.165, 4304
2.1675, 4290
2.17, 4267
2.1725, 4240
2.175, 4234
2.1775, 4257
2.18, 4216
2.1825, 4196
2.185, 4181
2.1875, 4172
2.19, 4149
2.1925, 4175
2.195, 4155
2.1975, 4170
2.2, 4131
2.2025, 4140
2.205, 4117
2.2075, 4084
2.21, 4073
2.2125, 4051
2.215, 4027
2.2175, 4006
2.22, 3983
2.2225, 3998
2.225, 3967
2.2275, 3912
2.23, 3925
2.2325, 3909
2.235, 3901
2.2375, 3916
2.24, 3942
2.2425, 3953
2.245, 3929
2.2475, 3872
2.25, 3859
2.2525, 3840
2.255, 3864
2.2575, 3872
2.26, 3873
2.2625, 3877
2.265, 3823
2.2675, 3836
2.27, 3873
2.2725, 3904
2.275, 3898
2.2775, 3899
2.28, 3912
2.2825, 3936
2.285, 3980
2.2875, 3977
2.29, 3933
2.2925, 3918
2.295, 3904
2.2975, 3907
2.3, 3900
2.3025, 3916
2.305, 3947
2.3075, 3956
2.31, 3938
2.3125, 3918
2.315, 3943
2.3175, 3988
2.32, 4007
2.3225, 3995
2.325, 3980
2.3275, 3966
2.33, 4067
2.3325, 4028
2.335, 4022
2.3375, 4016
2.34, 3991
2.3425, 3936
2.345, 3958
2.3475, 3941
2.35, 3954
2.3525, 4023
2.355, 4067
2.3575, 4054
2.36, 4050
2.3625, 4048
2.365, 4035
2.3675, 4035
2.37, 4030
2.3725, 4084
2.375, 4088
2.3775, 4061
2.38, 4009
2.3825, 4009
2.385, 3999
2.3875, 4029
2.39, 4000
2.3925, 4020
2.395, 4016
2.3975, 4047
2.4, 4052
2.4025, 4073
2.405, 4060
2.4075, 4046
2.41, 4039
2.4125, 4073
2.415, 4077
2.4175, 4091
2.42, 4055
2.4225, 4077
2.425, 4084
2.4275, 4047
2.43, 4003
2.4325, 4015
2.435, 4050
2.4375, 4097
2.44, 4130
2.4425, 4130
2.445, 4114
2.4475, 4101
2.45, 4098
2.4525, 4112
2.455, 4113
2.4575, 4108
2.46, 4075
2.4625, 4093
2.465, 4086
2.4675, 4050
2.47, 4051
2.4725, 4011
2.475, 3999
2.4775, 4031
2.48, 4018
2.4825, 4050
2.485, 4048
2.4875, 4006
2.49, 4021
2.4925, 4018
2.495, 4013
2.4975, 4034
2.5, 4047
2.5025, 4066
2.505, 4072
2.5075, 4036
2.51, 4074
2.5125, 4094
2.515, 4137
2.5175, 4183
2.52, 4175
2.5225, 4141
2.525, 4127
2.5275, 4093
2.53, 4090
2.5325, 4061
2.535, 4050
2.5375, 4080
2.54, 4098
2.5425, 4082
2.545, 4077
2.5475, 4066
2.55, 4071
2.5525, 4061
2.555, 4080
2.5575, 4126
2.56, 4118
2.5625, 4107
2.565, 4071
2.5675, 4070
2.57, 4041
2.5725, 4027
2.575, 4046
2.5775, 4077
2.58, 4087
2.5825, 4133
2.585, 4132
2.5875, 4139
2.59, 4130
2.5925, 4138
2.595, 4089
2.5975, 4070
2.6, 4075
2.6025, 4088
2.605, 4072
2.6075, 4045
2.61, 4028
2.6125, 4036
2.615, 4042
2.6175, 4074
2.62, 4070
2.6225, 4059
2.625, 4087
2.6275, 4079
2.63, 4077
2.6325, 4095
2.635, 4123
2.6375, 4166
2.64, 4211
2.6425, 4155
2.645, 4136
2.6475, 4037
2.65, 4026
2.6525, 4042
2.655, 4079
2.6575, 4105
2.66, 4115
2.6625, 4107
2.665, 4095
2.6675, 4067
2.67, 4094
2.6725, 4097
2.675, 4099
2.6775, 4136
2.68, 4147
2.6825, 4125
2.685, 4146
2.6875, 4158
2.69, 4139
2.6925, 4128
2.695, 4145
2.6975, 4141
2.7, 4146
2.7025, 4153
2.705, 4159
2.7075, 4139
2.71, 4130
2.7125, 4164
2.715, 4164
2.7175, 4166
2.72, 4121
2.7225, 4119
2.725, 4115
2.7275, 4110
2.73, 4107
2.7325, 4098
2.735, 4058
2.7375, 4068
2.74, 4101
2.7425, 4101
2.745, 4120
2.7475, 4147
2.75, 4116
2.7525, 4142
2.755, 4110
2.7575, 4113
2.76, 4144
2.7625, 4119
2.765, 4113
2.7675, 4071
2.77, 3989
2.7725, 3937
2.775, 3951
2.7775, 3973
2.78, 3993
2.7825, 4082
2.785, 4158
2.7875, 4318
2.79, 4536
2.7925, 4725
2.795, 4979
2.7975, 5263
2.8, 5398
2.8025, 5406
2.805, 5268
2.8075, 5014
2.81, 4825
2.8125, 4601
2.815, 4258
2.8175, 4009
2.82, 3875
2.8225, 3770
2.825, 3684
2.8275, 3644
2.83, 3677
2.8325, 3727
2.835, 3759
2.8375, 3865
2.84, 3934
2.8425, 3977
2.845, 3956
2.8475, 3950
2.85, 3924
2.8525, 3915
2.855, 3915
2.8575, 3953
2.86, 3991
2.8625, 3974
2.865, 3995
2.8675, 3972
2.87, 3963
2.8725, 3942
2.875, 3962
2.8775, 3944
2.88, 3956
2.8825, 3995
2.885, 4011
2.8875, 4000
2.89, 3985
2.8925, 4015
2.895, 4017
2.8975, 4030
2.9, 4044
2.9025, 4038
2.905, 4052
2.9075, 4043
2.91, 4064
2.9125, 4059
2.915, 4045
2.9175, 4040
2.92, 4049
2.9225, 4040
2.925, 4064
2.9275, 4043
2.93, 4099
2.9325, 4124
2.935, 4132
2.9375, 4111
2.94, 4105
2.9425, 4110
2.945, 4095
2.9475, 4145
2.95, 4163
2.9525, 4177
2.955, 4154
2.9575, 4192
2.96, 4188
2.9625, 4179
2.965, 4160
2.9675, 4163
2.97, 4148
2.9725, 4135
2.975, 4158
2.9775, 4157
2.98, 4196
2.9825, 4220
2.985, 4223
2.9875, 4233
2.99, 4245
2.9925, 4241
2.995, 4241
2.9975, 4234
3.0, 4279
3.0025, 4266
3.005, 4248
3.0075, 4238
3.01, 4208
3.0125, 4224
3.015, 4239
3.0175, 4269
3.02, 4277
3.0225, 4302
3.025, 4294
3.0275, 4290
3.03, 4287
3.0325, 4270
3.035, 4257
3.0375, 4206
3.04, 4181
3.0425, 4149
3.045, 4133
3.0475, 4118
3.05, 4112
3.0525, 4129
3.055, 4080
3.0575, 4081
3.06, 4035
3.0625, 4025
3.065, 4011
3.0675, 3995
3.07, 3973
3.0725, 3948
3.075, 3931
3.0775, 3916
3.08, 3933
3.0825, 3927
3.085, 3936
3.0875, 3930
3.09, 3931
3.0925, 3939
3.095, 3934
3.0975, 3926
3.1, 3929
3.1025, 3923
3.105, 3948
3.1075, 3955
3.11, 3963
3.1125, 3945
3.115, 3897
3.1175, 3878
3.12, 3919
3.1225, 3908
3.125, 3926
3.1275, 3935
3.13, 3917
3.1325, 3927
3.135, 3955
3.1375, 3984
3.14, 3990
3.1425, 3956
3.145, 3948
3.1475, 3974
3.15, 3981
3.1525, 3994
3.155, 4020
3.1575, 4031
3.16, 4028
3.1625, 3991
3.165, 4009
3.1675, 4002
3.17, 3985
3.1725, 3993
3.175, 4011
3.1775, 4005
3.18, 4029
3.1825, 4012
3.185, 4067
3.1875, 4042
3.19, 4033
3.1925, 4035
3.195, 4025
3.1975, 4017
3.2, 4078
3.2025, 4104
3.205, 4102
3.2075, 4072
3.21, 3997
3.2125, 4011
3.215, 4035
3.2175, 4036
3.22, 4021
3.2225, 4017
3.225, 3974
3.2275, 3954
3.23, 3996
3.2325, 3998
3.235, 3997
3.2375, 4013
3.24, 4063
3.2425, 4058
3.245, 4028
3.2475, 4032
3.25, 4015
3.2525, 4033
3.255, 4049
3.2575, 4038
3.26, 4056
3.2625, 4037
3.265, 3986
3.2675, 3974
3.27, 3990
3.2725, 3983
3.275, 4034
3.2775, 4010
3.28, 4030
3.2825, 4040
3.285, 4010
3.2875, 4022
3.29, 4013
3.2925, 4021
3.295, 4013
3.2975, 4009
3.3, 4029
3.3025, 4072
3.305, 4066
3.3075, 4062
3.31, 4036
3.3125, 4042
3.315, 4058
3.3175, 4062
3.32, 4061
3.3225, 4083
3.325, 4099
3.3275, 4073
3.33, 4088
3.3325, 4094
3.335, 4074
3.3375, 4062
3.34, 4070
3.3425, 4069
3.345, 4088
3.3475, 4079
3.35, 4086
3.3525, 4093
3.355, 4123
3.3575, 4122
3.36, 4067
3.3625, 4056
3.365, 4053
3.3675, 4032
3.37, 4030
3.3725, 4086
3.375, 4132
3.3775, 4109
3.38, 4073
3.3825, 4074
3.385, 4110
3.3875, 4079
3.39, 4042
3.3925, 4016
3.395, 4040
3.3975, 4051
3.4, 4064
3.4025, 4092
3.405, 4148
3.4075, 4170
3.41, 4173
3.4125, 4077
3.415, 4068
3.4175, 4068
3.42, 4064
3.4225, 4059
3.425, 4054
3.4275, 4060
3.43, 4061
3.4325, 4060
3.435, 4066
3.4375, 4047
3.44, 4076
3.4425, 4078
3.445, 4088
3.4475, 4090
3.45, 4068
3.4525, 4045
3.455, 4054
3.4575, 4113
3.46, 4135
3.4625, 4121
3.465, 4060
3.4675, 4074
3.47, 4097
3.4725, 4093
3.475, 4125
3.4775, 4154
3.48, 4181
3.4825, 4152
3.485, 4062
3.4875, 4066
3.49, 4045
3.4925, 4061
3.495, 4091
3.4975, 4129
3.5, 4134
3.5025, 4111
3.505, 4104
3.5075, 4098
3.51, 4071
3.5125, 4041
3.515, 4072
3.5175, 4104
3.52, 4101
3.5225, 4095
3.525, 4077
3.5275, 4078
3.53, 4064
3.5325, 4085
3.535, 4117
3.5375, 4110
3.54, 4107
3.5425, 4130
3.545, 4095
3.5475, 4102
3.55, 4099
3.5525, 4110
3.555, 4119
3.5575, 4152
3.56, 4155
3.5625, 4145
3.565, 4122
3.5675, 4124
3.57, 4102
3.5725, 4080
3.575, 4068
3.5775, 4119
3.58, 4141
3.5825, 4118
3.585, 4118
3.5875, 4114
3.59, 4118
3.5925, 4096
3.595, 4120
3.5975, 4116
3.6, 4137
3.6025, 4144
3.605, 4144
3.6075, 4112
3.61, 4135
3.6125, 4134
3.615, 4172
3.6175, 4153
3.62, 4158
3.6225, 4174
3.625, 4146
3.6275, 4142
3.63, 4138
3.6325, 4152
3.635, 4152
3.6375, 4144
3.64, 4119
3.6425, 4116
3.645, 4082
3.6475, 4090
3.65, 4092
3.6525, 4110
3.655, 4094
3.6575, 4087
3.66, 4063
3.6625, 4070
3.665, 4053
3.6675, 4078
3.67, 4098
3.6725, 4116
3.675, 4110
3.6775, 4091
3.68, 4044
3.6825, 4016
3.685, 4003
3.6875, 3970
3.69, 3947
3.6925, 3896
3.695, 3896
3.6975, 3909
3.7, 3934
3.7025, 3973
3.705, 4010
3.7075, 4149
3.71, 4278
3.7125, 4492
3.715, 4744
3.7175, 4965
3.72, 5234
3.7225, 5370
3.725, 5400
3.7275, 5288
3.73, 5027
3.7325, 4824
3.735, 4599
3.7375, 4251
3.74, 4052
3.7425, 3881
3.745, 3716
3.7475, 3637
3.75, 3569
3.7525, 3589
3.755, 3667
3.7575, 3711
3.76, 3822
3.7625, 3874
3.765, 3884
3.7675, 3915
3.77, 3938
3.7725, 3913
3.775, 3956
3.7775, 3966
3.78, 3967
3.7825, 3975
3.785, 3955
3.7875, 3928
3.79, 3935
3.7925, 3913
3.795, 3943
3.7975, 3972
3.8, 3993
3.8025, 4004
3.805, 3972
3.8075, 3999
3.81, 3995
3.8125, 4006
3.815, 3999
3.8175, 4025
3.82, 4005
3.8225, 3978
3.825, 3963
3.8275, 3938
3.83, 3937
3.8325, 3928
3.835, 3933
3.8375, 3964
3.84, 3998
3.8425, 4038
3.845, 4033
3.8475, 4038
3.85, 4012
3.8525, 4021
3.855, 4009
3.8575, 4029
3.86, 4015
3.8625, 4042
3.865, 4030
3.8675, 4037
3.87, 4027
3.8725, 4048
3.875, 4069
3.8775, 4095
3.88, 4113
3.8825, 4088
3.885, 4111
3.8875, 4143
3.89, 4113
3.8925, 4102
3.895, 4110
3.8975, 4115
3.9, 4159
3.9025, 4203
3.905, 4216
3.9075, 4180
3.91, 4195
3.9125, 4206
3.915, 4211
3.9175, 4226
3.92, 4224
3.9225, 4259
3.925, 4269
3.9275, 4245
3.93, 4273
3.9325, 4248
3.935, 4210
3.9375, 4162
3.94, 4170
3.9425, 4188
3.945, 4208
3.9475, 4211
3.95, 4220
3.9525, 4211
3.955, 4209
3.9575, 4183
3.96, 4136
3.9625, 4142
3.965, 4111
3.9675, 4112
3.97, 4115
3.9725, 4094
3.975, 4094
3.9775, 4053
3.98, 4039
3.9825, 4034
3.985, 3969
3.9875, 3958
3.99, 3940
3.9925, 3910
3.995, 3949
3.9975, 3976
4.0, 3960
4.0025, 3940
4.005, 3926
4.0075, 3901
4.01, 3881
4.0125, 3902
4.015, 3926
4.0175, 3928
4.02, 3946
4.0225, 3945
4.025, 3926
4.0275, 3913
4.03, 3904
4.0325, 3888
4.035, 3899
4.0375, 3965
4.04, 3973
4.0425, 3938
4.045, 3925
4.0475, 3907
4.05, 3932
4.0525, 3930
4.055, 3938
4.0575, 3939
4.06, 3979
4.0625, 3956
4.065, 3958
4.0675, 3963
4.07, 3995
4.0725, 3998
4.075, 3979
4.0775, 3970
4.08, 3954
4.0825, 3969
4.085, 3978
4.0875, 3967
4.09, 3967
4.0925, 3968
4.095, 3995
4.0975, 4012
4.1, 4037
4.1025, 4055
4.105, 4069
4.1075, 4050
4.11, 4033
4.1125, 3981
4.115, 3997
4.1175, 3992
4.12, 4019
4.1225, 3995
4.125, 3988
4.1275, 4015
4.13, 4035
4.1325, 4012
4.135, 4031
4.1375, 4027
4.14, 4022
4.1425, 4038
4.145, 4044
4.1475, 4047
4.15, 4057
4.1525, 4036
4.155, 4047
4.1575, 4014
4.16, 4015
4.1625, 4031
4.165, 4012
4.1675, 4065
4.17, 4092
4.1725, 4079
4.175, 4040
4.1775, 4036
4.18, 4040
4.1825, 4029
4.185, 4060
4.1875, 4029
4.19, 4033
4.1925, 4071
4.195, 4039
4.1975, 4031
4.2, 4010
4.2025, 4016
4.205, 3997
4.2075, 4010
4.21, 4029
4.2125, 4015
4.215, 4041
4.2175, 4056
4.22, 4059
4.2225, 4057
4.225, 4056
4.2275, 4070
4.23, 4072
4.2325, 4081
4.235, 4090
4.2375, 4060
4.24, 4030
4.2425, 4045
4.245, 4058
4.2475, 4043
4.25, 4038
4.2525, 4045
4.255, 4025
4.2575, 4010
4.26, 4030
4.2625, 4042
4.265, 4062
4.2675, 4083
4.27, 4098
4.2725, 4088
4.275, 4084
4.2775, 4053
4.28, 4051
4.2825, 4043
4.285, 4048
4.2875, 4040
4.29, 4015
4.2925, 4006
4.295, 3978
4.2975, 3998
4.3, 4020
4.3025, 4020
4.305, 4042
4.3075, 4042
4.31, 4065
4.3125, 4044
4.315, 4032
4.3175, 4074
4.32, 4078
4.3225, 4119
4.325, 4091
4.3275, 4012
4.33, 4010
4.3325, 4022
4.335, 4026
4.3375, 4048
4.34, 4063
4.3425, 4060
4.345, 4066
4.3475, 4060
4.35, 4060
4.3525, 4067
4.355, 4060
4.3575, 4063
4.36, 4069
4.3625, 4078
4.365, 4121
4.3675, 4091
4.37, 4125
4.3725, 4091
4.375, 4060
4.3775, 4050
4.38, 4051
4.3825, 4089
4.385, 4158
4.3875, 4164
4.39, 4105
4.3925, 4111
4.395, 4082
4.3975, 4078
4.4, 4046
4.4025, 4061
4.405, 4080
4.4075, 4078
4.41, 4055
4.4125, 4064
4.415, 4034
4.4175, 4069
4.42, 4090
4.4225, 4082
4.425, 4121
4.4275, 4114
4.43, 4155
4.4325, 4097
4.435, 4060
4.4375, 4063
4.44, 4050
4.4425, 4052
4.445, 4044
4.4475, 4057
4.45, 4096
4.4525, 4123
4.455, 4112
4.4575, 4098
4.46, 4141
4.4625, 4132
4.465, 4128
4.4675, 4095
4.47, 4099
4.4725, 4107
4.475, 4046
4.4775, 4062
4.48, 4067
4.4825, 4051
4.485, 4078
4.4875, 4120
4.49, 4110
4.4925, 4122
4.495, 4118
4.4975, 4082
4.5, 4081
4.5025, 4109
4.505, 4100
4.5075, 4117
4.51, 4088
4.5125, 4071
4.515, 4066
4.5175, 4092
4.52, 4105
4.5225, 4114
4.525, 4193
4.5275, 4154
4.53, 4125
4.5325, 4098
4.535, 4084
4.5375, 4069
4.54, 4075
4.5425, 4116
4.545, 4112
4.5475, 4048
4.55, 4024
4.5525, 4020
4.555, 4013
4.5575, 4038
4.56, 4067
4.5625, 4066
4.565, 4079
4.5675, 4095
4.57, 4065
4.5725, 4052
4.575, 4066
4.5775, 4107
4.58, 4130
4.5825, 4082
4.585, 4034
4.5875, 3985
4.59, 3937
4.5925, 3878
4.595, 3855
4.5975, 3887
4.6, 3928
4.6025, 3989
4.605, 4077
4.6075, 4197
4.61, 4425
4.6125, 4624
4.615, 4832
4.6175, 5028
4.62, 5253
4.6225, 5302
4.625, 5316
4.6275, 5094
4.63, 4800
4.6325, 4566
4.635, 4367
4.6375, 4117
4.64, 3909
4.6425, 3834
4.645, 3771
4.6475, 3725
4.65, 3669
4.6525, 3670
4.655, 3698
4.6575, 3765
4.66, 3804
4.6625, 3829
4.665, 3877
4.6675, 3881
4.67, 3921
4.6725, 3939
4.675, 3940
4.6775, 3949
4.68, 3973
4.6825, 3948
4.685, 3939
4.6875, 3928
4.69, 3912
4.6925, 3943
4.695, 3954
4.6975, 3947
4.7, 3960
4.7025, 3966
4.705, 3962
4.7075, 3945
4.71, 3972
4.7125, 3999
4.715, 3997
4.7175, 3980
4.72, 4003
4.7225, 4041
4.725, 4102
4.7275, 4079
4.73, 4046
4.7325, 4005
4.735, 4002
4.7375, 4004
4.74, 4033
4.7425, 4042
4.745, 4067
4.7475, 4043
4.75, 4065
4.7525, 4073
4.755, 4049
4.7575, 4065
4.76, 4079
4.7625, 4108
4.765, 4112
4.7675, 4098
4.77, 4083
4.7725, 4069
4.775, 4086
4.7775, 4106
4.78, 4098
4.7825, 4101
4.785, 4108
4.7875, 4141
4.79, 4143
4.7925, 4161
4.795, 4204
4.7975, 4191
4.8, 4196
4.8025, 4148
4.805, 4131
4.8075, 4148
4.81, 4147
4.8125, 4165
4.815, 4190
4.8175, 4189
4.82, 4202
4.8225, 4217
4.825, 4255
4.8275, 4273
4.83, 4273
4.8325, 4263
4.835, 4242
4.8375, 4230
4.84, 4217
4.8425, 4236
4.845, 4240
4.8475, 4252
4.85, 4239
4.8525, 4208
4.855, 4179
4.8575, 4117
4.86, 4105
4.8625, 4143
4.865, 4137
4.8675, 4163
4.87, 4134
4.8725, 4090
4.875, 4014
4.8775, 4017
4.88, 4030
4.8825, 3996
4.885, 3994
4.8875, 3958
4.89, 3963
4.8925, 3959
4.895, 3973
4.8975, 3931
4.9, 3916
4.9025, 3930
4.905, 3921
4.9075, 3900
4.91, 3900
4.9125, 3893
4.915, 3905
4.9175, 3905
4.92, 3910
4.9225, 3891
4.925, 3911
4.9275, 3936
4.93, 3945
4.9325, 3931
4.935, 3921
4.9375, 3920
4.94, 3926
4.9425, 3920
4.945, 3943
4.9475, 3969
4.95, 3959
4.9525, 3966
4.955, 3965
4.9575, 3960
4.96, 3982
4.9625, 3983
4.965, 4009
4.9675, 4034
4.97, 3995
4.9725, 4015
4.975, 3978
4.9775, 3979
4.98, 3981
4.9825, 3977
4.985, 3982
4.9875, 4002
4.99, 3996
4.9925, 3967
4.995, 3956
4.9975, 3963
5.0, 4003
5.0025, 4032
5.005, 4061
5.0075, 4024
5.01, 4009
5.0125, 4006
5.015, 4017
5.0175, 4049
5.02, 4053
5.0225, 4062
5.025, 4051
5.0275, 4072
5.03, 4051
5.0325, 4074
5.035, 4037
5.0375, 4030
5.04, 4010
5.0425, 4032
5.045, 4038
5.0475, 4042
5.05, 4061
5.0525, 4042
5.055, 4025
5.0575, 4050
5.06, 4077
5.0625, 4067
5.065, 4081
5.0675, 4065
5.07, 4055
5.0725, 4038
5.075, 4027
5.0775, 4039
5.08, 4041
5.0825, 4071
5.085, 4093
5.0875, 4122
5.09, 4092
5.0925, 4068
5.095, 4038
5.0975, 4030
5.1, 4057
5.1025, 4057
5.105, 4052
5.1075, 4067
5.11, 4080
5.1125, 4066
5.115, 4102
5.1175, 4140
5.12, 4127
5.1225, 4106
5.125, 4070
5.1275, 4077
5.13, 4115
5.1325, 4114
5.135, 4136
5.1375, 4120
5.14, 4140
5.1425, 4121
5.145, 4131
5.1475, 4135
5.15, 4110
5.1525, 4100
5.155, 4087
5.1575, 4069
5.16, 4107
5.1625, 4116
5.165, 4103
5.1675, 4099
5.17, 4101
5.1725, 4095
5.175, 4121
5.1775, 4112
5.18, 4095
5.1825, 4103
5.185, 4099
5.1875, 4091
5.19, 4079
5.1925, 4099
5.195, 4106
5.1975, 4124
5.2, 4133
5.2025, 4116
5.205, 4096
5.2075, 4121
5.21, 4118
5.2125, 4102
5.215, 4113
5.2175, 4119
5.22, 4122
5.2225, 4114
5.225, 4129
5.2275, 4116
5.23, 4088
5.2325, 4097
5.235, 4120
5.2375, 4143
5.24, 4106
5.2425, 4098
5.245, 4110
5.2475, 4132
5.25, 4137
5.2525, 4142
5.255, 4124
5.2575, 4105
5.26, 4104
5.2625, 4126
5.265, 4119
5.2675, 4093
5.27, 4115
5.2725, 4112
5.275, 4127
5.2775, 4105
5.28, 4110
5.2825, 4091
5.285, 4091
5.2875, 4142
5.29, 4157
5.2925, 4131
5.295, 4109
5.2975, 4080
5.3, 4093
5.3025, 4100
5.305, 4100
5.3075, 4104
5.31, 4083
5.3125, 4078
5.315, 4078
5.3175, 4098
5.32, 4130
5.3225, 4152
5.325, 4114
5.3275, 4110
5.33, 4098
5.3325, 4089
5.335, 4091
5.3375, 4051
5.34, 4060
5.3425, 4067
5.345, 4058
5.3475, 4081
5.35, 4091
5.3525, 4089
5.355, 4102
5.3575, 4103
5.36, 4123
5.3625, 4134
5.365, 4137
5.3675, 4151
5.37, 4175
5.3725, 4143
5.375, 4139
5.3775, 4108
5.38, 4110
5.3825, 4129
5.385, 4153
5.3875, 4160
5.39, 4152
5.3925, 4080
5.395, 4093
5.3975, 4111
5.4, 4114
5.4025, 4110
5.405, 4130
5.4075, 4135
5.41, 4125
5.4125, 4109
5.415, 4085
5.4175, 4063
5.42, 4082
5.4225, 4086
5.425, 4047
5.4275, 4060
5.43, 4081
5.4325, 4071
5.435, 4050
5.4375, 4035
5.44, 4076
5.4425, 4117
5.445, 4093
5.4475, 4083
5.45, 4073
5.4525, 4077
5.455, 4084
5.4575, 4116
5.46, 4072
5.4625, 4046
5.465, 4006
5.4675, 3950
5.47, 3906
5.4725, 3891
5.475, 3895
5.4775, 3922
5.48, 4003
5.4825, 4138
5.485, 4270
5.4875, 4476
5.49, 4662
5.4925, 4870
5.495, 5106
5.4975, 5335
5.5, 5395
5.5025, 5411
5.505, 5163
5.5075, 4875
5.51, 4622
5.5125, 4391
5.515, 4122
5.5175, 3933
5.52, 3813
5.5225, 3726
5.525, 3689
5.5275, 3667
5.53, 3707
5.5325, 3750
5.535, 3793
5.5375, 3822
5.54, 3820
5.5425, 3887
5.545, 3879
5.5475, 3898
5.55, 3937
5.5525, 3966
5.555, 3948
5.5575, 3923
5.56, 3906
5.5625, 3933
5.565, 3937
5.5675, 3933
5.57, 3942
5.5725, 3956
5.575, 3955
5.5775, 3911
5.58, 3922
5.5825, 3942
5.585, 3982
5.5875, 3984
5.59, 3931
5.5925, 3959
5.595, 3976
5.5975, 3979
5.6, 3990
5.6025, 4020
5.605, 4063
5.6075, 4061
5.61, 4064
5.6125, 4081
5.615, 4090
5.6175, 4084
5.62, 4060
5.6225, 4016
5.625, 4014
5.6275, 4021
5.63, 4040
5.6325, 4021
5.635, 4040
5.6375, 4063
5.64, 4078
5.6425, 4125
5.645, 4098
5.6475, 4109
5.65, 4092
5.6525, 4089
5.655, 4107
5.6575, 4121
5.66, 4085
5.6625, 4088
5.665, 4125
5.6675, 4149
5.67, 4178
5.6725, 4155
5.675, 4113
5.6775, 4112
5.68, 4149
5.6825, 4201
5.685, 4226
5.6875, 4231
5.69, 4225
5.6925, 4225
5.695, 4237
5.6975, 4259
5.7, 4274
5.7025, 4275
5.705, 4261
5.7075, 4245
5.71, 4291
5.7125, 4274
5.715, 4252
5.7175, 4224
5.72, 4202
5.7225, 4210
5.725, 4211
5.7275, 4223
5.73, 4219
5.7325, 4194
5.735, 4193
5.7375, 4183
5.74, 4147
5.7425, 4136
5.745, 4129
5.7475, 4092
5.75, 4086
5.7525, 4118
5.755, 4124
5.7575, 4081
5.76, 4034
5.7625, 4014
5.765, 4005
5.7675, 4000
5.77, 4003
5.7725, 3999
5.775, 4022
5.7775, 4008
5.78, 3983
5.7825, 3942
5.785, 3919
5.7875, 3907
5.79, 3956
5.7925, 3927
5.795, 3912
5.7975, 3945
5.8, 3962
5.8025, 3955
5.805, 3931
5.8075, 3944
5.81, 3980
5.8125, 3987
5.815, 3938
5.8175, 3928
5.82, 3934
5.8225, 3979
5.825, 3973
5.8275, 3995
5.83, 4015
5.8325, 3988
5.835, 3971
5.8375, 3965
5.84, 3933
5.8425, 3968
5.845, 4003
5.8475, 3981
5.85, 4001
5.8525, 4038
5.855, 4045
5.8575, 4065
5.86, 4006
5.8625, 4028
5.865, 4017
5.8675, 3987
5.87, 3996
5.8725, 3982
5.875, 4003
5.8775, 4025
5.88, 4002
5.8825, 3997
5.885, 3978
5.8875, 3969
5.89, 4026
5.8925, 4053
5.895, 4039
5.8975, 4044
5.9, 4046
5.9025, 4057
5.905, 4026
5.9075, 3986
5.91, 3994
5.9125, 4020
5.915, 4003
5.9175, 3997
5.92, 4001
5.9225, 4037
5.925, 4063
5.9275, 4080
5.93, 4068
5.9325, 4025
5.935, 4026
5.9375, 4037
5.94, 4013
5.9425, 4008
5.945, 3976
5.9475, 4000
5.95, 4068
5.9525, 4040
5.955, 4044
5.9575, 4051
5.96, 4053
5.9625, 4087
5.965, 4041
5.9675, 4042
5.97, 4059
5.9725, 4047
5.975, 4063
5.9775, 4065
5.98, 4071
5.9825, 4057
5.985, 4031
5.9875, 4012
5.99, 4050
5.9925, 4029
5.995, 4029
5.9975, 4013
6.0, 4060
6.0025, 4053
6.005, 4041
6.0075, 4034
6.01, 4040
6.0125, 4022
6.015, 4050
6.0175, 4070
6.02, 4043
6.0225, 4060
6.025, 4068
6.0275, 4050
6.03, 4074
6.0325, 4068
6.035, 4076
6.0375, 4042
6.04, 4040
6.0425, 4015
6.045, 4039
6.0475, 4048
6.05, 4073
6.0525, 4063
6.055, 4082
6.0575, 4135
6.06, 4117
6.0625, 4082
6.065, 4066
6.0675, 4026
6.07, 4042
6.0725, 4045
6.075, 4031
6.0775, 4064
6.08, 4065
6.0825, 4050
6.085, 4052
6.0875, 4073
6.09, 4119
6.0925, 4115
6.095, 4101
6.0975, 4079
6.1, 4092
6.1025, 4082
6.105, 4090
6.1075, 4066
6.11, 4062
6.1125, 4043
6.115, 4036
6.1175, 4090
6.12, 4094
6.1225, 4074
6.125, 4060
6.1275, 4021
6.13, 4087
6.1325, 4101
6.135, 4109
6.1375, 4090
6.14, 4086
6.1425, 4081
6.145, 4066
6.1475, 4038
6.15, 4059
6.1525, 4082
6.155, 4052
6.1575, 4044
6.16, 4036
6.1625, 4038
6.165, 4047
6.1675, 4028
6.17, 4060
6.1725, 4061
6.175, 4044
6.1775, 4040
6.18, 4024
6.1825, 4049
6.185, 4050
6.1875, 4061
6.19, 4066
6.1925, 4035
6.195, 4069
6.1975, 4093
6.2, 4064
6.2025, 4046
6.205, 4022
6.2075, 4027
6.21, 4064
6.2125, 4051
6.215, 4048
6.2175, 4089
6.22, 4035
6.2225, 4048
6.225, 4059
6.2275, 4086
6.23, 4089
6.2325, 4083
6.235, 4060
6.2375, 4041
6.24, 4058
6.2425, 4050
6.245, 4054
6.2475, 4059
6.25, 4051
6.2525, 4052
6.255, 4046
6.2575, 4065
6.26, 4048
6.2625, 4051
6.265, 4067
6.2675, 4051
6.27, 4033
6.2725, 4022
6.275, 4040
6.2775, 4077
6.28, 4082
6.2825, 4095
6.285, 4120
6.2875, 4149
6.29, 4142
6.2925, 4126
6.295, 4117
6.2975, 4098
6.3, 4082
6.3025, 4083
6.305, 4105
6.3075, 4127
6.31, 4171
6.3125, 4156
6.315, 4117
6.3175, 4054
6.32, 4064
6.3225, 4029
6.325, 4021
6.3275, 4051
6.33, 4079
6.3325, 4088
6.335, 4046
6.3375, 4030
6.34, 4006
6.3425, 3999
6.345, 4040
6.3475, 4081
6.35, 4067
6.3525, 4071
6.355, 4085
6.3575, 4087
6.36, 4059
6.3625, 4048
6.365, 4076
6.3675, 4078
6.37, 4090
6.3725, 4080
6.375, 4084
6.3775, 4048
6.38, 3998
6.3825, 3937
6.385, 3936
6.3875, 3872
6.39, 3881
6.3925, 3875
6.395, 3924
6.3975, 3973
6.4, 4058
6.4025, 4238
6.405, 4471
6.4075, 4676
6.41, 4895
6.4125, 5146
6.415, 5339
6.4175, 5440
6.42, 5412
6.4225, 5183
6.425, 4927
6.4275, 4732
6.43, 4448
6.4325, 4137
6.435, 3930
6.4375, 3859
6.44, 3742
6.4425, 3666
6.445, 3670
6.4475, 3702
6.45, 3761
6.4525, 3787
6.455, 3875
6.4575, 3926
6.46, 3965
6.4625, 3896
6.465, 3856
6.4675, 3850
6.47, 3876
6.4725, 3908
6.475, 3943
6.4775, 3963
6.48, 3957
6.4825, 3964
6.485, 3978
6.4875, 3944
6.49, 3949
6.4925, 4019
6.495, 3995
6.4975, 4006
6.5, 4014
6.5025, 4014
6.505, 4001
6.5075, 4010
6.51, 4022
6.5125, 4021
6.515, 3978
6.5175, 4001
6.52, 4002
6.5225, 4010
6.525, 4039
6.5275, 4034
6.53, 4047
6.5325, 4090
6.535, 4097
6.5375, 4076
6.54, 4053
6.5425, 4023
6.545, 4043
6.5475, 4049
6.55, 4041
6.5525, 4044
6.555, 4052
6.5575, 4085
6.56, 4076
6.5625, 4107
6.565, 4096
6.5675, 4111
6.57, 4133
6.5725, 4166
6.575, 4144
6.5775, 4138
6.58, 4139
6.5825, 4138
6.585, 4153
6.5875, 4158
6.59, 4151
6.5925, 4166
6.595, 4163
6.5975, 4198
6.6, 4189
6.6025, 4223
6.605, 4253
6.6075, 4216
6.61, 4168
6.6125, 4245
6.615, 4271
6.6175, 4269
6.62, 4232
6.6225, 4236
6.625, 4231
6.6275, 4269
6.63, 4244
6.6325, 4255
6.635, 4222
6.6375, 4186
6.64, 4203
6.6425, 4229
6.645, 4224
6.6475, 4210
6.65, 4194
6.6525, 4180
6.655, 4168
6.6575, 4142
6.66, 4147
6.6625, 4068
6.665, 4039
6.6675, 4067
6.67, 4070
6.6725, 4080
6.675, 4033
6.6775, 4014
6.68, 4000
6.6825, 3941
6.685, 3926
6.6875, 3938
6.69, 3924
6.6925, 3941
6.695, 3938
6.6975, 3922
6.7, 3922
6.7025, 3887
6.705, 3887
6.7075, 3899
6.71, 3892
6.7125, 3873
6.715, 3868
6.7175, 3870
6.72, 3885
6.7225, 3897
6.725, 3909
6.7275, 3934
6.73, 3911
6.7325, 3919
6.735, 3897
6.7375, 3902
6.74, 3929
6.7425, 3901
6.745, 3916
6.7475, 3955
6.75, 3966
6.7525, 3955
6.755, 3959
6.7575, 3970
6.76, 3970
6.7625, 3932
6.765, 3923
6.7675, 3940
6.77, 3948
6.7725, 3986
6.775, 3966
6.7775, 3949
6.78, 3979
6.7825, 3974
6.785, 3946
6.7875, 3958
6.79, 3988
6.7925, 3992
6.795, 4014
6.7975, 4029
6.8, 4063
6.8025, 4055
6.805, 4034
6.8075, 4025
6.81, 4028
6.8125, 4027
6.815, 4026
6.8175, 4032
6.82, 4024
6.8225, 4049
6.825, 4029
6.8275, 4029
6.83, 4042
6.8325, 4066
6.835, 4056
6.8375, 4034
6.84, 4062
6.8425, 4055
6.845, 4059
6.8475, 4025
6.85, 4016
6.8525, 4037
6.855, 4057
6.8575, 4086
6.86, 4061
6.8625, 4030
6.865, 4027
6.8675, 4077
6.87, 4059
6.8725, 4047
6.875, 4036
6.8775, 4079
6.88, 4107
6.8825, 4075
6.885, 4067
6.8875, 4046
6.89, 4035
6.8925, 4029
6.895, 4069
6.8975, 4041
6.9, 4050
6.9025, 4024
6.905, 4036
6.9075, 4040
6.91, 4056
6.9125, 4024
6.915, 4057
6.9175, 4085
6.92, 4054
6.9225, 4031
6.925, 4035
6.9275, 4052
6.93, 4064
6.9325, 4083
6.935, 4116
6.9375, 4139
6.94, 4109
6.9425, 4097
6.945, 4067
6.9475, 4051
6.95, 4039
6.9525, 4030
6.955, 4051
6.9575, 4068
6.96, 4026
6.9625, 4065
6.965, 4068
6.9675, 4105
6.97, 4147
6.9725, 4150
6.975, 4131
6.9775, 4136
6.98, 4123
6.9825, 4073
6.985, 4064
6.9875, 4066
6.99, 4120
6.9925, 4123
6.995, 4099
6.9975, 4079
7.0, 4080
7.0025, 4052
7.005, 4062
7.0075, 4075
7.01, 4075
7.0125, 4081
7.015, 4056
7.0175, 4046
7.02, 4077
7.0225, 4103
7.025, 4059
7.0275, 4072
7.03, 4076
7.0325, 4082
7.035, 4061
7.0375, 4076
7.04, 4084
7.0425, 4090
7.045, 4086
7.0475, 4066
7.05, 4065
7.0525, 4042
7.055, 4037
7.0575, 4085
7.06, 4059
7.0625, 4045
7.065, 4050
7.0675, 4049
7.07, 4057
7.0725, 4056
7.075, 4071
7.0775, 4075
7.08, 4079
7.0825, 4068
7.085, 4063
7.0875, 4059
7.09, 4068
7.0925, 4072
7.095, 4063
7.0975, 4042
7.1, 4031
7.1025, 4068
7.105, 4096
7.1075, 4094
7.11, 4098
7.1125, 4118
7.115, 4111
7.1175, 4095
7.12, 4120
7.1225, 4126
7.125, 4078
7.1275, 4046
7.13, 4072
7.1325, 4067
7.135, 4057
7.1375, 4025
7.14, 4045
7.1425, 4061
7.145, 4067
7.1475, 4045
7.15, 4049
7.1525, 4074
7.155, 4082
7.1575, 4088
7.16, 4100
7.1625, 4067
7.165, 4102
7.1675, 4113
7.17, 4107
7.1725, 4075
7.175, 4071
7.1775, 4073
7.18, 4069
7.1825, 4062
7.185, 4074
7.1875, 4076
7.19, 4085
7.1925, 4056
7.195, 4066
7.1975, 4094
7.2, 4111
7.2025, 4118
7.205, 4077
7.2075, 4062
7.21, 4075
7.2125, 4086
7.215, 4115
7.2175, 4103
7.22, 4083
7.2225, 4078
7.225, 4027
7.2275, 4001
7.23, 4007
7.2325, 4000
7.235, 4055
7.2375, 4041
7.24, 4038
7.2425, 4076
7.245, 4055
7.2475, 4091
7.25, 4097
7.2525, 4089
7.255, 4110
7.2575, 4105
7.26, 4124
7.2625, 4096
7.265, 4054
7.2675, 4078
7.27, 4063
7.2725, 4058
7.275, 4088
7.2775, 4100
7.28, 4112
7.2825, 4132
7.285, 4123
7.2875, 4110
7.29, 4091
7.2925, 4092
7.295, 4086
7.2975, 4064
7.3, 4067
7.3025, 4045
7.305, 4087
7.3075, 4066
7.31, 4050
7.3125, 4054
7.315, 4044
7.3175, 4050
7.32, 4065
7.3225, 4065
7.325, 4035
7.3275, 4029
7.33, 4047
7.3325, 4097
7.335, 4112
7.3375, 4084
7.34, 4089
7.3425, 4052
7.345, 4053
7.3475, 4016
7.35, 3975
7.3525, 3885
7.355, 3824
7.3575, 3868
7.36, 3902
7.3625, 4009
7.365, 4142
7.3675, 4362
7.37, 4563
7.3725, 4781
7.375, 5045
7.3775, 5256
7.38, 5339
7.3825, 5351
7.385, 5189
7.3875, 4948
7.39, 4757
7.3925, 4543
7.395, 4209
7.3975, 3943
7.4, 3825
7.4025, 3742
7.405, 3660
7.4075, 3634
7.41, 3693
7.4125, 3726
7.415, 3807
7.4175, 3876
7.42, 3929
7.4225, 3955
7.425, 3945
7.4275, 3902
7.43, 3903
7.4325, 3878
7.435, 3855
7.4375, 3863
7.44, 3880
7.4425, 3893
7.445, 3939
7.4475, 3957
7.45, 3976
7.4525, 3972
7.455, 3957
7.4575, 3978
7.46, 3975
7.4625, 3970
7.465, 3951
7.4675, 3917
7.47, 3943
7.4725, 3987
7.475, 4021
7.4775, 4002
7.48, 4000
7.4825, 3989
7.485, 3985
7.4875, 3986
7.49, 4018
7.4925, 4025
7.495, 4061
7.4975, 4079
7.5, 4047
7.5025, 4045
7.505, 4025
7.5075, 4015
7.51, 4063
7.5125, 4069
7.515, 4082
7.5175, 4099
7.52, 4097
7.5225, 4094
7.525, 4072
7.5275, 4087
7.53, 4124
7.5325, 4121
7.535, 4132
7.5375, 4144
7.54, 4127
7.5425, 4136
7.545, 4122
7.5475, 4126
7.55, 4143
7.5525, 4137
7.555, 4156
7.5575, 4186
7.56, 4211
7.5625, 4213
7.565, 4173
7.5675, 4181
7.57, 4161
7.5725, 4145
7.575, 4200
7.5775, 4198
7.58, 4214
7.5825, 4227
7.585, 4200
7.5875, 4238
7.59, 4237
7.5925, 4240
7.595, 4269
7.5975, 4250
7.6, 4251
7.6025, 4226
7.605, 4195
7.6075, 4207
7.61, 4242
7.6125, 4238
7.615, 4184
7.6175, 4180
7.62, 4145
7.6225, 4151
7.625, 4132
7.6275, 4078
7.63, 4041
7.6325, 4041
7.635, 4073
7.6375, 4099
7.64, 4065
7.6425, 4017
7.645, 4026
7.6475, 4051
7.65, 4046
7.6525, 4022
7.655, 4007
7.6575, 3960
7.66, 3931
7.6625, 3928
7.665, 3955
7.6675, 3944
7.67, 3938
7.6725, 3938
7.675, 3962
7.6775, 3978
7.68, 3968
7.6825, 3957
7.685, 3956
7.6875, 3934
7.69, 3966
7.6925, 3983
7.695, 3975
7.6975, 3978
7.7, 3979
7.7025, 3981
7.705, 3951
7.7075, 3952
7.71, 3934
7.7125, 3946
7.715, 3946
7.7175, 3974
7.72, 4020
7.7225, 4062
7.725, 4017
7.7275, 3990
7.73, 4012
7.7325, 3969
7.735, 3941
7.7375, 3971
7.74, 3946
7.7425, 3969
7.745, 3977
7.7475, 4012
7.75, 4027
7.7525, 3992
7.755, 4031
7.7575, 4034
7.76, 4057
7.7625, 4027
7.765, 4010
7.7675, 3998
7.77, 4023
7.7725, 4024
7.775, 4052
7.7775, 4052
7.78, 4038
7.7825, 4058
7.785, 4033
7.7875, 3999
7.79, 3986
7.7925, 3983
7.795, 4026
7.7975, 4035
7.8, 4052
7.8025, 4035
7.805, 4025
7.8075, 4020
7.81, 4024
7.8125, 4026
7.815, 4035
7.8175, 4057
7.82, 4052
7.8225, 4058
7.825, 4045
7.8275, 4075
7.83, 4068
7.8325, 4080
7.835, 4108
7.8375, 4124
7.84, 4114
7.8425, 4132
7.845, 4102
7.8475, 4077
7.85, 4091
7.8525, 4108
7.855, 4076
7.8575, 4057
7.86, 4050
7.8625, 4047
7.865, 4017
7.8675, 3997
7.87, 4021
7.8725, 4054
7.875, 4053
7.8775, 4054
7.88, 4060
7.8825, 4080
7.885, 4087
7.8875, 4084
7.89, 4123
7.8925, 4100
7.895, 4087
7.8975, 4121
7.9, 4115
7.9025, 4103
7.905, 4069
7.9075, 4047
7.91, 4065
7.9125, 4078
7.915, 4074
7.9175, 4066
7.92, 4103
7.9225, 4111
7.925, 4104
7.9275, 4112
7.93, 4115
7.9325, 4124
7.935, 4122
7.9375, 4114
7.94, 4047
7.9425, 4016
7.945, 4033
7.9475, 4057
7.95, 4099
7.9525, 4104
7.955, 4080
7.9575, 4068
7.96, 4048
7.9625, 4041
7.965, 4039
7.9675, 4045
7.97, 4037
7.9725, 4063
7.975, 4060
7.9775, 4066
7.98, 4088
7.9825, 4087
7.985, 4061
7.9875, 4051
7.99, 4071
7.9925, 4072
7.995, 4056
7.9975, 4083
8.0, 4086
8.0025, 4075
8.005, 4122
8.0075, 4103
8.01, 4125
8.0125, 4114
8.015, 4074
8.0175, 4073
8.02, 4050
8.0225, 4043
8.025, 4078
8.0275, 4068
8.03, 4096
8.0325, 4114
8.035, 4097
8.0375, 4117
8.04, 4106
8.0425, 4094
8.045, 4097
8.0475, 4079
8.05, 4104
8.0525, 4093
8.055, 4111
8.0575, 4131
8.06, 4135
8.0625, 4143
8.065, 4140
8.0675, 4143
8.07, 4139
8.0725, 4087
8.075, 4060
8.0775, 4073
8.08, 4055
8.0825, 4096
8.085, 4094
8.0875, 4089
8.09, 4107
8.0925, 4118
8.095, 4131
8.0975, 4142
8.1, 4134
8.1025, 4152
8.105, 4120
8.1075, 4159
8.11, 4168
8.1125, 4180
8.115, 4177
8.1175, 4167
8.12, 4133
8.1225, 4111
8.125, 4069
8.1275, 4045
8.13, 4074
8.1325, 4096
8.135, 4116
8.1375, 4138
8.14, 4116
8.1425, 4105
8.145, 4089
8.1475, 4057
8.15, 4068
8.1525, 4075
8.155, 4065
8.1575, 4099
8.16, 4093
8.1625, 4090
8.165, 4098
8.1675, 4127
8.17, 4150
8.1725, 4144
8.175, 4118
8.1775, 4119
8.18, 4114
8.1825, 4105
8.185, 4124
8.1875, 4098
8.19, 4118
8.1925, 4121
8.195, 4152
8.1975, 4141
8.2, 4151
8.2025, 4136
8.205, 4152
8.2075, 4151
8.21, 4127
8.2125, 4115
8.215, 4094
8.2175, 4112
8.22, 4107
8.2225, 4131
8.225, 4126
8.2275, 4087
8.23, 4086
8.2325, 4061
8.235, 4052
8.2375, 4075
8.24, 4072
8.2425, 4078
8.245, 4085
8.2475, 4084
8.25, 4123
8.2525, 4111
8.255, 4137
8.2575, 4108
8.26, 4119
8.2625, 4157
8.265, 4140
8.2675, 4117
8.27, 4101
8.2725, 4109
8.275, 4069
8.2775, 4037
8.28, 3995
8.2825, 3964
8.285, 3953
8.2875, 3962
8.29, 3997
8.2925, 4037
8.295, 4064
8.2975, 4194
8.3, 4327
8.3025, 4540
8.305, 4709
8.3075, 4883
8.31, 5115
8.3125, 5320
8.315, 5376
8.3175, 5393
8.32, 5193
8.3225, 4878
8.325, 4680
8.3275, 4375
8.33, 4097
8.3325, 3906
8.335, 3818
8.3375, 3750
8.34, 3721
8.3425, 3723
8.345, 3765
8.3475, 3795
8.35, 3853
8.3525, 3882
8.355, 3900
8.3575, 3966
8.36, 3969
8.3625, 3996
8.365, 3978
8.3675, 3968
8.37, 3971
8.3725, 3987
8.375, 3980
8.3775, 3941
8.38, 3938
8.3825, 3952
8.385, 3960
8.3875, 3953
8.39, 3932
8.3925, 3947
8.395, 3951
8.3975, 3966
8.4, 4000
8.4025, 4065
8.405, 4028
8.4075, 4003
8.41, 3989
8.4125, 3995
8.415, 3991
8.4175, 4061
8.42, 4069
8.4225, 4038
8.425, 4016
8.4275, 3985
8.43, 3976
8.4325, 3991
8.435, 3978
8.4375, 4008
8.44, 4013
8.4425, 4036
8.445, 4023
8.4475, 4010
8.45, 4027
8.4525, 4066
8.455, 4073
8.4575, 4078
8.46, 4082
8.4625, 4070
8.465, 4057
8.4675, 4071
8.47, 4043
8.4725, 4089
8.475, 4068
8.4775, 4077
8.48, 4106
8.4825, 4134
8.485, 4149
8.4875, 4145
8.49, 4151
8.4925, 4195
8.495, 4217
8.4975, 4170
8.5, 4162
8.5025, 4179
8.505, 4183
8.5075, 4198
8.51, 4209
8.5125, 4185
8.515, 4171
8.5175, 4148
8.52, 4179
8.5225, 4192
8.525, 4231
8.5275, 4251
8.53, 4270
8.5325, 4272
8.535, 4198
8.5375, 4147
8.54, 4170
8.5425, 4146
8.545, 4160
8.5475, 4195
8.55, 4190
8.5525, 4185
8.555, 4144
8.5575, 4137
8.56, 4116
8.5625, 4089
8.565, 4083
8.5675, 4050
8.57, 4047
8.5725, 4036
8.575, 4039
8.5775, 3995
8.58, 4000
8.5825, 3988
8.585, 3954
8.5875, 3916
8.59, 3882
8.5925, 3918
8.595, 3931
8.5975, 3944
8.6, 3933
8.6025, 3916
8.605, 3903
8.6075, 3896
8.61, 3881
8.6125, 3935
8.615, 3922
8.6175, 3932
8.62, 3929
8.6225, 3936
8.625, 3929
8.6275, 3890
8.63, 3857
8.6325, 3876
8.635, 3885
8.6375, 3930
8.64, 3936
8.6425, 3922
8.645, 3933
8.6475, 3927
8.65, 3939
8.6525, 3940
8.655, 3975
8.6575, 3981
8.66, 3986
8.6625, 3956
8.665, 3947
8.6675, 3973
8.67, 3995
8.6725, 4036
8.675, 4051
8.6775, 3987
8.68, 3977
8.6825, 4009
8.685, 4010
8.6875, 4015
8.69, 4000
8.6925, 3995
8.695, 4022
8.6975, 4033
8.7, 4036
8.7025, 4042
8.705, 4018
8.7075, 3994
8.71, 3994
8.7125, 3986
8.715, 3980
8.7175, 3994
8.72, 4014
8.7225, 4022
8.725, 4016
8.7275, 4001
8.73, 4018
8.7325, 4023
8.735, 4037
8.7375, 4069
8.74, 4060
8.7425, 4041
8.745, 3998
8.7475, 4011
8.75, 4034
8.7525, 4044
8.755, 4001
8.7575, 4022
8.76, 4022
8.7625, 3989
8.765, 3962
8.7675, 3998
8.77, 4032
8.7725, 4065
8.775, 4089
8.7775, 4088
8.78, 4091
8.7825, 4071
8.785, 4051
8.7875, 4038
8.79, 4036
8.7925, 4047
8.795, 4060
8.7975, 4032
8.8, 3997
8.8025, 4017
8.805, 4000
8.8075, 3965
8.81, 4013
8.8125, 4031
8.815, 4040
8.8175, 4061
8.82, 4069
8.8225, 4064
8.825, 4040
8.8275, 4006
8.83, 4020
8.8325, 4040
8.835, 4073
8.8375, 4072
8.84, 4089
8.8425, 4076
8.845, 4028
8.8475, 4015
8.85, 4014
8.8525, 4013
8.855, 4027
8.8575, 4081
8.86, 4090
8.8625, 4058
8.865, 4088
8.8675, 4084
8.87, 4053
8.8725, 4067
8.875, 4048
8.8775, 4036
8.88, 4072
8.8825, 4059
8.885, 4080
8.8875, 4055
8.89, 4067
8.8925, 4051
8.895, 4067
8.8975, 4087
8.9, 4107
8.9025, 4138
8.905, 4108
8.9075, 4084
8.91, 4090
8.9125, 4110
8.915, 4077
8.9175, 4069
8.92, 4071
8.9225, 4050
8.925, 4052
8.9275, 4071
8.93, 4090
8.9325, 4074
8.935, 4115
8.9375, 4124
8.94, 4118
8.9425, 4087
8.945, 4080
8.9475, 4038
8.95, 4022
8.9525, 4042
8.955, 4062
8.9575, 4073
8.96, 4119
8.9625, 4111
8.965, 4071
8.9675, 4036
8.97, 4027
8.9725, 4012
8.975, 4031
8.9775, 4039
8.98, 4062
8.9825, 4056
8.985, 4056
8.9875, 4080
8.99, 4098
8.9925, 4092
8.995, 4121
8.9975, 4155
9.0, 4173
9.0025, 4167
9.005, 4120
9.0075, 4083
9.01, 4064
9.0125, 4082
9.015, 4108
9.0175, 4139
9.02, 4164
9.0225, 4164
9.025, 4146
9.0275, 4134
9.03, 4101
9.0325, 4102
9.035, 4073
9.0375, 4045
9.04, 4053
9.0425, 4048
9.045, 4075
9.0475, 4094
9.05, 4098
9.0525, 4061
9.055, 4058
9.0575, 4052
9.06, 4092
9.0625, 4074
9.065, 4074
9.0675, 4058
9.07, 4068
9.0725, 4046
9.075, 4054
9.0775, 4064
9.08, 4073
9.0825, 4057
9.085, 4025
9.0875, 4020
9.09, 3989
9.0925, 3967
9.095, 3902
9.0975, 3866
9.1, 3885
9.1025, 3922
9.105, 3946
9.1075, 4003
9.11, 4148
9.1125, 4347
9.115, 4563
9.1175, 4747
9.12, 4930
9.1225, 5155
9.125, 5310
9.1275, 5345
9.13, 5238
9.1325, 4961
9.135, 4655
9.1375, 4396
9.14, 4179
9.1425, 3976
9.145, 3884
9.1475, 3861
9.15, 3813
9.1525, 3748
9.155, 3690
9.1575, 3732
9.16, 3820
9.1625, 3867
9.165, 3871
9.1675, 3861
9.17, 3876
9.1725, 3912
9.175, 3915
9.1775, 3917
9.18, 3926
9.1825, 3936
9.185, 3954
9.1875, 3949
9.19, 3969
9.1925, 3976
9.195, 4002
9.1975, 4010
9.2, 4042
9.2025, 4023
9.205, 4051
9.2075, 4032
9.21, 4046
9.2125, 4030
9.215, 4017
9.2175, 4023
9.22, 4035
9.2225, 4028
9.225, 4071
9.2275, 4093
9.23, 4062
9.2325, 4062
9.235, 4054
9.2375, 4061
9.24, 4092
9.2425, 4115
9.245, 4119
9.2475, 4114
9.25, 4082
9.2525, 4039
9.255, 4016
9.2575, 4001
9.26, 4007
9.2625, 4046
9.265, 4072
9.2675, 4119
9.27, 4076
9.2725, 4073
9.275, 4075
9.2775, 4083
9.28, 4123
9.2825, 4140
9.285, 4136
9.2875, 4140
9.29, 4150
9.2925, 4166
9.295, 4181
9.2975, 4172
9.3, 4180
9.3025, 4236
9.305, 4286
9.3075, 4308
9.31, 4276
9.3125, 4249
9.315, 4215
9.3175, 4215
9.32, 4237
9.3225, 4200
9.325, 4166
9.3275, 4194
9.33, 4231
9.3325, 4240
9.335, 4274
9.3375, 4301
9.34, 4318
9.3425, 4337
9.345, 4329
9.3475, 4299
9.35, 4265
9.3525, 4285
9.355, 4237
9.3575, 4170
9.36, 4177
9.3625, 4162
9.365, 4127
9.3675, 4140
9.37, 4131
9.3725, 4095
9.375, 4113
9.3775, 4095
9.38, 4045
9.3825, 4042
9.385, 4010
9.3875, 4010
9.39, 3970
9.3925, 3980
9.395, 4006
9.3975, 4036
9.4, 3998
9.4025, 3963
9.405, 3908
9.4075, 3880
9.41, 3892
9.4125, 3878
9.415, 3884
9.4175, 3912
9.42, 3911
9.4225, 3906
9.425, 3897
9.4275, 3909
9.43, 3903
9.4325, 3945
9.435, 3926
9.4375, 3978
9.44, 3977
9.4425, 3979
9.445, 3934
9.4475, 3936
9.45, 3949
9.4525, 3930
9.455, 3937
9.4575, 3960
9.46, 3970
9.4625, 3983
9.465, 3978
9.4675, 3987
9.47, 3977
9.4725, 3966
9.475, 3978
9.4775, 3981
9.48, 3983
9.4825, 3999
9.485, 4014
9.4875, 4008
9.49, 4018
9.4925, 3971
9.495, 3964
9.4975, 4002
9.5, 4008
9.5025, 4022
9.505, 4040
9.5075, 4037
9.51, 4043
9.5125, 4045
9.515, 4022
9.5175, 4021
9.52, 4010
9.5225, 4038
9.525, 4040
9.5275, 4017
9.53, 4021
9.5325, 3995
9.535, 4021
9.5375, 4048
9.54, 4068
9.5425, 4095
9.545, 4067
9.5475, 4075
9.55, 4068
9.5525, 4053
9.555, 4052
9.5575, 4054
9.56, 4043
9.5625, 4089
9.565, 4110
9.5675, 4103
9.57, 4096
9.5725, 4107
9.575, 4076
9.5775, 4105
9.58, 4100
9.5825, 4112
9.585, 4095
9.5875, 4078
9.59, 4068
9.5925, 4070
9.595, 4065
9.5975, 4092
9.6, 4050
9.6025, 4087
9.605, 4082
9.6075, 4050
9.61, 4109
9.6125, 4091
9.615, 4080
9.6175, 4092
9.62, 4108
9.6225, 4112
9.625, 4092
9.6275, 4116
9.63, 4119
9.6325, 4098
9.635, 4104
9.6375, 4090
9.64, 4062
9.6425, 4057
9.645, 4091
9.6475, 4102
9.65, 4104
9.6525, 4083
9.655, 4096
9.6575, 4142
9.66, 4152
9.6625, 4127
9.665, 4088
9.6675, 4084
9.67, 4098
9.6725, 4081
9.675, 4089
9.6775, 4119
9.68, 4131
9.6825, 4144
9.685, 4125
9.6875, 4121
9.69, 4132
9.6925, 4146
9.695, 4162
9.6975, 4156
9.7, 4133
9.7025, 4152
9.705, 4108
9.7075, 4124
9.71, 4141
9.7125, 4141
9.715, 4100
9.7175, 4074
9.72, 4051
9.7225, 4073
9.725, 4091
9.7275, 4064
9.73, 4078
9.7325, 4099
9.735, 4116
9.7375, 4129
9.74, 4126
9.7425, 4122
9.745, 4140
9.7475, 4120
9.75, 4130
9.7525, 4135
9.755, 4143
9.7575, 4166
9.76, 4152
9.7625, 4146
9.765, 4137
9.7675, 4128
9.77, 4166
9.7725, 4160
9.775, 4164
9.7775, 4163
9.78, 4168
9.7825, 4151
9.785, 4141
9.7875, 4150
9.79, 4144
9.7925, 4136
9.795, 4117
9.7975, 4092
9.8, 4087
9.8025, 4111
9.805, 4095
9.8075, 4083
9.81, 4096
9.8125, 4088
9.815, 4098
9.8175, 4070
9.82, 4042
9.8225, 4070
9.825, 4078
9.8275, 4110
9.83, 4148
9.8325, 4114
9.835, 4087
9.8375, 4040
9.84, 4015
9.8425, 3997
9.845, 3973
9.8475, 3953
9.85, 3958
9.8525, 3953
9.855, 4075
9.8575, 4217
9.86, 4438
9.8625, 4687
9.865, 4867
9.8675, 5046
9.87, 5283
9.8725, 5399
9.875, 5441
9.8775, 5343
9.88, 5041
9.8825, 4783
9.885, 4567
9.8875, 4238
9.89, 3960
9.8925, 3841
9.895, 3752
9.8975, 3691
9.9, 3626
9.9025, 3660
9.905, 3719
9.9075, 3778
9.91, 3857
9.9125, 3881
9.915, 3921
9.9175, 3925
9.92, 3938
9.9225, 3942
9.925, 3902
9.9275, 3910
9.93, 3899
9.9325, 3940
9.935, 3962
9.9375, 3989
9.94, 3961
9.9425, 3938
9.945, 3948
9.9475, 3955
9.95, 3980
9.9525, 3994
9.955, 3987
9.9575, 3978
9.96, 3979
9.9625, 4004
9.965, 4051
9.9675, 4058
9.97, 4050
9.9725, 4067
9.975, 4078
9.9775, 4067
9.98, 4051
9.9825, 4072
9.985, 4085
9.9875, 4073
9.99, 4031
9.9925, 4044
9.995, 4031
9.9975, 4068
10.0, 4004
10.0025, 4025
10.005, 4059
10.0075, 4057
10.01, 4081
10.0125, 4055
10.015, 4062
10.0175, 4079
10.02, 4112
10.0225, 4102
10.025, 4078
10.0275, 4075
10.03, 4094
10.0325, 4123
10.035, 4156
10.0375, 4164
10.04, 4180
10.0425, 4163
10.045, 4158
10.0475, 4165
10.05, 4142
10.0525, 4156
10.055, 4160
10.0575, 4192
10.06, 4209
10.0625, 4235
10.065, 4267
10.0675, 4235
10.07, 4203
10.0725, 4184
10.075, 4199
10.0775, 4248
10.08, 4278
10.0825, 4284
10.085, 4278
10.0875, 4237
10.09, 4172
10.0925, 4191
10.095, 4140
10.0975, 4155
10.1, 4164
10.1025, 4181
10.105, 4175
10.1075, 4169
10.11, 4122
10.1125, 4153
10.115, 4123
10.1175, 4089
10.12, 4045
10.1225, 4049
10.125, 4044
10.1275, 4006
10.13, 4012
10.1325, 3937
10.135, 3943
10.1375, 3908
10.14, 3922
10.1425, 3892
10.145, 3881
10.1475, 3868
10.15, 3855
10.1525, 3910
10.155, 3895
10.1575, 3876
10.16, 3882
10.1625, 3904
10.165, 3904
10.1675, 3863
10.17, 3858
10.1725, 3864
10.175, 3853
10.1775, 3877
10.18, 3890
10.1825, 3917
10.185, 3897
10.1875, 3880
10.19, 3867
10.1925, 3895
10.195, 3919
10.1975, 3948
10.2, 3923
10.2025, 3916
10.205, 3919
10.2075, 3933
10.21, 3951
10.2125, 3946
10.215, 3913
10.2175, 3943
10.22, 3965
10.2225, 3949
10.225, 3965
10.2275, 3985
10.23, 3968
10.2325, 3968
10.235, 3945
10.2375, 3972
10.24, 3969
10.2425, 3956
10.245, 3991
10.2475, 3971
10.25, 3977
10.2525, 3991
10.255, 4002
10.2575, 4004
10.26, 3992
10.2625, 4021
10.265, 3994
10.2675, 4005
10.27, 3972
10.2725, 3980
10.275, 4032
10.2775, 3998
10.28, 4037
10.2825, 4036
10.285, 4042
10.2875, 4038
10.29, 4011
10.2925, 4017
10.295, 4013
10.2975, 4041
10.3, 4021
10.3025, 4011
10.305, 4040
10.3075, 4040
10.31, 4029
10.3125, 4031
10.315, 4045
10.3175, 4038
10.32, 4089
10.3225, 4094
10.325, 4105
10.3275, 4090
10.33, 4054
10.3325, 4029
10.335, 4011
10.3375, 3969
10.34, 3967
10.3425, 3993
10.345, 4011
10.3475, 4035
10.35, 4001
10.3525, 4000
10.355, 3946
10.3575, 3955
10.36, 3991
10.3625, 4011
10.365, 4000
10.3675, 3979
10.37, 3972
10.3725, 4000
10.375, 4013
10.3775, 4033
10.38, 4066
10.3825, 4077
10.385, 4076
10.3875, 4048
10.39, 4043
10.3925, 4016
10.395, 3990
10.3975, 4022
10.4, 4045
10.4025, 4114
10.405, 4097
10.4075, 4098
10.41, 4092
10.4125, 4111
10.415, 4115
10.4175, 4095
10.42, 4105
10.4225, 4105
10.425, 4121
10.4275, 4103
10.43, 4062
10.4325, 4050
10.435, 4040
10.4375, 4061
10.44, 4072
10.4425, 4045
10.445, 4050
10.4475, 4044
10.45, 4058
10.4525, 4079
10.455, 4086
10.4575, 4091
10.46, 4091
10.4625, 4067
10.465, 4052
10.4675, 4059
10.47, 4073
10.4725, 4070
10.475, 4073
10.4775, 4051
10.48, 4011
10.4825, 4020
10.485, 4034
10.4875, 3998
10.49, 4004
10.4925, 4025
10.495, 3996
10.4975, 4020
10.5, 4012
10.5025, 4034
10.505, 4052
10.5075, 4082
10.51, 4116
10.5125, 4113
10.515, 4130
10.5175, 4113
10.52, 4088
10.5225, 4089
10.525, 4103
10.5275, 4060
10.53, 4052
10.5325, 4081
10.535, 4080
10.5375, 4114
10.54, 4088
10.5425, 4096
10.545, 4107
10.5475, 4116
10.55, 4121
10.5525, 4098
10.555, 4088
10.5575, 4073
10.56, 4074
10.5625, 4069
10.565, 4082
10.5675, 4082
10.57, 4069
10.5725, 4039
10.575, 4016
10.5775, 4015
10.58, 4049
10.5825, 4045
10.585, 4067
10.5875, 4092
10.59, 4053
10.5925, 4063
10.595, 4038
10.5975, 4021
10.6, 4051
10.6025, 4055
10.605, 4038
10.6075, 3991
10.61, 3967
10.6125, 3950
10.615, 3908
10.6175, 3882
10.62, 3933
10.6225, 3962
10.625, 4062
10.6275, 4167
10.63, 4314
10.6325, 4512
10.635, 4708
10.6375, 4858
10.64, 5119
10.6425, 5293
10.645, 5336
10.6475, 5340
10.65, 5133
10.6525, 4872
10.655, 4671
10.6575, 4384
10.66, 4095
10.6625, 3933
10.665, 3797
10.6675, 3683
10.67, 3653
10.6725, 3656
10.675, 3668
10.6775, 3742
10.68, 3829
10.6825, 3852
10.685, 3896
10.6875, 3934
10.69, 3984
10.6925, 3999
10.695, 3983
10.6975, 3970
10.7, 3934
10.7025, 3948
10.705, 3975
10.7075, 4010
10.71, 4028
10.7125, 4004
10.715, 4014
10.7175, 3969
10.72, 3968
10.7225, 3968
10.725, 3985
10.7275, 3987
10.73, 3973
10.7325, 3971
10.735, 3970
10.7375, 3980
10.74, 3994
10.7425, 4001
10.745, 4010
10.7475, 4049
10.75, 4080
10.7525, 4088
10.755, 4121
10.7575, 4140
10.76, 4125
10.7625, 4057
10.765, 4001
10.7675, 3972
10.77, 3981
10.7725, 4018
10.775, 4064
10.7775, 4053
10.78, 4078
10.7825, 4063
10.785, 4047
10.7875, 4083
10.79, 4119
10.7925, 4144
10.795, 4125
10.7975, 4133
10.8, 4152
10.8025, 4148
10.805, 4156
10.8075, 4135
10.81, 4135
10.8125, 4118
10.815, 4138
10.8175, 4142
10.82, 4155
10.8225, 4164
10.825, 4158
10.8275, 4158
10.83, 4171
10.8325, 4176
10.835, 4191
10.8375, 4188
10.84, 4206
10.8425, 4214
10.845, 4224
10.8475, 4241
10.85, 4233
10.8525, 4291
10.855, 4299
10.8575, 4300
10.86, 4287
10.8625, 4259
10.865, 4208
10.8675, 4221
10.87, 4189
10.8725, 4205
10.875, 4184
10.8775, 4144
10.88, 4110
10.8825, 4071
10.885, 4061
10.8875, 4037
10.89, 4023
10.8925, 4043
10.895, 4073
10.8975, 4094
10.9, 4080
10.9025, 4057
10.905, 3970
10.9075, 3933
10.91, 3947
10.9125, 3927
10.915, 3949
10.9175, 3920
10.92, 3893
10.9225, 3913
10.925, 3908
10.9275, 3926
10.93, 3900
10.9325, 3864
10.935, 3860
10.9375, 3894
10.94, 3955
10.9425, 3971
10.945, 3960
10.9475, 3965
10.95, 3912
10.9525, 3916
10.955, 3946
10.9575, 3970
10.96, 3974
10.9625, 3980
10.965, 4007
10.9675, 4016
10.97, 3997
10.9725, 3950
10.975, 3930
10.9775, 3932
10.98, 3957
10.9825, 3992
10.985, 3966
10.9875, 3940
10.99, 3962
10.9925, 3955
10.995, 3953
10.9975, 3970
11.0, 3971
11.0025, 3991
11.005, 3992
11.0075, 4030
11.01, 4023
11.0125, 3986
11.015, 4009
11.0175, 3984
11.02, 3955
11.0225, 3964
11.025, 4040
11.0275, 4062
11.03, 4052
11.0325, 4033
11.035, 3990
11.0375, 4000
11.04, 4009
11.0425, 3984
11.045, 4026
11.0475, 4021
11.05, 4029
11.0525, 3998
11.055, 4011
11.0575, 3976
11.06, 3942
11.0625, 3978
11.065, 4012
11.0675, 4062
11.07, 4062
11.0725, 4033
11.075, 3997
11.0775, 3989
11.08, 3986
11.0825, 4039
11.085, 4066
11.0875, 4094
11.09, 4086
11.0925, 4083
11.095, 4133
11.0975, 4076
11.1, 4047
11.1025, 4039
11.105, 4054
11.1075, 4032
11.11, 4040
11.1125, 4038
11.115, 4049
11.1175, 4027
11.12, 4014
11.1225, 4036
11.125, 4020
11.1275, 4059
11.13, 4092
11.1325, 4100
11.135, 4065
11.1375, 4059
11.14, 4111
11.1425, 4146
11.145, 4102
11.1475, 4114
11.15, 4094
11.1525, 4100
11.155, 4085
11.1575, 4052
11.16, 4098
11.1625, 4110
11.165, 4084
11.1675, 4064
11.17, 4071
11.1725, 4086
11.175, 4038
11.1775, 4062
11.18, 4086
11.1825, 4152
11.185, 4135
11.1875, 4135
11.19, 4106
11.1925, 4067
11.195, 4111
11.1975, 4092
11.2, 4078
11.2025, 4070
11.205, 4021
11.2075, 4033
11.21, 4073
11.2125, 4110
11.215, 4134
11.2175, 4123
11.22, 4143
11.2225, 4103
11.225, 4032
11.2275, 3983
11.23, 4006
11.2325, 4031
11.235, 4033
11.2375, 4043
11.24, 4075
11.2425, 4058
11.245, 4070
11.2475, 4112
11.25, 4164
11.2525, 4195
11.255, 4155
11.2575, 4113
11.26, 4082
11.2625, 4019
11.265, 4026
11.2675, 4098
11.27, 4111
11.2725, 4116
11.275, 4116
11.2775, 4101
11.28, 4172
11.2825, 4139
11.285, 4122
11.2875, 4116
11.29, 4066
11.2925, 4028
11.295, 4020
11.2975, 4026
11.3, 4055
11.3025, 4027
11.305, 4051
11.3075, 4068
11.31, 4101
11.3125, 4108
11.315, 4092
11.3175, 4048
11.32, 4068
11.3225, 4065
11.325, 4087
11.3275, 4107
11.33, 4097
11.3325, 4076
11.335, 4108
11.3375, 4083
11.34, 4074
11.3425, 4061
11.345, 4025
11.3475, 4049
11.35, 4106
11.3525, 4123
11.355, 4137
11.3575, 4121
11.36, 4091
11.3625, 4087
11.365, 4089
11.3675, 4080
11.37, 4111
11.3725, 4124
11.375, 4128
11.3775, 4098
11.38, 4063
11.3825, 4061
11.385, 4079
11.3875, 4104
11.39, 4115
11.3925, 4163
11.395, 4153
11.3975, 4127
11.4, 4090
11.4025, 4056
11.405, 4016
11.4075, 4073
11.41, 4091
11.4125, 4051
11.415, 4048
11.4175, 3977
11.42, 3941
11.4225, 3951
11.425, 3962
11.4275, 3976
11.43, 4045
11.4325, 4036
11.435, 4062
11.4375, 4096
11.44, 4065
11.4425, 4014
11.445, 4008
11.4475, 4003
11.45, 4026
11.4525, 3960
11.455, 3863
11.4575, 3804
11.46, 3771
11.4625, 3807
11.465, 3812
11.4675, 3893
11.47, 3995
11.4725, 4141
11.475, 4380
11.4775, 4635
11.48, 4875
11.4825, 5166
11.485, 5385
11.4875, 5420
11.49, 5346
11.4925, 5055
11.495, 4814
11.4975, 4629
11.5, 4302
11.5025, 3974
11.505, 3846
11.5075, 3725
11.51, 3601
11.5125, 3584
11.515, 3626
11.5175, 3722
11.52, 3781
11.5225, 3809
11.525, 3895
11.5275, 3981
11.53, 3958
11.5325, 3912
11.535, 3882
11.5375, 3879
11.54, 3890
11.5425, 3902
11.545, 3946
11.5475, 3945
11.55, 3959
11.5525, 3967
11.555, 3981
11.5575, 3997
11.56, 3977
11.5625, 3960
11.565, 3968
11.5675, 4013
11.57, 4017
11.5725, 4004
11.575, 4004
11.5775, 3984
11.58, 3986
11.5825, 3993
11.585, 3988
11.5875, 3975
11.59, 4028
11.5925, 4028
11.595, 4055
11.5975, 4087
11.6, 4081
11.6025, 4095
11.605, 4055
11.6075, 4029
11.61, 4075
11.6125, 4115
11.615, 4161
11.6175, 4181
11.62, 4202
11.6225, 4162
11.625, 4134
11.6275, 4131
11.63, 4136
11.6325, 4137
11.635, 4146
11.6375, 4152
11.64, 4143
11.6425, 4160
11.645, 4169
11.6475, 4194
11.65, 4232
11.6525, 4213
11.655, 4201
11.6575, 4230
11.66, 4248
11.6625, 4241
11.665, 4244
11.6675, 4228
11.67, 4225
11.6725, 4183
11.675, 4193
11.6775, 4186
11.68, 4218
11.6825, 4263
11.685, 4231
11.6875, 4223
11.69, 4238
11.6925, 4267
11.695, 4284
11.6975, 4275
11.7, 4268
11.7025, 4261
11.705, 4247
11.7075, 4223
11.71, 4246
11.7125, 4237
11.715, 4227
11.7175, 4216
11.72, 4200
11.7225, 4204
11.725, 4217
11.7275, 4204
11.73, 4198
11.7325, 4172
11.735, 4101
11.7375, 4082
11.74, 4070
11.7425, 4062
11.745, 4041
11.7475, 4029
11.75, 4031
11.7525, 4009
11.755, 3951
11.7575, 3925
11.76, 3893
11.7625, 3885
11.765, 3863
11.7675, 3858
11.77, 3928
11.7725, 3890
11.775, 3915
11.7775, 3867
11.78, 3879
11.7825, 3902
11.785, 3928
11.7875, 3941
11.79, 3929
11.7925, 3944
11.795, 3961
11.7975, 3993
11.8, 3955
11.8025, 3945
11.805, 3892
11.8075, 3896
11.81, 3919
11.8125, 3933
11.815, 3935
11.8175, 3977
11.82, 3940
11.8225, 3935
11.825, 3952
11.8275, 3943
11.83, 3941
11.8325, 3960
11.835, 3976
11.8375, 4007
11.84, 4016
11.8425, 3985
11.845, 3980
11.8475, 3960
11.85, 4029
11.8525, 4026
11.855, 4053
11.8575, 4075
11.86, 4087
11.8625, 4063
11.865, 4043
11.8675, 4059
11.87, 4081
11.8725, 4105
11.875, 4093
11.8775, 4062
11.88, 4080
11.8825, 4065
11.885, 4057
11.8875, 4038
11.89, 4021
11.8925, 3978
11.895, 4010
11.8975, 4049
11.9, 4047
11.9025, 4035
11.905, 4024
11.9075, 4027
11.91, 4041
11.9125, 4059
11.915, 4036
11.9175, 4006
11.92, 3981
11.9225, 3996
11.925, 3992
11.9275, 4010
11.93, 3988
11.9325, 3936
11.935, 3955
11.9375, 3997
11.94, 3987
11.9425, 3972
11.945, 3957
11.9475, 3931
11.95, 3948
11.9525, 3956
11.955, 3958
11.9575, 3953
11.96, 3946
11.9625, 3953
11.965, 3965
11.9675, 3971
11.97, 3965
11.9725, 3972
11.975, 3979
11.9775, 3995
11.98, 3977
11.9825, 3977
11.985, 3933
11.9875, 3923
11.99, 3934
11.9925, 3931
11.995, 3926
11.9975, 3910
12.0, 3875
12.0025, 3885
12.005, 3920
12.0075, 3938
12.01, 3963
12.0125, 3959
12.015, 3954
12.0175, 3967
12.02, 3972
12.0225, 3986
12.025, 4016
12.0275, 3991
12.03, 3989
12.0325, 3997
12.035, 4019
12.0375, 4015
12.04, 4015
12.0425, 3973
12.045, 3963
12.0475, 3949
12.05, 3969
12.0525, 4010
12.055, 4080
12.0575, 4041
12.06, 3979
12.0625, 3907
12.065, 3895
12.0675, 3971
12.07, 3999
12.0725, 4004
12.075, 4016
12.0775, 4024
12.08, 3993
12.0825, 3994
12.085, 4008
12.0875, 4021
12.09, 4038
12.0925, 4049
12.095, 4048
12.0975, 4075
12.1, 4096
12.1025, 4091
12.105, 4112
12.1075, 4063
12.11, 4069
12.1125, 4079
12.115, 4044
12.1175, 4028
12.12, 4016
12.1225, 3988
12.125, 3996
12.1275, 4042
12.13, 4050
12.1325, 4063
12.135, 4085
12.1375, 4062
12.14, 4074
12.1425, 4071
12.145, 4095
12.1475, 4075
12.15, 4086
12.1525, 4079
12.155, 4114
12.1575, 4111
12.16, 4079
12.1625, 4049
12.165, 4030
12.1675, 4038
12.17, 4021
12.1725, 4034
12.175, 4046
12.1775, 4067
12.18, 4080
12.1825, 4089
12.185, 4127
12.1875, 4153
12.19, 4112
12.1925, 4077
12.195, 4057
12.1975, 3964
12.2, 3961
12.2025, 3985
12.205, 3985
12.2075, 4015
12.21, 4010
12.2125, 4045
12.215, 4062
12.2175, 4049
12.22, 4074
12.2225, 4057
12.225, 4046
12.2275, 4025
12.23, 4029
12.2325, 4060
12.235, 4063
12.2375, 4068
12.24, 4033
12.2425, 4044
12.245, 4092
12.2475, 4049
12.25, 4016
12.2525, 4050
12.255, 4006
12.2575, 3988
12.26, 4063
12.2625, 4043
12.265, 4016
12.2675, 4007
12.27, 3975
12.2725, 3927
12.275, 3936
12.2775, 4012
12.28, 4020
12.2825, 4049
12.285, 4044
12.2875, 4015
12.29, 3974
12.2925, 4009
12.295, 4019
12.2975, 4026
12.3, 4012
12.3025, 3998
12.305, 4008
12.3075, 4077
12.31, 4053
12.3125, 4025
12.315, 3966
12.3175, 3935
12.32, 3949
12.3225, 3952
12.325, 3904
12.3275, 3848
12.33, 3815
12.3325, 3837
12.335, 3903
12.3375, 3963
12.34, 4087
12.3425, 4229
12.345, 4467
12.3475, 4679
12.35, 4860
12.3525, 5080
12.355, 5287
12.3575, 5296
12.36, 5266
12.3625, 5049
12.365, 4757
12.3675, 4548
12.37, 4281
12.3725, 4041
12.375, 3859
12.3775, 3798
12.38, 3744
12.3825, 3685
12.385, 3670
12.3875, 3679
12.39, 3697
12.3925, 3773
12.395, 3829
12.3975, 3889
12.4, 3910
12.4025, 3965
12.405, 3958
12.4075, 3956
12.41, 3923
12.4125, 3987
12.415, 3997
12.4175, 4015
12.42, 3998
12.4225, 3969
12.425, 3944
12.4275, 3922
12.43, 3918
12.4325, 3927
12.435, 3936
12.4375, 3951
12.44, 3958
12.4425, 3961
12.445, 3977
12.4475, 4011
12.45, 4094
12.4525, 4101
12.455, 4031
12.4575, 3981
12.46, 3961
12.4625, 4001
12.465, 4036
12.4675, 4044
12.47, 4027
12.4725, 4029
12.475, 4032
12.4775, 4037
12.48, 4083
12.4825, 4124
12.485, 4135
12.4875, 4130
12.49, 4105
12.4925, 4077
12.495, 4059
12.4975, 4081
12.5, 4060
12.5025, 4071
12.505, 4102
12.5075, 4104
12.51, 4118
12.5125, 4121
12.515, 4156
12.5175, 4157
12.52, 4183
12.5225, 4173
12.525, 4215
12.5275, 4235
12.53, 4245
12.5325, 4267
12.535, 4232
12.5375, 4260
12.54, 4260
12.5425, 4314
12.545, 4237
12.5475, 4208
12.55, 4213
12.5525, 4244
12.555, 4252
12.5575, 4289
12.56, 4290
12.5625, 4268
12.565, 4285
12.5675, 4293
12.57, 4317
12.5725, 4328
12.575, 4260
12.5775, 4232
12.58, 4224
12.5825, 4178
12.585, 4162
12.5875, 4175
12.59, 4169
12.5925, 4203
12.595, 4153
12.5975, 4137
12.6, 4102
12.6025, 4083
12.605, 4043
12.6075, 3958
12.61, 3966
12.6125, 3997
12.615, 3996
12.6175, 3981
12.62, 3971
12.6225, 3986
12.625, 3940
12.6275, 3957
12.63, 3953
12.6325, 3920
12.635, 3906
12.6375, 3875
12.64, 3871
12.6425, 3880
12.645, 3915
12.6475, 3930
12.65, 3934
12.6525, 3949
12.655, 3968
12.6575, 3987
12.66, 3964
12.6625, 3964
12.665, 3942
12.6675, 3955
12.67, 3966
12.6725, 3984
12.675, 3948
12.6775, 3937
12.68, 3971
12.6825, 3942
12.685, 3991
12.6875, 3974
12.69, 3977
12.6925, 3967
12.695, 3974
12.6975, 3975
12.7, 3971
12.7025, 3963
12.705, 3946
12.7075, 3951
12.71, 3950
12.7125, 3998
12.715, 4044
12.7175, 4047
12.72, 4051
12.7225, 4003
12.725, 3984
12.7275, 3968
12.73, 3987
12.7325, 4052
12.735, 4072
12.7375, 4093
12.74, 4080
12.7425, 4075
12.745, 4047
12.7475, 4086
12.75, 4133
12.7525, 4134
12.755, 4164
12.7575, 4155
12.76, 4139
12.7625, 4124
12.765, 4119
12.7675, 4147
12.77, 4206
12.7725, 4233
12.775, 4249
12.7775, 4239
12.78, 4203
12.7825, 4190
12.785, 4227
12.7875, 4235
12.79, 4233
12.7925, 4244
12.795, 4246
12.7975, 4192
12.8, 4195
12.8025, 4185
12.805, 4186
12.8075, 4259
12.81, 4286
12.8125, 4315
12.815, 4273
12.8175, 4192
12.82, 4196
12.8225, 4220
12.825, 4231
12.8275, 4262
12.83, 4250
12.8325, 4271
12.835, 4257
12.8375, 4228
12.84, 4182
12.8425, 4198
12.845, 4176
12.8475, 4172
12.85, 4154
12.8525, 4210
12.855, 4219
12.8575, 4198
12.86, 4160
12.8625, 4113
12.865, 4129
12.8675, 4116
12.87, 4144
12.8725, 4173
12.875, 4176
12.8775, 4151
12.88, 4159
12.8825, 4106
12.885, 4101
12.8875, 4121
12.89, 4114
12.8925, 4123
12.895, 4131
12.8975, 4125
12.9, 4136
12.9025, 4108
12.905, 4074
12.9075, 4056
12.91, 4049
12.9125, 4000
12.915, 4027
12.9175, 3990
12.92, 3992
12.9225, 4012
12.925, 3978
12.9275, 3975
12.93, 3960
12.9325, 3983
12.935, 4020
12.9375, 4025
12.94, 4025
12.9425, 4001
12.945, 3974
12.9475, 3971
12.95, 4017
12.9525, 4031
12.955, 4071
12.9575, 4041
12.96, 4000
12.9625, 3981
12.965, 3956
12.9675, 3969
12.97, 4008
12.9725, 4015
12.975, 4030
12.9775, 4018
12.98, 3989
12.9825, 3970
12.985, 3948
12.9875, 3965
12.99, 3978
12.9925, 3998
12.995, 4034
12.9975, 4067
13.0, 4104
13.0025, 4093
13.005, 4064
13.0075, 4018
13.01, 4016
13.0125, 3981
13.015, 4007
13.0175, 3990
13.02, 4020
13.0225, 4005
13.025, 3977
13.0275, 3983
13.03, 3972
13.0325, 3974
13.035, 4024
13.0375, 4049
13.04, 4029
13.0425, 4028
13.045, 4011
13.0475, 4061
13.05, 4094
13.0525, 4134
13.055, 4141
13.0575, 4128
13.06, 4094
13.0625, 4072
13.065, 4058
13.0675, 4077
13.07, 4145
13.0725, 4203
13.075, 4186
13.0775, 4186
13.08, 4179
13.0825, 4176
13.085, 4105
13.0875, 4073
13.09, 4066
13.0925, 4054
13.095, 4067
13.0975, 4057
13.1, 4089
13.1025, 4106
13.105, 4060
13.1075, 4074
13.11, 4077
13.1125, 4049
13.115, 4063
13.1175, 4108
13.12, 4088
13.1225, 4041
13.125, 4003
13.1275, 3995
13.13, 4065
13.1325, 4100
13.135, 4117
13.1375, 4098
13.14, 4069
13.1425, 4045
13.145, 4022
13.1475, 4008
13.15, 4025
13.1525, 3982
13.155, 3984
13.1575, 3949
13.16, 3955
13.1625, 3981
13.165, 4057
13.1675, 4159
13.17, 4351
13.1725, 4592
13.175, 4805
13.1775, 4973
13.18, 5196
13.1825, 5389
13.185, 5442
13.1875, 5373
13.19, 5089
13.1925, 4732
13.195, 4543
13.1975, 4301
13.2, 4033
13.2025, 3865
13.205, 3762
13.2075, 3723
13.21, 3722
13.2125, 3757
13.215, 3772
13.2175, 3775
13.22, 3844
13.2225, 3906
13.225, 3926
13.2275, 3962
13.23, 3977
13.2325, 4004
13.235, 4015
13.2375, 4015
13.24, 4016
13.2425, 4003
13.245, 4021
13.2475, 4017
13.25, 4004
13.2525, 3998
13.255, 4014
13.2575, 3999
13.26, 3979
13.2625, 3992
13.265, 4004
13.2675, 4029
13.27, 4052
13.2725, 4074
13.275, 4091
13.2775, 4119
13.28, 4123
13.2825, 4095
13.285, 4051
13.2875, 4032
13.29, 4033
13.2925, 4032
13.295, 4063
13.2975, 4078
13.3, 4091
13.3025, 4091
13.305, 4087
13.3075, 4062
13.31, 4073
13.3125, 4067
13.315, 4091
13.3175, 4123
13.32, 4147
13.3225, 4138
13.325, 4160
13.3275, 4138
13.33, 4175
13.3325, 4176
13.335, 4182
13.3375, 4170
13.34, 4193
13.3425, 4162
13.345, 4109
13.3475, 4122
13.35, 4201
13.3525, 4243
13.355, 4261
13.3575, 4278
13.36, 4278
13.3625, 4248
13.365, 4221
13.3675, 4223
13.37, 4223
13.3725, 4258
13.375, 4234
13.3775, 4238
13.38, 4253
13.3825, 4271
13.385, 4290
13.3875, 4266
13.39, 4274
13.3925, 4286
13.395, 4296
13.3975, 4326
13.4, 4303
13.4025, 4317
13.405, 4309
13.4075, 4311
13.41, 4276
13.4125, 4240
13.415, 4200
13.4175, 4169
13.42, 4168
13.4225, 4127
13.425, 4134
13.4275, 4132
13.43, 4155
13.4325, 4116
13.435, 4126
13.4375, 4082
13.44, 4048
13.4425, 4045
13.445, 4015
13.4475, 4009
13.45, 4047
13.4525, 4025
13.455, 4050
13.4575, 4040
13.46, 4002
13.4625, 3973
13.465, 3922
13.4675, 3911
13.47, 3927
13.4725, 3946
13.475, 3936
13.4775, 3919
13.48, 3890
13.4825, 3889
13.485, 3895
13.4875, 3892
13.49, 3913
13.4925, 3956
13.495, 4035
13.4975, 3999
13.5, 3983
13.5025, 3955
13.505, 3943
13.5075, 3966
13.51, 4008
13.5125, 4048
13.515, 4075
13.5175, 4062
13.52, 4012
13.5225, 3953
13.525, 3901
13.5275, 3894
13.53, 3937
13.5325, 3965
13.535, 3960
13.5375, 3993
13.54, 3983
13.5425, 4033
13.545, 4053
13.5475, 4042
13.55, 4017
13.5525, 3994
13.555, 4023
13.5575, 4040
13.56, 4040
13.5625, 4093
13.565, 4095
13.5675, 4117
13.57, 4094
13.5725, 4087
13.575, 4069
13.5775, 4088
13.58, 4075
13.5825, 4059
13.585, 4055
13.5875, 4080
13.59, 4072
13.5925, 4063
13.595, 4040
13.5975, 4023
13.6, 4026
13.6025, 4050
13.605, 4077
13.6075, 4105
13.61, 4104
13.6125, 4087
13.615, 4069
13.6175, 4042
13.62, 4040
13.6225, 4070
13.625, 4092
13.6275, 4063
13.63, 4028
13.6325, 4053
13.635, 4066
13.6375, 4136
13.64, 4225
13.6425, 4237
13.645, 4168
13.6475, 4120
13.65, 4087
13.6525, 4087
13.655, 4084
13.6575, 4039
13.66, 4032
13.6625, 4040
13.665, 4042
13.6675, 4133
13.67, 4175
13.6725, 4184
13.675, 4149
13.6775, 4123
13.68, 4062
13.6825, 4046
13.685, 4007
13.6875, 4006
13.69, 4004
13.6925, 4035
13.695, 4085
13.6975, 4092
13.7, 4090
13.7025, 4127
13.705, 4095
13.7075, 4127
13.71, 4158
13.7125, 4119
13.715, 4106
13.7175, 4072
13.72, 4070
13.7225, 4059
13.725, 4029
13.7275, 3968
13.73, 3988
13.7325, 3983
13.735, 4031
13.7375, 4055
13.74, 4076
13.7425, 4126
13.745, 4162
13.7475, 4148
13.75, 4140
13.7525, 4139
13.755, 4092
13.7575, 4108
13.76, 4107
13.7625, 4078
13.765, 4079
13.7675, 4093
13.77, 4141
13.7725, 4178
13.775, 4152
13.7775, 4121
13.78, 4158
13.7825, 4129
13.785, 4118
13.7875, 4111
13.79, 4096
13.7925, 4153
13.795, 4145
13.7975, 4123
13.8, 4115
13.8025, 4121
13.805, 4158
13.8075, 4130
13.81, 4136
13.8125, 4156
13.815, 4182
13.8175, 4177
13.82, 4155
13.8225, 4106
13.825, 4097
13.8275, 4066
13.83, 4002
13.8325, 3994
13.835, 4007
13.8375, 4075
13.84, 4152
13.8425, 4151
13.845, 4132
13.8475, 4060
13.85, 3999
13.8525, 4005
13.855, 4017
13.8575, 4046
13.86, 4056
13.8625, 4036
13.865, 3982
13.8675, 3999
13.87, 4035
13.8725, 4071
13.875, 4095
13.8775, 4179
13.88, 4177
13.8825, 4169
13.885, 4167
13.8875, 4136
13.89, 4096
13.8925, 4093
13.895, 4162
13.8975, 4250
13.9, 4293
13.9025, 4157
13.905, 4180
13.9075, 4098
13.91, 4077
13.9125, 4083
13.915, 4155
13.9175, 4183
13.92, 4157
13.9225, 4184
13.925, 4171
13.9275, 4136
13.93, 4109
13.9325, 4111
13.935, 4117
13.9375, 4158
13.94, 4206
13.9425, 4250
13.945, 4282
13.9475, 4224
13.95, 4199
13.9525, 4178
13.955, 4203
13.9575, 4212
13.96, 4222
13.9625, 4221
13.965, 4170
13.9675, 4159
13.97, 4180
13.9725, 4146
13.975, 4126
13.9775, 4110
13.98, 4073
13.9825, 4076
13.985, 4091
13.9875, 4109
13.99, 4098
13.9925, 4098
13.995, 4134
13.9975, 4120
14.0, 4152
14.0025, 4148
14.005, 4166
14.0075, 4132
14.01, 4097
14.0125, 4060
14.015, 4008
14.0175, 4019
14.02, 3979
14.0225, 4009
14.025, 4028
14.0275, 4012
14.03, 4072
14.0325, 4126
14.035, 4128
14.0375, 4116
14.04, 4085
14.0425, 4051
14.045, 3993
14.0475, 3918
14.05, 3929
14.0525, 3904
14.055, 3885
14.0575, 3882
14.06, 3901
14.0625, 3845
14.065, 3911
14.0675, 4056
14.07, 4334
14.0725, 4626
14.075, 4838
14.0775, 5056
14.08, 5238
14.0825, 5314
14.085, 5297
14.0875, 5184
14.09, 4913
14.0925, 4751
14.095, 4553
14.0975, 4273
14.1, 4029
14.1025, 3851
14.105, 3674
14.1075, 3591
14.11, 3598
14.1125, 3674
14.115, 3697
14.1175, 3727
14.12, 3824
14.1225, 3882
14.125, 3934
14.1275, 3914
14.13, 3906
14.1325, 3881
14.135, 3899
14.1375, 3852
14.14, 3841
14.1425, 3825
14.145, 3836
14.1475, 3871
14.15, 3853
14.1525, 3881
14.155, 3869
14.1575, 3903
14.16, 3887
14.1625, 3885
14.165, 3861
14.1675, 3813
14.17, 3831
14.1725, 3864
14.175, 3876
14.1775, 3895
14.18, 3911
14.1825, 3905
14.185, 3951
14.1875, 3919
14.19, 3919
14.1925, 3966
14.195, 3989
14.1975, 4049
14.2, 4080
14.2025, 4058
14.205, 3981
14.2075, 3892
14.21, 3873
14.2125, 3891
14.215, 3909
14.2175, 3961
14.22, 3993
14.2225, 4005
14.225, 3992
14.2275, 3995
14.23, 3999
14.2325, 3960
14.235, 3984
14.2375, 3972
14.24, 3959
14.2425, 3976
14.245, 4000
14.2475, 4097
14.25, 4127
14.2525, 4123
14.255, 4107
14.2575, 4141
14.26, 4135
14.2625, 4109
14.265, 4127
14.2675, 4122
14.27, 4144
14.2725, 4158
14.275, 4130
14.2775, 4136
14.28, 4188
14.2825, 4236
14.285, 4197
14.2875, 4207
14.29, 4166
14.2925, 4189
14.295, 4191
14.2975, 4208
14.3, 4235
14.3025, 4219
14.305, 4188
14.3075, 4143
14.31, 4130
14.3125, 4171
14.315, 4176
14.3175, 4184
14.32, 4172
14.3225, 4136
14.325, 4125
14.3275, 4075
14.33, 4046
14.3325, 4072
14.335, 4104
14.3375, 4102
14.34, 4105
14.3425, 4097
14.345, 4086
14.3475, 4053
14.35, 4023
14.3525, 3962
14.355, 3936
14.3575, 3958
14.36, 3908
14.3625, 3904
14.365, 3869
14.3675, 3911
14.37, 3916
14.3725, 3972
14.375, 3991
14.3775, 3971
14.38, 3983
14.3825, 3959
14.385, 3942
14.3875, 3967
14.39, 3969
14.3925, 4006
14.395, 3981
14.3975, 3973
14.4, 3977
14.4025, 3991
14.405, 3977
14.4075, 3964
14.41, 3929
14.4125, 3941
14.415, 3982
14.4175, 3968
14.42, 3976
14.4225, 3980
14.425, 3954
14.4275, 3952
14.43, 3920
14.4325, 3875
14.435, 3938
14.4375, 3937
14.44, 3935
14.4425, 3959
14.445, 3947
14.4475, 3915
14.45, 3835
14.4525, 3848
14.455, 3880
14.4575, 3962
14.46, 3987
14.4625, 3968
14.465, 3933
14.4675, 3909
14.47, 3996
14.4725, 4071
14.475, 4108
14.4775, 4068
14.48, 4048
14.4825, 4076
14.485, 4063
14.4875, 4105
14.49, 4089
14.4925, 4084
14.495, 4052
14.4975, 4036
14.5, 3993
14.5025, 3987
14.505, 4009
14.5075, 4003
14.51, 4001
14.5125, 4018
14.515, 4075
14.5175, 4129
14.52, 4146
14.5225, 4097
14.525, 4060
14.5275, 4111
14.53, 4149
14.5325, 4138
14.535, 4158
14.5375, 4101
14.54, 4083
14.5425, 4125
14.545, 4178
14.5475, 4202
14.55, 4151
14.5525, 4107
14.555, 4093
14.5575, 4119
14.56, 4161
14.5625, 4181
14.565, 4193
14.5675, 4208
14.57, 4204
14.5725, 4219
14.575, 4229
14.5775, 4226
14.58, 4287
14.5825, 4322
14.585, 4368
14.5875, 4396
14.59, 4387
14.5925, 4387
14.595, 4373
14.5975, 4313
14.6, 4319
14.6025, 4330
14.605, 4322
14.6075, 4349
14.61, 4338
14.6125, 4393
14.615, 4378
14.6175, 4388
14.62, 4371
14.6225, 4326
14.625, 4279
14.6275, 4264
14.63, 4220
14.6325, 4188
14.635, 4145
14.6375, 4147
14.64, 4180
14.6425, 4150
14.645, 4176
14.6475, 4169
14.65, 4163
14.6525, 4109
14.655, 4110
14.6575, 4114
14.66, 4098
14.6625, 4043
14.665, 4025
14.6675, 4022
14.67, 4038
14.6725, 4041
14.675, 4028
14.6775, 4065
14.68, 4041
14.6825, 3973
14.685, 3916
14.6875, 3915
14.69, 3920
14.6925, 3984
14.695, 4026
14.6975, 4046
14.7, 4042
14.7025, 4025
14.705, 4018
14.7075, 4025
14.71, 3998
14.7125, 4015
14.715, 4004
14.7175, 3957
14.72, 3976
14.7225, 3996
14.725, 3997
14.7275, 4056
14.73, 4071
14.7325, 4064
14.735, 4015
14.7375, 3988
14.74, 3934
14.7425, 3913
14.745, 3879
14.7475, 3909
14.75, 3894
14.7525, 3881
14.755, 3867
14.7575, 3855
14.76, 3891
14.7625, 3873
14.765, 3879
14.7675, 3900
14.77, 3873
14.7725, 3871
14.775, 3885
14.7775, 3926
14.78, 3906
14.7825, 3917
14.785, 3875
14.7875, 3825
14.79, 3822
14.7925, 3899
14.795, 3946
14.7975, 4009
14.8, 4024
14.8025, 3987
14.805, 3933
14.8075, 3872
14.81, 3809
14.8125, 3740
14.815, 3794
14.8175, 3847
14.82, 3897
14.8225, 3900
14.825, 3879
14.8275, 3831
14.83, 3840
14.8325, 3865
14.835, 3888
14.8375, 3891
14.84, 3921
14.8425, 3919
14.845, 3912
14.8475, 3936
14.85, 3935
14.8525, 3931
14.855, 3908
14.8575, 3929
14.86, 3928
14.8625, 3937
14.865, 3946
14.8675, 3930
14.87, 3937
14.8725, 3940
14.875, 3969
14.8775, 3937
14.88, 3937
14.8825, 3925
14.885, 3869
14.8875, 3893
14.89, 3921
14.8925, 3988
14.895, 4017
14.8975, 4043
14.9, 4060
14.9025, 4049
14.905, 4025
14.9075, 4011
14.91, 4033
14.9125, 4033
14.915, 4101
14.9175, 4098
14.92, 4102
14.9225, 4071
14.925, 4032
14.9275, 4071
14.93, 4068
14.9325, 4062
14.935, 4003
14.9375, 3940
14.94, 3937
14.9425, 3949
14.945, 3944
14.9475, 3979
14.95, 4027
14.9525, 3986
14.955, 3940
14.9575, 3921
14.96, 3903
14.9625, 3928
14.965, 3924
14.9675, 3928
14.97, 3924
14.9725, 3957
14.975, 3979
14.9775, 4000
14.98, 3977
14.9825, 3979
14.985, 3983
14.9875, 4006
14.99, 4028
14.9925, 4045
14.995, 3994
14.9975, 3955
15.0, 3909
15.0025, 3894
15.005, 3886
15.0075, 3933
15.01, 3984
15.0125, 4121
15.015, 4358
15.0175, 4555
15.02, 4723
15.0225, 4876
15.025, 5092
15.0275, 5296
15.03, 5335
15.0325, 5239
15.035, 5025
15.0375, 4795
15.04, 4631
15.0425, 4343
15.045, 4048
15.0475, 3884
15.05, 3805
15.0525, 3694
15.055, 3694
15.0575, 3717
15.06, 3727
15.0625, 3780
15.065, 3847
15.0675, 3875
15.07, 3903
15.0725, 3955
15.075, 3999
15.0775, 4036
15.08, 4002
15.0825, 3996
15.085, 3971
15.0875, 3948
15.09, 3975
15.0925, 4073
15.095, 4074
15.0975, 4049
15.1, 3981
15.1025, 4006
15.105, 3981
15.1075, 3979
15.11, 3989
15.1125, 4007
15.115, 4018
15.1175, 4052
15.12, 4033
15.1225, 4063
15.125, 4067
15.1275, 4041
15.13, 4061
15.1325, 4055
15.135, 4043
15.1375, 4010
15.14, 3995
15.1425, 3995
15.145, 4018
15.1475, 4053
15.15, 4098
15.1525, 4117
15.155, 4094
15.1575, 4137
15.16, 4084
15.1625, 4149
15.165, 4159
15.1675, 4161
15.17, 4151
15.1725, 4148
15.175, 4188
15.1775, 4262
15.18, 4267
15.1825, 4288
15.185, 4257
15.1875, 4258
15.19, 4228
15.1925, 4216
15.195, 4264
15.1975, 4304
15.2, 4329
15.2025, 4346
15.205, 4335
15.2075, 4314
15.21, 4298
15.2125, 4309
15.215, 4349
15.2175, 4374
15.22, 4377
15.2225, 4366
15.225, 4314
15.2275, 4259
15.23, 4269
15.2325, 4290
15.235, 4329
15.2375, 4357
15.24, 4372
15.2425, 4372
15.245, 4410
15.2475, 4361
15.25, 4351
15.2525, 4305
15.255, 4321
15.2575, 4369
15.26, 4368
15.2625, 4356
15.265, 4307
15.2675, 4253
15.27, 4254
15.2725, 4218
15.275, 4197
15.2775, 4203
15.28, 4181
15.2825, 4205
15.285, 4157
15.2875, 4041
15.29, 4060
15.2925, 4036
15.295, 4035
15.2975, 4034
15.3, 4008
15.3025, 4019
15.305, 3963
15.3075, 3995
15.31, 3980
15.3125, 3956
15.315, 3989
15.3175, 4014
15.32, 4014
15.3225, 4036
15.325, 4064
15.3275, 4040
15.33, 4036
15.3325, 4058
15.335, 4088
15.3375, 4050
15.34, 4037
15.3425, 4085
15.345, 4073
15.3475, 4085
15.35, 4110
15.3525, 4073
15.355, 4049
15.3575, 4046
15.36, 4019
15.3625, 3996
15.365, 3976
15.3675, 4028
15.37, 4007
15.3725, 3980
15.375, 3979
15.3775, 3989
15.38, 3990
15.3825, 4012
15.385, 4026
15.3875, 4019
15.39, 4024
15.3925, 3989
15.395, 4011
15.3975, 4096
15.4, 4023
15.4025, 4050
15.405, 3996
15.4075, 3938
15.41, 3885
15.4125, 3880
15.415, 3923
15.4175, 3927
15.42, 3927
15.4225, 3970
15.425, 4030
15.4275, 4022
15.43, 3996
15.4325, 3982
15.435, 3930
15.4375, 3950
15.44, 3954
15.4425, 3981
15.445, 4008
15.4475, 4029
15.45, 4089
15.4525, 4025
15.455, 4029
15.4575, 4004
15.46, 3939
15.4625, 3909
15.465, 3929
15.4675, 3996
15.47, 4037
15.4725, 4026
15.475, 4002
15.4775, 4003
15.48, 4052
15.4825, 4060
15.485, 4042
15.4875, 4050
15.49, 4048
15.4925, 4017
15.495, 4018
15.4975, 3981
15.5, 4008
15.5025, 4050
15.505, 4051
15.5075, 4086
15.51, 4089
15.5125, 4088
15.515, 4056
15.5175, 4069
15.52, 4107
15.5225, 4109
15.525, 4160
15.5275, 4169
15.53, 4158
15.5325, 4184
15.535, 4181
15.5375, 4117
15.54, 4063
15.5425, 4072
15.545, 4085
15.5475, 4071
15.55, 4044
15.5525, 4048
15.555, 4123
15.5575, 4212
15.56, 4233
15.5625, 4271
15.565, 4174
15.5675, 4051
15.57, 4011
15.5725, 3998
15.575, 4082
15.5775, 4129
15.58, 4098
15.5825, 4121
15.585, 4114
15.5875, 4114
15.59, 4094
15.5925, 4085
15.595, 4129
15.5975, 4171
15.6, 4126
15.6025, 4218
15.605, 4239
15.6075, 4249
15.61, 4231
15.6125, 4091
15.615, 4035
15.6175, 4035
15.62, 4090
15.6225, 4120
15.625, 4134
15.6275, 4140
15.63, 4141
15.6325, 4147
15.635, 4117
15.6375, 4167
15.64, 4133
15.6425, 4105
15.645, 4208
15.6475, 4159
15.65, 4228
15.6525, 4282
15.655, 4164
15.6575, 4108
15.66, 4077
15.6625, 4125
15.665, 4138
15.6675, 4139
15.67, 4173
15.6725, 4204
15.675, 4237
15.6775, 4202
15.68, 4181
15.6825, 4171
15.685, 4189
15.6875, 4219
15.69, 4245
15.6925, 4246
15.695, 4303
15.6975, 4295
15.7, 4251
15.7025, 4225
15.705, 4227
15.7075, 4189
15.71, 4239
15.7125, 4251
15.715, 4289
15.7175, 4313
15.72, 4498
15.7225, 4550
15.725, 4434
15.7275, 4255
15.73, 4257
15.7325, 4245
15.735, 4224
15.7375, 4221
15.74, 4212
15.7425, 4218
15.745, 4272
15.7475, 4317
15.75, 4236
15.7525, 4274
15.755, 4321
15.7575, 4222
15.76, 4199
15.7625, 4245
15.765, 4233
15.7675, 4181
15.77, 4123
15.7725, 4156
15.775, 4181
15.7775, 4219
15.78, 4199
15.7825, 4124
15.785, 4182
15.7875, 4066
15.79, 4104
15.7925, 4270
15.795, 4286
15.7975, 4283
15.8, 4297
15.8025, 4296
15.805, 4139
15.8075, 4120
15.81, 4205
15.8125, 4269
15.815, 4291
15.8175, 4225
15.82, 4280
15.8225, 4191
15.825, 4228
15.8275, 4198
15.83, 4227
15.8325, 4205
15.835, 4101
15.8375, 4018
15.84, 4125
15.8425, 4196
15.845, 4198
15.8475, 4142
15.85, 4141
15.8525, 4124
15.855, 4097
15.8575, 4035
15.86, 4222
15.8625, 4138
15.865, 4139
15.8675, 4089
15.87, 4042
15.8725, 4149
15.875, 4126
15.8775, 4181
15.88, 4279
15.8825, 4156
15.885, 4078
15.8875, 4065
15.89, 3862
15.8925, 3782
15.895, 3937
15.8975, 3967
15.9, 4090
15.9025, 4136
15.905, 4424
15.9075, 4754
15.91, 4792
15.9125, 4917
15.915, 5250
15.9175, 5448
15.92, 5246
15.9225, 5260
15.925, 5029
15.9275, 4704
15.93, 4559
15.9325, 4325
15.935, 4172
15.9375, 4092
15.94, 4041
15.9425, 3799
15.945, 3757
15.9475, 3773
15.95, 3863
15.9525, 3934
15.955, 4000
15.9575, 4035
15.96, 4095
15.9625, 4204
15.965, 4269
15.9675, 4187
15.97, 4132
15.9725, 4153
15.975, 4104
15.9775, 4081
15.98, 4131
15.9825, 4145
15.985, 4075
15.9875, 4054
15.99, 4114
15.9925, 4159
15.995, 4101
15.9975, 4073
16.0, 4123
16.0025, 4049
16.005, 4246
16.0075, 4270
16.01, 4164
16.0125, 4134
16.015, 4158
16.0175, 4114
16.02, 4172
16.0225, 4179
16.025, 4144
16.0275, 4022
16.03, 4012
16.0325, 4090
16.035, 4110
16.0375, 4138
16.04, 4146
16.0425, 4090
16.045, 4091
16.0475, 4048
16.05, 3973
16.0525, 4049
16.055, 4046
16.0575, 4099
16.06, 4146
16.0625, 4136
16.065, 4091
16.0675, 4055
16.07, 4040
16.0725, 4002
16.075, 3887
16.0775, 4006
16.08, 4160
16.0825, 4138
16.085, 4246
16.0875, 4246
16.09, 4119
16.0925, 3890
16.095, 3770
16.0975, 3631
16.1, 4065
16.1025, 4211
16.105, 4433
16.1075, 4397
16.11, 4322
16.1125, 4316
16.115, 4268
16.1175, 4221
16.12, 3894
16.1225, 4127
16.125, 4236
16.1275, 4224
16.13, 4113
16.1325, 4112
16.135, 4043
16.1375, 3969
16.14, 4081
16.1425, 4095
16.145, 4091
16.1475, 4006
16.15, 4045
16.1525, 4061
16.155, 4055
16.1575, 3977
16.16, 3927
16.1625, 3990
16.165, 3956
16.1675, 3856
16.17, 3953
16.1725, 3961
16.175, 3896
16.1775, 4057
16.18, 3561
16.1825, 3433
16.185, 3536
16.1875, 3620
16.19, 3679
16.1925, 3781
16.195, 3801
16.1975, 3745
16.2, 3664
16.2025, 3731
16.205, 3790
16.2075, 3719
16.21, 3854
16.2125, 3685
16.215, 3637
16.2175, 3660
16.22, 3682
16.2225, 3699
16.225, 3725
16.2275, 3820
16.23, 3784
16.2325, 3693
16.235, 3629
16.2375, 3620
16.24, 3673
16.2425, 3630
16.245, 3659
16.2475, 3765
16.25, 3769
16.2525, 3780
16.255, 3778
16.2575, 3746
16.26, 3779
16.2625, 3797
16.265, 3752
16.2675, 3821
16.27, 3819
16.2725, 3919
16.275, 3718
16.2775, 3823
16.28, 3851
16.2825, 4023
16.285, 4007
16.2875, 3830
16.29, 3818
16.2925, 3926
16.295, 3836
16.2975, 3794
16.3, 3799
16.3025, 3817
16.305, 3901
16.3075, 3884
16.31, 3873
16.3125, 3868
16.315, 3919
16.3175, 3949
16.32, 3948
16.3225, 3920
16.325, 3910
16.3275, 3925
16.33, 3972
16.3325, 4004
16.335, 4020
16.3375, 4050
16.34, 4040
16.3425, 4026
16.345, 4101
16.3475, 4161
16.35, 4107
16.3525, 4016
16.355, 3966
16.3575, 3968
16.36, 3991
16.3625, 4024
16.365, 4010
16.3675, 4018
16.37, 3999
16.3725, 3992
16.375, 3999
16.3775, 3980
16.38, 3934
16.3825, 3926
16.385, 3946
16.3875, 4004
16.39, 3977
16.3925, 3963
16.395, 3944
16.3975, 3957
16.4, 4019
16.4025, 3981
16.405, 3885
16.4075, 3915
16.41, 3864
16.4125, 3841
16.415, 3815
16.4175, 3851
16.42, 3879
16.4225, 3885
16.425, 3922
16.4275, 3946
16.43, 3915
16.4325, 3879
16.435, 3873
16.4375, 3839
16.44, 3886
16.4425, 3841
16.445, 3772
16.4475, 3813
16.45, 3832
16.4525, 3886
16.455, 3864
16.4575, 3868
16.46, 3852
16.4625, 3842
16.465, 3839
16.4675, 3882
16.47, 3900
16.4725, 3898
16.475, 3893
16.4775, 3884
16.48, 3899
16.4825, 3885
16.485, 3888
16.4875, 3932
16.49, 3947
16.4925, 3964
16.495, 3986
16.4975, 3983
16.5, 3973
16.5025, 3992
16.505, 4013
16.5075, 3984
16.51, 3943
16.5125, 3947
16.515, 3981
16.5175, 3945
16.52, 3948
16.5225, 3969
16.525, 3989
16.5275, 3984
16.53, 4092
16.5325, 4101
16.535, 4131
16.5375, 4012
16.54, 3948
16.5425, 3998
16.545, 3990
16.5475, 4040
16.55, 4039
16.5525, 4065
16.555, 4074
16.5575, 4078
16.56, 4086
16.5625, 4084
16.565, 4095
16.5675, 4120
16.57, 4125
16.5725, 4091
16.575, 4086
16.5775, 4062
16.58, 4058
16.5825, 4067
16.585, 4004
16.5875, 4065
16.59, 4092
16.5925, 4064
16.595, 4047
16.5975, 4016
16.6, 3977
16.6025, 3961
16.605, 3953
16.6075, 3974
16.61, 3974
16.6125, 3990
16.615, 4011
16.6175, 4062
16.62, 4063
16.6225, 4042
16.625, 4013
16.6275, 3972
16.63, 3975
16.6325, 3941
16.635, 3866
16.6375, 3832
16.64, 3835
16.6425, 3818
16.645, 3857
16.6475, 4024
16.65, 4171
16.6525, 4400
16.655, 4539
16.6575, 4763
16.66, 4958
16.6625, 5212
16.665, 5321
16.6675, 5376
16.67, 5200
16.6725, 4892
16.675, 4654
16.6775, 4353
16.68, 4074
16.6825, 3936
16.685, 3831
16.6875, 3689
16.69, 3657
16.6925, 3665
16.695, 3642
16.6975, 3667
16.7, 3719
16.7025, 3765
16.705, 3814
16.7075, 3851
16.71, 3872
16.7125, 3901
16.715, 3960
16.7175, 3976
16.72, 3994
16.7225, 3955
16.725, 3909
16.7275, 3924
16.73, 3946
16.7325, 3929
16.735, 3941
16.7375, 3950
16.74, 3980
16.7425, 4023
16.745, 4053
16.7475, 4112
16.75, 4139
16.7525, 4099
16.755, 4068
16.7575, 4067
16.76, 4069
16.7625, 4083
16.765, 4069
16.7675, 4109
16.77, 4159
16.7725, 4120
16.775, 4157
16.7775, 4138
16.78, 4155
16.7825, 4187
16.785, 4196
16.7875, 4149
16.79, 4102
16.7925, 4078
16.795, 4073
16.7975, 4081
16.8, 4051
16.8025, 4059
16.805, 4082
16.8075, 4123
16.81, 4149
16.8125, 4160
16.815, 4136
16.8175, 4162
16.82, 4174
16.8225, 4176
16.825, 4164
16.8275, 4153
16.83, 4163
16.8325, 4192
16.835, 4174
16.8375, 4159
16.84, 4148
16.8425, 4100
16.845, 4137
16.8475, 4178
16.85, 4240
16.8525, 4268
16.855, 4262
16.8575, 4246
16.86, 4244
16.8625, 4290
16.865, 4286
16.8675, 4311
16.87, 4331
16.8725, 4314
16.875, 4334
16.8775, 4363
16.88, 4310
16.8825, 4310
16.885, 4330
16.8875, 4406
16.89, 4405
16.8925, 4436
16.895, 4394
16.8975, 4283
16.9, 4246
16.9025, 4196
16.905, 4158
16.9075, 4072
16.91, 4063
16.9125, 4047
16.915, 4050
16.9175, 4009
16.92, 3989
16.9225, 3990
16.925, 4000
16.9275, 4073
16.93, 4019
16.9325, 3987
16.935, 4008
16.9375, 3983
16.94, 3966
16.9425, 3930
16.945, 3904
16.9475, 3943
16.95, 3937
16.9525, 3932
16.955, 3928
16.9575, 3908
16.96, 3899
16.9625, 3899
16.965, 3892
16.9675, 3894
16.97, 3941
16.9725, 3962
16.975, 3956
16.9775, 3943
16.98, 3917
16.9825, 3929
16.985, 3919
16.9875, 3955
16.99, 3955
16.9925, 3966
16.995, 3966
16.9975, 3987
17.0, 4004
17.0025, 4016
17.005, 4030
17.0075, 4011
17.01, 4005
17.0125, 4078
17.015, 4074
17.0175, 4109
17.02, 4131
17.0225, 4112
17.025, 4133
17.0275, 4111
17.03, 4128
17.0325, 4133
17.035, 4250
17.0375, 4284
17.04, 4257
17.0425, 4362
17.045, 4400
17.0475, 4460
17.05, 4454
17.0525, 4406
17.055, 4375
17.0575, 4305
17.06, 4259
17.0625, 4268
17.065, 4271
17.0675, 4248
17.07, 4260
17.0725, 4234
17.075, 4244
17.0775, 4236
17.08, 4216
17.0825, 4253
17.085, 4326
17.0875, 4345
17.09, 4296
17.0925, 4227
17.095, 4167
17.0975, 4116
17.1, 4115
17.1025, 4101
17.105, 4050
17.1075, 4023
17.11, 4040
17.1125, 4062
17.115, 4120
17.1175, 4145
17.12, 4138
17.1225, 4101
17.125, 4126
17.1275, 4108
17.13, 4094
17.1325, 4091
17.135, 4069
17.1375, 4017
17.14, 4011
17.1425, 3956
17.145, 3920
17.1475, 3900
17.15, 3938
17.1525, 3945
17.155, 3978
17.1575, 4000
17.16, 4009
17.1625, 4033
17.165, 4008
17.1675, 3978
17.17, 4021
17.1725, 4009
17.175, 3946
17.1775, 3926
17.18, 3921
17.1825, 3938
17.185, 3980
17.1875, 4004
17.19, 4041
17.1925, 4043
17.195, 4048
17.1975, 4132
17.2, 4140
17.2025, 4158
17.205, 4184
17.2075, 4195
17.21, 4209
17.2125, 4176
17.215, 4125
17.2175, 4100
17.22, 4104
17.2225, 4124
17.225, 4115
17.2275, 4122
17.23, 4156
17.2325, 4143
17.235, 4147
17.2375, 4192
17.24, 4201
17.2425, 4173
17.245, 4199
17.2475, 4203
17.25, 4217
17.2525, 4216
17.255, 4199
17.2575, 4213
17.26, 4207
17.2625, 4192
17.265, 4207
17.2675, 4213
17.27, 4213
17.2725, 4185
17.275, 4144
17.2775, 4137
17.28, 4133
17.2825, 4112
17.285, 4152
17.2875, 4129
17.29, 4166
17.2925, 4125
17.295, 4098
17.2975, 4098
17.3, 4023
17.3025, 3980
17.305, 3986
17.3075, 3965
17.31, 3984
17.3125, 3996
17.315, 4012
17.3175, 4037
17.32, 4007
17.3225, 3978
17.325, 3965
17.3275, 3960
17.33, 3938
17.3325, 3924
17.335, 3956
17.3375, 3959
17.34, 3907
17.3425, 3831
17.345, 3738
17.3475, 3705
17.35, 3737
17.3525, 3744
17.355, 3820
17.3575, 3977
17.36, 4162
17.3625, 4425
17.365, 4592
17.3675, 4784
17.37, 5056
17.3725, 5227
17.375, 5294
17.3775, 5181
17.38, 4888
17.3825, 4651
17.385, 4516
17.3875, 4235
17.39, 3948
17.3925, 3811
17.395, 3700
17.3975, 3622
17.4, 3646
17.4025, 3700
17.405, 3748
17.4075, 3835
17.41, 3849
17.4125, 3805
17.415, 3792
17.4175, 3799
17.42, 3829
17.4225, 3843
17.425, 3826
17.4275, 3782
17.43, 3838
17.4325, 3855
17.435, 3857
17.4375, 3862
17.44, 3849
17.4425, 3960
17.445, 3977
17.4475, 3933
17.45, 3909
17.4525, 3838
17.455, 3877
17.4575, 3892
17.46, 3946
17.4625, 3970
17.465, 3997
17.4675, 4003
17.47, 3978
17.4725, 3877
17.475, 3862
17.4775, 3882
17.48, 3894
17.4825, 3949
17.485, 3976
17.4875, 3986
17.49, 4020
17.4925, 4001
17.495, 3978
17.4975, 3959
17.5, 3947
17.5025, 3992
17.505, 4017
17.5075, 3935
17.51, 3917
17.5125, 3974
17.515, 4051
17.5175, 4107
17.52, 4093
17.5225, 4102
17.525, 4112
17.5275, 4080
17.53, 4050
17.5325, 4012
17.535, 4010
17.5375, 3996
17.54, 4081
17.5425, 4105
17.545, 4144
17.5475, 4132
17.55, 4103
17.5525, 4126
17.555, 4057
17.5575, 4041
17.56, 4013
17.5625, 4011
17.565, 4035
17.5675, 4099
17.57, 4163
17.5725, 4188
17.575, 4260
17.5775, 4344
17.58, 4348
17.5825, 4274
17.585, 4148
17.5875, 4104
17.59, 4133
17.5925, 4162
17.595, 4178
17.5975, 4165
17.6, 4117
17.6025, 4128
17.605, 4159
17.6075, 4184
17.61, 4197
17.6125, 4191
17.615, 4152
17.6175, 4099
17.62, 4063
17.6225, 4024
17.625, 3987
17.6275, 3967
17.63, 3957
17.6325, 3927
17.635, 3945
17.6375, 3935
17.64, 3962
17.6425, 3993
17.645, 4065
17.6475, 4097
17.65, 4057
17.6525, 4031
17.655, 4009
17.6575, 3997
17.66, 3983
17.6625, 3984
17.665, 4000
17.6675, 4021
17.67, 4082
17.6725, 4030
17.675, 4001
17.6775, 4048
17.68, 3993
17.6825, 3959
17.685, 3961
17.6875, 3975
17.69, 4056
17.6925, 4121
17.695, 4132
17.6975, 4133
17.7, 4078
17.7025, 4049
17.705, 4054
17.7075, 4061
17.71, 4059
17.7125, 4109
17.715, 4150
17.7175, 4189
17.72, 4190
17.7225, 4147
17.725, 4113
17.7275, 4044
17.73, 4107
17.7325, 4141
17.735, 4107
17.7375, 4039
17.74, 4016
17.7425, 3961
17.745, 3962
17.7475, 3970
17.75, 3992
17.7525, 4042
17.755, 4054
17.7575, 4086
17.76, 4114
17.7625, 4144
17.765, 4143
17.7675, 4156
17.77, 4100
17.7725, 4095
17.775, 4047
17.7775, 4053
17.78, 4093
17.7825, 4156
17.785, 4209
17.7875, 4113
17.79, 4042
17.7925, 4015
17.795, 3985
17.7975, 4053
17.8, 4062
17.8025, 4037
17.805, 3975
17.8075, 3996
17.81, 3993
17.8125, 3998
17.815, 4045
17.8175, 4047
17.82, 3984
17.8225, 3945
17.825, 3981
17.8275, 3984
17.83, 3965
17.8325, 3982
17.835, 3958
17.8375, 4025
17.84, 4073
17.8425, 4068
17.845, 4075
17.8475, 4074
17.85, 4015
17.8525, 4008
17.855, 4009
17.8575, 4004
17.86, 4011
17.8625, 4050
17.865, 4060
17.8675, 4026
17.87, 3969
17.8725, 3987
17.875, 4046
17.8775, 4061
17.88, 4081
17.8825, 4048
17.885, 3982
17.8875, 3960
17.89, 3980
17.8925, 4043
17.895, 4028
17.8975, 3996
17.9, 3994
17.9025, 4002
17.905, 4001
17.9075, 4001
17.91, 4064
17.9125, 4086
17.915, 4037
17.9175, 3958
17.92, 3904
17.9225, 3902
17.925, 3945
17.9275, 3975
17.93, 4036
17.9325, 4084
17.935, 4127
17.9375, 4077
17.94, 4084
17.9425, 4032
17.945, 3982
17.9475, 3882
17.95, 3874
17.9525, 3923
17.955, 3962
17.9575, 4005
17.96, 4016
17.9625, 4020
17.965, 4047
17.9675, 4107
17.97, 4105
17.9725, 4125
17.975, 4132
17.9775, 4146
17.98, 4168
17.9825, 4149
17.985, 4120
17.9875, 4091
17.99, 4082
17.9925, 4076
17.995, 4062
17.9975, 4046
18.0, 4053
18.0025, 4062
18.005, 4100
18.0075, 4125
18.01, 4121
18.0125, 4136
18.015, 4143
18.0175, 4113
18.02, 4077
18.0225, 4040
18.025, 4024
18.0275, 4057
18.03, 4055
18.0325, 4037
18.035, 4011
18.0375, 4045
18.04, 4088
18.0425, 4056
18.045, 4078
18.0475, 4053
18.05, 4026
18.0525, 4028
18.055, 4008
18.0575, 3984
18.06, 3990
18.0625, 4026
18.065, 4005
18.0675, 3953
18.07, 3922
18.0725, 3897
18.075, 3908
18.0775, 3907
18.08, 4032
18.0825, 4170
18.085, 4310
18.0875, 4541
18.09, 4723
18.0925, 4873
18.095, 5097
18.0975, 5244
18.1, 5305
18.1025, 5227
18.105, 5035
18.1075, 4759
18.11, 4548
18.1125, 4250
18.115, 3967
18.1175, 3814
18.12, 3752
18.1225, 3645
18.125, 3666
18.1275, 3686
18.13, 3695
18.1325, 3765
18.135, 3827
18.1375, 3880
18.14, 3907
18.1425, 3936
18.145, 3951
18.1475, 3942
18.15, 3980
18.1525, 3979
18.155, 3971
18.1575, 3959
18.16, 3967
18.1625, 3915
18.165, 3898
18.1675, 3915
18.17, 3975
18.1725, 3996
18.175, 4059
18.1775, 4150
18.18, 4110
18.1825, 4013
18.185, 3922
18.1875, 3923
18.19, 3954
18.1925, 3967
18.195, 4006
18.1975, 3986
18.2, 3977
18.2025, 4004
18.205, 3984
18.2075, 4010
18.21, 4066
18.2125, 4085
18.215, 4056
18.2175, 4048
18.22, 4051
18.2225, 4015
18.225, 4019
18.2275, 4050
18.23, 4070
18.2325, 4077
18.235, 4086
18.2375, 4100
18.24, 4113
18.2425, 4116
18.245, 4122
18.2475, 4128
18.25, 4133
18.2525, 4145
18.255, 4175
18.2575, 4177
18.26, 4105
18.2625, 4073
18.265, 4094
18.2675, 4110
18.27, 4126
18.2725, 4204
18.275, 4191
18.2775, 4192
18.28, 4151
18.2825, 4148
18.285, 4138
18.2875, 4169
18.29, 4212
18.2925, 4241
18.295, 4287
18.2975, 4308
18.3, 4296
18.3025, 4259
18.305, 4224
18.3075, 4238
18.31, 4277
18.3125, 4340
18.315, 4339
18.3175, 4303
18.32, 4240
18.3225, 4210
18.325, 4165
18.3275, 4208
18.33, 4209
18.3325, 4211
18.335, 4190
18.3375, 4186
18.34, 4168
18.3425, 4114
18.345, 4102
18.3475, 4093
18.35, 4077
18.3525, 4055
18.355, 4049
18.3575, 4074
18.36, 4081
18.3625, 4015
18.365, 3994
18.3675, 3984
18.37, 3974
18.3725, 4022
18.375, 3964
18.3775, 3942
18.38, 3969
18.3825, 4010
18.385, 3990
18.3875, 3953
18.39, 3896
18.3925, 3856
18.395, 3895
18.3975, 3927
18.4, 3964
18.4025, 3905
18.405, 3895
18.4075, 3919
18.41, 3905
18.4125, 3968
18.415, 3968
18.4175, 3991
18.42, 3975
18.4225, 3994
18.425, 4008
18.4275, 4022
18.43, 3995
18.4325, 3979
18.435, 3992
18.4375, 3969
18.44, 3976
18.4425, 3989
18.445, 3993
18.4475, 4023
18.45, 4044
18.4525, 4022
18.455, 3996
18.4575, 3988
18.46, 4035
18.4625, 4033
18.465, 3995
18.4675, 3978
18.47, 4005
18.4725, 4053
18.475, 4045
18.4775, 4025
18.48, 4046
18.4825, 4012
18.485, 4025
18.4875, 4011
18.49, 4019
18.4925, 4040
18.495, 4034
18.4975, 4064
18.5, 4067
18.5025, 4038
18.505, 4030
18.5075, 4030
18.51, 4009
18.5125, 4030
18.515, 4015
18.5175, 4031
18.52, 4058
18.5225, 4081
18.525, 4084
18.5275, 4092
18.53, 4076
18.5325, 4064
18.535, 4076
18.5375, 4064
18.54, 4091
18.5425, 4069
18.545, 4039
18.5475, 3999
18.55, 3962
18.5525, 3978
18.555, 4017
18.5575, 4010
18.56, 4054
18.5625, 4065
18.565, 4081
18.5675, 4095
18.57, 4089
18.5725, 4080
18.575, 4062
18.5775, 4062
18.58, 4070
18.5825, 4088
18.585, 4065
18.5875, 4088
18.59, 4088
18.5925, 4090
18.595, 4053
18.5975, 4045
18.6, 4051
18.6025, 4044
18.605, 4043
18.6075, 4082
18.61, 4075
18.6125, 4076
18.615, 4083
18.6175, 4066
18.62, 4071
18.6225, 4058
18.625, 4053
18.6275, 4078
18.63, 4075
18.6325, 4094
18.635, 4087
18.6375, 4074
18.64, 4042
18.6425, 4047
18.645, 4043
18.6475, 4065
18.65, 4075
18.6525, 4087
18.655, 4071
18.6575, 4054
18.66, 4087
18.6625, 4106
18.665, 4114
18.6675, 4088
18.67, 4069
18.6725, 4070
18.675, 4081
18.6775, 4100
18.68, 4123
18.6825, 4086
18.685, 4056
18.6875, 4030
18.69, 4066
18.6925, 4030
18.695, 4024
18.6975, 4054
18.7, 4081
18.7025, 4123
18.705, 4114
18.7075, 4075
18.71, 4064
18.7125, 4084
18.715, 4069
18.7175, 4080
18.72, 4047
18.7225, 4005
18.725, 4051
18.7275, 4096
18.73, 4101
18.7325, 4126
18.735, 4147
18.7375, 4155
18.74, 4120
18.7425, 4104
18.745, 4114
18.7475, 4109
18.75, 4099
18.7525, 4097
18.755, 4114
18.7575, 4114
18.76, 4149
18.7625, 4175
18.765, 4153
18.7675, 4141
18.77, 4085
18.7725, 4047
18.775, 4087
18.7775, 4120
18.78, 4123
18.7825, 4161
18.785, 4178
18.7875, 4132
18.79, 4133
18.7925, 4095
18.795, 4104
18.7975, 4110
18.8, 4119
18.8025, 4108
18.805, 4103
18.8075, 4115
18.81, 4113
18.8125, 4081
18.815, 4062
18.8175, 4076
18.82, 4074
18.8225, 4081
18.825, 4065
18.8275, 4071
18.83, 4068
18.8325, 4054
18.835, 4029
18.8375, 3972
18.84, 3969
18.8425, 3983
18.845, 3970
18.8475, 4015
18.85, 4144
18.8525, 4348
18.855, 4595
18.8575, 4717
18.86, 4859
18.8625, 5116
18.865, 5269
18.8675, 5341
18.87, 5296
18.8725, 5060
18.875, 4773
18.8775, 4530
18.88, 4235
18.8825, 3982
18.885, 3844
18.8875, 3774
18.89, 3684
18.8925, 3697
18.895, 3728
18.8975, 3797
18.9, 3867
18.9025, 3873
18.905, 3868
18.9075, 3887
18.91, 3925
18.9125, 3930
18.915, 3938
18.9175, 3905
18.92, 3921
18.9225, 3946
18.925, 3923
18.9275, 3918
18.93, 3955
18.9325, 3971
18.935, 3994
18.9375, 4003
18.94, 3992
18.9425, 3966
18.945, 3986
18.9475, 4030
18.95, 4068
18.9525, 4052
18.955, 4020
18.9575, 4025
18.96, 3978
18.9625, 4016
18.965, 4002
18.9675, 4028
18.97, 4024
18.9725, 4051
18.975, 4103
18.9775, 4107
18.98, 4108
18.9825, 4096
18.985, 4111
18.9875, 4089
18.99, 4072
18.9925, 4050
18.995, 4041
18.9975, 4074
19.0, 4143
19.0025, 4156
19.005, 4136
19.0075, 4111
19.01, 4089
19.0125, 4068
19.015, 4093
19.0175, 4094
19.02, 4061
19.0225, 4062
19.025, 4086
19.0275, 4102
19.03, 4106
19.0325, 4134
19.035, 4162
19.0375, 4187
19.04, 4156
19.0425, 4183
19.045, 4193
19.0475, 4193
19.05, 4204
19.0525, 4246
19.055, 4251
19.0575, 4272
19.06, 4251
19.0625, 4201
19.065, 4153
19.0675, 4223
19.07, 4259
19.0725, 4260
19.075, 4222
19.0775, 4190
19.08, 4172
19.0825, 4214
19.085, 4210
19.0875, 4195
19.09, 4208
19.0925, 4213
19.095, 4216
19.0975, 4197
19.1, 4182
19.1025, 4201
19.105, 4162
19.1075, 4130
19.11, 4096
19.1125, 4048
19.115, 4017
19.1175, 4032
19.12, 4038
19.1225, 4059
19.125, 4053
19.1275, 4063
19.13, 4046
19.1325, 3988
19.135, 3955
19.1375, 3916
19.14, 3916
19.1425, 3904
19.145, 3943
19.1475, 3947
19.15, 3936
19.1525, 3898
19.155, 3912
19.1575, 3896
19.16, 3923
19.1625, 3928
19.165, 3940
19.1675, 3977
19.17, 4001
19.1725, 3972
19.175, 3926
19.1775, 3994
19.18, 3924
19.1825, 3893
19.185, 3878
19.1875, 3927
19.19, 3971
19.1925, 3969
19.195, 3966
19.1975, 3980
19.2, 3985
19.2025, 3995
19.205, 3950
19.2075, 3879
19.21, 3859
19.2125, 3941
19.215, 4026
19.2175, 4057
19.22, 4018
19.2225, 3998
19.225, 4000
19.2275, 4020
19.23, 3985
19.2325, 3987
19.235, 4007
19.2375, 4005
19.24, 3984
19.2425, 3952
19.245, 3942
19.2475, 3961
19.25, 4003
19.2525, 4026
19.255, 4012
19.2575, 4056
19.26, 4041
19.2625, 4019
19.265, 4014
19.2675, 4021
19.27, 4039
19.2725, 4036
19.275, 4029
19.2775, 4024
19.28, 4024
19.2825, 4033
19.285, 4012
19.2875, 4010
19.29, 3976
19.2925, 3981
19.295, 4002
19.2975, 4036
19.3, 4061
19.3025, 4090
19.305, 4060
19.3075, 4022
19.31, 4009
19.3125, 4042
19.315, 4066
19.3175, 4077
19.32, 4079
19.3225, 4119
19.325, 4068
19.3275, 4043
19.33, 4024
19.3325, 4050
19.335, 4072
19.3375, 4098
19.34, 4078
19.3425, 4066
19.345, 4084
19.3475, 4108
19.35, 4108
19.3525, 4090
19.355, 4039
19.3575, 3964
19.36, 3935
19.3625, 3976
19.365, 4000
19.3675, 3996
19.37, 4067
19.3725, 4091
19.375, 4080
19.3775, 4059
19.38, 4019
19.3825, 3993
19.385, 3992
19.3875, 4015
19.39, 4019
19.3925, 4025
19.395, 4049
19.3975, 4048
19.4, 4109
19.4025, 4120
19.405, 4103
19.4075, 4066
19.41, 4067
19.4125, 4053
19.415, 4074
19.4175, 4052
19.42, 4015
19.4225, 3991
19.425, 4010
19.4275, 4002
19.43, 4016
19.4325, 4037
19.435, 4005
19.4375, 4044
19.44, 4041
19.4425, 4077
19.445, 4105
19.4475, 4097
19.45, 4087
19.4525, 4039
19.455, 3988
19.4575, 3987
19.46, 4009
19.4625, 4020
19.465, 4012
19.4675, 4056
19.47, 4062
19.4725, 4054
19.475, 4078
19.4775, 4051
19.48, 4073
19.4825, 4046
19.485, 4038
19.4875, 4001
19.49, 4022
19.4925, 4035
19.495, 4053
19.4975, 4100
19.5, 4113
19.5025, 4080
19.505, 4055
19.5075, 4017
19.51, 3994
19.5125, 3985
19.515, 4013
19.5175, 4061
19.52, 4106
19.5225, 4113
19.525, 4081
19.5275, 4016
19.53, 4001
19.5325, 3969
19.535, 4003
19.5375, 4010
19.54, 4035
19.5425, 4048
19.545, 4044
19.5475, 4015
19.55, 4031
19.5525, 4092
19.555, 4112
19.5575, 4134
19.56, 4090
19.5625, 4122
19.565, 4125
19.5675, 4139
19.57, 4159
19.5725, 4132
19.575, 4121
19.5775, 4123
19.58, 4128
19.5825, 4101
19.585, 4051
19.5875, 4053
19.59, 4049
19.5925, 4038
19.595, 4030
19.5975, 4049
19.6, 4059
19.6025, 4080
19.605, 4074
19.6075, 4092
19.61, 4085
19.6125, 4103
19.615, 4064
19.6175, 4100
19.62, 4120
19.6225, 4134
19.625, 4119
19.6275, 4084
19.63, 4054
19.6325, 4038
19.635, 4018
19.6375, 4069
19.64, 4086
19.6425, 4098
19.645, 4080
19.6475, 4058
19.65, 4062
19.6525, 4046
19.655, 4019
19.6575, 4006
19.66, 3992
19.6625, 3963
19.665, 3925
19.6675, 3928
19.67, 4002
19.6725, 4087
19.675, 4198
19.6775, 4358
19.68, 4553
19.6825, 4723
19.685, 4886
19.6875, 5132
19.69, 5284
19.6925, 5353
19.695, 5255
19.6975, 5016
19.7, 4756
19.7025, 4650
19.705, 4413
19.7075, 4109
19.71, 3906
19.7125, 3729
19.715, 3626
19.7175, 3619
19.72, 3649
19.7225, 3672
19.725, 3733
19.7275, 3797
19.73, 3847
19.7325, 3892
19.735, 3964
19.7375, 3964
19.74, 3955
19.7425, 3923
19.745, 3956
19.7475, 3962
19.75, 3977
19.7525, 3988
19.755, 3981
19.7575, 4001
19.76, 4017
19.7625, 3988
19.765, 3990
19.7675, 4028
19.77, 4047
19.7725, 4018
19.775, 4012
19.7775, 3993
19.78, 4003
19.7825, 4048
19.785, 4049
19.7875, 4085
19.79, 4091
19.7925, 4065
19.795, 4043
19.7975, 3995
19.8, 4014
19.8025, 4058
19.805, 4126
19.8075, 4082
19.81, 4067
19.8125, 4036
19.815, 3994
19.8175, 4019
19.82, 4033
19.8225, 4048
19.825, 4125
19.8275, 4127
19.83, 4119
19.8325, 4132
19.835, 4129
19.8375, 4072
19.84, 4077
19.8425, 4069
19.845, 4086
19.8475, 4102
19.85, 4139
19.8525, 4142
19.855, 4169
19.8575, 4200
19.86, 4231
19.8625, 4231
19.865, 4233
19.8675, 4219
19.87, 4194
19.8725, 4192
19.875, 4196
19.8775, 4174
19.88, 4184
19.8825, 4214
19.885, 4231
19.8875, 4209
19.89, 4183
19.8925, 4217
19.895, 4268
19.8975, 4309
19.9, 4292
19.9025, 4288
19.905, 4298
19.9075, 4290
19.91, 4249
19.9125, 4222
19.915, 4240
19.9175, 4237
19.92, 4235
19.9225, 4226
19.925, 4222
19.9275, 4218
19.93, 4167
19.9325, 4179
19.935, 4156
19.9375, 4139
19.94, 4141
19.9425, 4108
19.945, 4063
19.9475, 4074
19.95, 4115
19.9525, 4122
19.955, 4084
19.9575, 4058
19.96, 4037
19.9625, 4014
19.965, 3981
19.9675, 3926
19.97, 3911
19.9725, 3939
19.975, 3982
19.9775, 3979
19.98, 3973
19.9825, 3950
19.985, 3923
19.9875, 3942
19.99, 3965
19.9925, 3967
19.995, 3962
19.9975, 3950
20.0, 3943
20.0025, 3942
20.005, 3947
20.0075, 3990
20.01, 3964
20.0125, 3961
20.015, 3983
20.0175, 3998
20.02, 4002
20.0225, 4025
20.025, 4019
20.0275, 4057
20.03, 3983
20.0325, 3956
20.035, 4013
20.0375, 4070
20.04, 4040
20.0425, 4015
20.045, 3986
20.0475, 3991
20.05, 3974
20.0525, 3948
20.055, 3959
20.0575, 3990
20.06, 4061
20.0625, 4062
20.065, 4058
20.0675, 4024
20.07, 3989
20.0725, 3998
20.075, 4001
20.0775, 3995
20.08, 4039
20.0825, 4066
20.085, 4058
20.0875, 4052
20.09, 4025
20.0925, 4023
20.095, 3991
20.0975, 4003
20.1, 4028
20.1025, 4059
20.105, 4020
20.1075, 4016
20.11, 3987
20.1125, 4038
20.115, 4062
20.1175, 4068
20.12, 4058
20.1225, 4039
20.125, 4017
20.1275, 3993
20.13, 4012
20.1325, 4036
20.135, 4062
20.1375, 4075
20.14, 4092
20.1425, 4039
20.145, 4056
20.1475, 4063
20.15, 4044
20.1525, 4033
20.155, 3990
20.1575, 3964
20.16, 4013
20.1625, 4037
20.165, 4040
20.1675, 4049
20.17, 4007
20.1725, 4026
20.175, 4051
20.1775, 4054
20.18, 4069
20.1825, 4060
20.185, 4086
20.1875, 4107
20.19, 4072
20.1925, 4011
20.195, 4036
20.1975, 4070
20.2, 4064
20.2025, 4029
20.205, 4020
20.2075, 4073
20.21, 4068
20.2125, 4085
20.215, 4096
20.2175, 4051
20.22, 4042
20.2225, 4024
20.225, 4031
20.2275, 4037
20.23, 4023
20.2325, 4041
20.235, 4045
20.2375, 4035
20.24, 4031
20.2425, 4027
20.245, 3996
20.2475, 3994
20.25, 4021
20.2525, 4054
20.255, 4067
20.2575, 4050
20.26, 4067
20.2625, 4051
20.265, 4015
20.2675, 4023
20.27, 4067
20.2725, 4111
20.275, 4094
20.2775, 4030
20.28, 4006
20.2825, 4001
20.285, 4049
20.2875, 4064
20.29, 4036
20.2925, 4050
20.295, 4088
20.2975, 4127
20.3, 4111
20.3025, 4056
20.305, 4025
20.3075, 4015
20.31, 4002
20.3125, 4006
20.315, 4035
20.3175, 4059
20.32, 4119
20.3225, 4137
20.325, 4120
20.3275, 4065
20.33, 4033
20.3325, 4034
20.335, 4016
20.3375, 4009
20.34, 4011
20.3425, 4033
20.345, 4023
20.3475, 4003
20.35, 3996
20.3525, 4027
20.355, 4045
20.3575, 4074
20.36, 4076
20.3625, 4090
20.365, 4104
20.3675, 4119
20.37, 4095
20.3725, 4118
20.375, 4099
20.3775, 4068
20.38, 4090
20.3825, 4115
20.385, 4127
20.3875, 4075
20.39, 4022
20.3925, 4062
20.395, 4118
20.3975, 4148
20.4, 4097
20.4025, 4073
20.405, 4067
20.4075, 4050
20.41, 4020
20.4125, 4016
20.415, 4075
20.4175, 4064
20.42, 4054
20.4225, 3999
20.425, 3975
20.4275, 4029
20.43, 4081
20.4325, 4070
20.435, 4038
20.4375, 3997
20.44, 3971
20.4425, 3945
20.445, 3959
20.4475, 4005
20.45, 4008
20.4525, 4072
20.455, 4052
20.4575, 4014
20.46, 3973
20.4625, 3994
20.465, 3964
20.4675, 3912
20.47, 3870
20.4725, 3871
20.475, 3911
20.4775, 4005
20.48, 4105
20.4825, 4295
20.485, 4448
20.4875, 4643
20.49, 4810
20.4925, 5065
20.495, 5225
20.4975, 5270
20.5, 5171
20.5025, 4932
20.505, 4663
20.5075, 4483
20.51, 4253
20.5125, 4020
20.515, 3861
20.5175, 3778
20.52, 3710
20.5225, 3698
20.525, 3723
20.5275, 3751
20.53, 3773
20.5325, 3839
20.535, 3914
20.5375, 3954
20.54, 3962
20.5425, 3937
20.545, 3884
20.5475, 3901
20.55, 3912
20.5525, 3919
20.555, 3976
20.5575, 3986
20.56, 3961
20.5625, 3989
20.565, 4014
20.5675, 4026
20.57, 3998
20.5725, 4016
20.575, 4034
20.5775, 4031
20.58, 4023
20.5825, 4029
20.585, 3993
20.5875, 3969
20.59, 3967
20.5925, 3976
20.595, 4018
20.5975, 4040
20.6, 4046
20.6025, 4100
20.605, 4123
20.6075, 4106
20.61, 4031
20.6125, 4014
20.615, 4005
20.6175, 4006
20.62, 4027
20.6225, 4045
20.625, 4088
20.6275, 4110
20.63, 4117
20.6325, 4118
20.635, 4085
20.6375, 4075
20.64, 4091
20.6425, 4124
20.645, 4132
20.6475, 4151
20.65, 4146
20.6525, 4145
20.655, 4135
20.6575, 4172
20.66, 4194
20.6625, 4168
20.665, 4113
20.6675, 4129
20.67, 4148
20.6725, 4192
20.675, 4212
20.6775, 4214
20.68, 4211
20.6825, 4182
20.685, 4175
20.6875, 4199
20.69, 4207
20.6925, 4203
20.695, 4211
20.6975, 4234
20.7, 4275
20.7025, 4314
20.705, 4281
20.7075, 4255
20.71, 4256
20.7125, 4280
20.715, 4273
20.7175, 4261
20.72, 4235
20.7225, 4224
20.725, 4219
20.7275, 4229
20.73, 4220
20.7325, 4207
20.735, 4173
20.7375, 4186
20.74, 4173
20.7425, 4156
20.745, 4124
20.7475, 4114
20.75, 4087
20.7525, 4073
20.755, 4075
20.7575, 4064
20.76, 4043
20.7625, 4046
20.765, 3980
20.7675, 3984
20.77, 3996
20.7725, 3972
20.775, 3960
20.7775, 3945
20.78, 3971
20.7825, 3991
20.785, 4010
20.7875, 3989
20.79, 3970
20.7925, 3935
20.795, 3954
20.7975, 3989
20.8, 3982
20.8025, 4019
20.805, 3978
20.8075, 3975
20.81, 3972
20.8125, 3967
20.815, 3999
20.8175, 4011
20.82, 4016
20.8225, 4010
20.825, 4003
20.8275, 4000
20.83, 3999
20.8325, 4027
20.835, 4023
20.8375, 4054
20.84, 4035
20.8425, 4047
20.845, 4025
20.8475, 4011
20.85, 4041
20.8525, 4038
20.855, 4027
20.8575, 4017
20.86, 4025
20.8625, 4044
20.865, 4067
20.8675, 4066
20.87, 4057
20.8725, 4028
20.875, 4016
20.8775, 4027
20.88, 4034
20.8825, 4064
20.885, 4036
20.8875, 4057
20.89, 4076
20.8925, 4104
20.895, 4097
20.8975, 4102
20.9, 4105
20.9025, 4093
20.905, 4079
20.9075, 4073
20.91, 4028
20.9125, 4020
20.915, 4020
20.9175, 4050
20.92, 4060
20.9225, 4066
20.925, 4070
20.9275, 4055
20.93, 4061
20.9325, 4024
20.935, 4057
20.9375, 4063
20.94, 4094
20.9425, 4120
20.945, 4136
20.9475, 4109
20.95, 4097
20.9525, 4036
20.955, 4033
20.9575, 4030
20.96, 4033
20.9625, 4070
20.965, 4100
20.9675, 4099
20.97, 4052
20.9725, 4031
20.975, 4027
20.9775, 4066
20.98, 4073
20.9825, 4087
20.985, 4044
20.9875, 4030
20.99, 4035
20.9925, 4044
20.995, 4028
20.9975, 4044
21.0, 4048
21.0025, 4063
21.005, 4078
21.0075, 4072
21.01, 4065
21.0125, 4048
21.015, 4085
21.0175, 4106
21.02, 4104
21.0225, 4063
21.025, 4056
21.0275, 4031
21.03, 4086
21.0325, 4063
21.035, 4055
21.0375, 4063
21.04, 4092
21.0425, 4107
21.045, 4073
21.0475, 4046
21.05, 4051
21.0525, 4055
21.055, 4002
21.0575, 3990
21.06, 4011
21.0625, 4047
21.065, 4028
21.0675, 4054
21.07, 4070
21.0725, 4048
21.075, 4061
21.0775, 4036
21.08, 4062
21.0825, 4088
21.085, 4091
21.0875, 4037
21.09, 4056
21.0925, 4036
21.095, 4046
21.0975, 4041
21.1, 4039
21.1025, 4056
21.105, 4048
21.1075, 4041
21.11, 4051
21.1125, 4054
21.115, 4085
21.1175, 4062
21.12, 4034
21.1225, 4042
21.125, 4077
21.1275, 4072
21.13, 4088
21.1325, 4096
21.135, 4081
21.1375, 4078
21.14, 4095
21.1425, 4054
21.145, 4053
21.1475, 4067
21.15, 4087
21.1525, 4042
21.155, 4017
21.1575, 4016
21.16, 3991
21.1625, 3977
21.165, 3999
21.1675, 4031
21.17, 4000
21.1725, 4014
21.175, 4008
21.1775, 3993
21.18, 3985
21.1825, 3976
21.185, 3982
21.1875, 3988
21.19, 4008
21.1925, 4036
21.195, 4088
21.1975, 4094
21.2, 4040
21.2025, 3977
21.205, 3971
21.2075, 3954
21.21, 3909
21.2125, 3899
21.215, 3822
21.2175, 3806
21.22, 3808
21.2225, 3846
21.225, 3870
21.2275, 3950
21.23, 4076
21.2325, 4261
21.235, 4489
21.2375, 4650
21.24, 4834
21.2425, 5116
21.245, 5237
21.2475, 5313
21.25, 5228
21.2525, 4935
21.255, 4663
21.2575, 4479
21.26, 4231
21.2625, 4004
21.265, 3852
21.2675, 3714
21.27, 3691
21.2725, 3680
21.275, 3667
21.2775, 3673
21.28, 3702
21.2825, 3777
21.285, 3842
21.2875, 3859
21.29, 3877
21.2925, 3891
21.295, 3901
21.2975, 3880
21.3, 3902
21.3025, 3893
21.305, 3874
21.3075, 3898
21.31, 3892
21.3125, 3895
21.315, 3929
21.3175, 3973
21.32, 3949
21.3225, 3968
21.325, 3999
21.3275, 4017
21.33, 3977
21.3325, 4008
21.335, 3997
21.3375, 3992
21.34, 3987
21.3425, 4017
21.345, 4032
21.3475, 4024
21.35, 4009
21.3525, 4004
21.355, 4017
21.3575, 4012
21.36, 4014
21.3625, 4022
21.365, 4021
21.3675, 4036
21.37, 4040
21.3725, 4026
21.375, 4007
21.3775, 4021
21.38, 4039
21.3825, 4036
21.385, 4076
21.3875, 4117
21.39, 4092
21.3925, 4118
21.395, 4084
21.3975, 4093
21.4, 4091
21.4025, 4108
21.405, 4127
21.4075, 4136
21.41, 4120
21.4125, 4096
21.415, 4089
21.4175, 4108
21.42, 4109
21.4225, 4126
21.425, 4150
21.4275, 4167
21.43, 4157
21.4325, 4138
21.435, 4164
21.4375, 4209
21.44, 4182
21.4425, 4226
21.445, 4214
21.4475, 4188
21.45, 4193
21.4525, 4199
21.455, 4222
21.4575, 4243
21.46, 4238
21.4625, 4242
21.465, 4272
21.4675, 4257
21.47, 4191
21.4725, 4200
21.475, 4219
21.4775, 4190
21.48, 4186
21.4825, 4156
21.485, 4185
21.4875, 4146
21.49, 4113
21.4925, 4075
21.495, 4055
21.4975, 4013
21.5, 4005
21.5025, 3979
21.505, 3965
21.5075, 3974
21.51, 3939
21.5125, 3947
21.515, 3948
21.5175, 3972
21.52, 3977
21.5225, 3970
21.525, 3965
21.5275, 3968
21.53, 3973
21.5325, 3914
21.535, 3893
21.5375, 3902
21.54, 3895
21.5425, 3954
21.545, 3928
21.5475, 3895
21.55, 3863
21.5525, 3853
21.555, 3861
21.5575, 3920
21.56, 3971
21.5625, 3985
21.565, 3988
21.5675, 3945
21.57, 3915
21.5725, 3958
21.575, 3918
21.5775, 3915
21.58, 3918
21.5825, 3952
21.585, 3998
21.5875, 4007
21.59, 3990
21.5925, 3975
21.595, 3994
21.5975, 3990
21.6, 3995
21.6025, 3989
21.605, 3996
21.6075, 3997
21.61, 4019
21.6125, 3989
21.615, 3953
21.6175, 4000
21.62, 4005
21.6225, 4017
21.625, 4058
21.6275, 4010
21.63, 4006
21.6325, 4002
21.635, 3979
21.6375, 4008
21.64, 4011
21.6425, 4008
21.645, 4052
21.6475, 4039
21.65, 4061
21.6525, 4074
21.655, 4058
21.6575, 4023
21.66, 4009
21.6625, 4025
21.665, 4070
21.6675, 4079
21.67, 4004
21.6725, 4037
21.675, 4008
21.6775, 4000
21.68, 4060
21.6825, 4063
21.685, 4077
21.6875, 4044
21.69, 4012
21.6925, 4002
21.695, 4030
21.6975, 4022
21.7, 4037
21.7025, 4050
21.705, 4061
21.7075, 4050
21.71, 4024
21.7125, 3981
21.715, 3984
21.7175, 4042
21.72, 4077
21.7225, 4081
21.725, 4051
21.7275, 4009
21.73, 4037
21.7325, 4058
21.735, 4072
21.7375, 4056
21.74, 4058
21.7425, 4056
21.745, 4052
21.7475, 3984
21.75, 4009
21.7525, 4009
21.755, 4014
21.7575, 4017
21.76, 4024
21.7625, 4034
21.765, 4079
21.7675, 4033
21.77, 4060
21.7725, 4091
21.775, 4101
21.7775, 4076
21.78, 4080
21.7825, 4086
21.785, 4121
21.7875, 4116
21.79, 4123
21.7925, 4115
21.795, 4118
21.7975, 4104
21.8, 4096
21.8025, 4109
21.805, 4101
21.8075, 4112
21.81, 4091
21.8125, 4090
21.815, 4077
21.8175, 4086
21.82, 4104
21.8225, 4079
21.825, 4094
21.8275, 4093
21.83, 4109
21.8325, 4113
21.835, 4136
21.8375, 4118
21.84, 4097
21.8425, 4085
21.845, 4099
21.8475, 4073
21.85, 4099
21.8525, 4062
21.855, 4058
21.8575, 4091
21.86, 4058
21.8625, 4051
21.865, 4048
21.8675, 4044
21.87, 4053
21.8725, 4079
21.875, 4090
21.8775, 4087
21.88, 4111
21.8825, 4131
21.885, 4135
21.8875, 4116
21.89, 4110
21.8925, 4143
21.895, 4134
21.8975, 4130
21.9, 4115
21.9025, 4095
21.905, 4105
21.9075, 4133
21.91, 4132
21.9125, 4147
21.915, 4092
21.9175, 4084
21.92, 4100
21.9225, 4096
21.925, 4122
21.9275, 4136
21.93, 4127
21.9325, 4118
21.935, 4086
21.9375, 4052
21.94, 4067
21.9425, 4067
21.945, 4070
21.9475, 4102
21.95, 4149
21.9525, 4132
21.955, 4111
21.9575, 4085
21.96, 4083
21.9625, 4080
21.965, 4073
21.9675, 4051
21.97, 4060
21.9725, 4090
21.975, 4118
21.9775, 4099
21.98, 4088
21.9825, 4041
21.985, 4016
21.9875, 3975
21.99, 3913
21.9925, 3896
21.995, 3946
21.9975, 4037
22.0, 4106
22.0025, 4191
22.005, 4315
22.0075, 4511
22.01, 4693
22.0125, 4858
22.015, 5073
22.0175, 5221
22.02, 5285
22.0225, 5235
22.025, 5056
22.0275, 4842
22.03, 4667
22.0325, 4342
22.035, 4053
22.0375, 3895
22.04, 3804
22.0425, 3732
22.045, 3676
22.0475, 3657
22.05, 3653
22.0525, 3737
22.055, 3779
22.0575, 3796
22.06, 3891
22.0625, 3965
22.065, 4009
22.0675, 3996
22.07, 3963
22.0725, 3945
22.075, 3917
22.0775, 3942
22.08, 4013
22.0825, 4011
22.085, 4000
22.0875, 3980
22.09, 3994
22.0925, 3983
22.095, 4003
22.0975, 3992
22.1, 3993
22.1025, 4010
22.105, 4048
22.1075, 4070
22.11, 4025
22.1125, 4015
22.115, 4027
22.1175, 3997
22.12, 3996
22.1225, 4009
22.125, 4032
22.1275, 4047
22.13, 4048
22.1325, 4030
22.135, 4016
22.1375, 4011
22.14, 4014
22.1425, 4049
22.145, 4041
22.1475, 4053
22.15, 4056
22.1525, 4063
22.155, 4088
22.1575, 4064
22.16, 4077
22.1625, 4087
22.165, 4101
22.1675, 4116
22.17, 4129
22.1725, 4123
22.175, 4157
22.1775, 4140
22.18, 4142
22.1825, 4169
22.185, 4150
22.1875, 4145
22.19, 4127
22.1925, 4129
22.195, 4180
22.1975, 4208
22.2, 4194
22.2025, 4225
22.205, 4220
22.2075, 4209
22.21, 4229
22.2125, 4240
22.215, 4231
22.2175, 4226
22.22, 4278
22.2225, 4302
22.225, 4280
22.2275, 4233
22.23, 4239
22.2325, 4269
22.235, 4273
22.2375, 4277
22.24, 4278
22.2425, 4281
22.245, 4214
22.2475, 4213
22.25, 4187
22.2525, 4217
22.255, 4220
22.2575, 4191
22.26, 4182
22.2625, 4154
22.265, 4103
22.2675, 4112
22.27, 4078
22.2725, 4027
22.275, 4032
22.2775, 3997
22.28, 3996
22.2825, 4003
22.285, 4010
22.2875, 4044
22.29, 4025
22.2925, 4024
22.295, 4031
22.2975, 4003
22.3, 3962
22.3025, 3958
22.305, 3955
22.3075, 3972
22.31, 3973
22.3125, 3990
22.315, 3967
22.3175, 3930
22.32, 3944
22.3225, 3987
22.325, 3961
22.3275, 4003
22.33, 3990
22.3325, 3972
22.335, 3975
22.3375, 4010
22.34, 4015
22.3425, 4007
22.345, 4007
22.3475, 3980
22.35, 3945
22.3525, 3938
22.355, 3945
22.3575, 4002
22.36, 4016
22.3625, 4021
22.365, 4033
22.3675, 4020
22.37, 3996
22.3725, 3942
22.375, 3976
22.3775, 4040
22.38, 4012
22.3825, 3995
22.385, 3996
22.3875, 3994
22.39, 4015
22.3925, 4044
22.395, 4024
22.3975, 4021
22.4, 4056
22.4025, 4071
22.405, 4061
22.4075, 4093
22.41, 4057
22.4125, 4025
22.415, 4038
22.4175, 4036
22.42, 4044
22.4225, 4037
22.425, 4023
22.4275, 4020
22.43, 4052
22.4325, 4053
22.435, 4036
22.4375, 4002
22.44, 4017
22.4425, 3982
22.445, 3976
22.4475, 3984
22.45, 3958
22.4525, 3987
22.455, 3983
22.4575, 3991
22.46, 4005
22.4625, 3995
22.465, 4041
22.4675, 4024
22.47, 4014
22.4725, 4011
22.475, 4038
22.4775, 4022
22.48, 4044
22.4825, 4039
22.485, 4053
22.4875, 4033
22.49, 4024
22.4925, 4053
22.495, 4049
22.4975, 4072
22.5, 4092
22.5025, 4102
22.505, 4067
22.5075, 4024
22.51, 3982
22.5125, 3995
22.515, 4002
22.5175, 4000
22.52, 4005
22.5225, 3992
22.525, 3982
22.5275, 3962
22.53, 3969
22.5325, 4001
22.535, 4004
22.5375, 4021
22.54, 4058
22.5425, 4066
22.545, 4065
22.5475, 4076
22.55, 4078
22.5525, 4038
22.555, 4047
22.5575, 4038
22.56, 4040
22.5625, 4029
22.565, 4027
22.5675, 4041
22.57, 4040
22.5725, 4030
22.575, 4051
22.5775, 4019
22.58, 4025
22.5825, 4014
22.585, 4076
22.5875, 4108
22.59, 4100
22.5925, 4113
22.595, 4076
22.5975, 4090
22.6, 4099
22.6025, 4076
22.605, 4073
22.6075, 4076
22.61, 4011
22.6125, 4015
22.615, 4033
22.6175, 4009
22.62, 4016
22.6225, 4017
22.625, 4024
22.6275, 4052
22.63, 4079
22.6325, 4049
22.635, 4054
22.6375, 4020
22.64, 4042
22.6425, 4048
22.645, 4071
22.6475, 4088
22.65, 4082
22.6525, 4060
22.655, 4070
22.6575, 4075
22.66, 4074
22.6625, 4069
22.665, 4045
22.6675, 4058
22.67, 4104
22.6725, 4073
22.675, 4088
22.6775, 4072
22.68, 4095
22.6825, 4098
22.685, 4096
22.6875, 4092
22.69, 4084
22.6925, 4038
22.695, 4079
22.6975, 4079
22.7, 4049
22.7025, 4046
22.705, 4097
22.7075, 4130
22.71, 4170
22.7125, 4137
22.715, 4090
22.7175, 4085
22.72, 4053
22.7225, 4053
22.725, 4026
22.7275, 4024
22.73, 4064
22.7325, 4073
22.735, 4075
22.7375, 4072
22.74, 4075
22.7425, 4083
22.745, 4068
22.7475, 4078
22.75, 4074
22.7525, 4066
22.755, 4078
22.7575, 4113
22.76, 4116
22.7625, 4096
22.765, 4122
22.7675, 4155
22.77, 4171
22.7725, 4181
22.775, 4149
22.7775, 4164
22.78, 4204
22.7825, 4201
22.785, 4176
22.7875, 4136
22.79, 4114
22.7925, 4097
22.795, 4123
22.7975, 4123
22.8, 4113
22.8025, 4055
22.805, 4046
22.8075, 4047
22.81, 4050
22.8125, 4057
22.815, 4074
22.8175, 4098
22.82, 4094
22.8225, 4075
22.825, 4055
22.8275, 4044
22.83, 4057
22.8325, 4069
22.835, 4111
22.8375, 4074
22.84, 4065
22.8425, 4063
22.845, 4091
22.8475, 4091
22.85, 4077
22.8525, 4068
22.855, 4065
22.8575, 4058
22.86, 4011
22.8625, 3973
22.865, 3940
22.8675, 3908
22.87, 3947
22.8725, 3982
22.875, 4038
22.8775, 4100
22.88, 4228
22.8825, 4449
22.885, 4612
22.8875, 4812
22.89, 5063
22.8925, 5229
22.895, 5312
22.8975, 5260
22.9, 5090
22.9025, 4838
22.905, 4668
22.9075, 4386
22.91, 4097
22.9125, 3880
22.915, 3815
22.9175, 3732
22.92, 3696
22.9225, 3661
22.925, 3713
22.9275, 3806
22.93, 3866
22.9325, 3868
22.935, 3892
22.9375, 3923
22.94, 3953
22.9425, 3958
22.945, 3999
22.9475, 3968
22.95, 3947
22.9525, 3931
22.955, 3935
22.9575, 3944
22.96, 3917
22.9625, 3925
22.965, 3921
22.9675, 3947
22.97, 3951
22.9725, 3993
22.975, 4011
22.9775, 4031
22.98, 4031
22.9825, 4030
22.985, 4055
22.9875, 4045
22.99, 4020
22.9925, 3962
22.995, 3957
22.9975, 3972
23.0, 3979
23.0025, 3997
23.005, 4056
23.0075, 4054
23.01, 4060
23.0125, 4087
23.015, 4087
23.0175, 4076
23.02, 4044
23.0225, 4056
23.025, 4086
23.0275, 4088
23.03, 4096
23.0325, 4113
23.035, 4120
23.0375, 4121
23.04, 4135
23.0425, 4144
23.045, 4158
23.0475, 4171
23.05, 4168
23.0525, 4187
23.055, 4193
23.0575, 4194
23.06, 4199
23.0625, 4194
23.065, 4180
23.0675, 4204
23.07, 4214
23.0725, 4244
23.075, 4291
23.0775, 4300
23.08, 4291
23.0825, 4257
23.085, 4258
23.0875, 4257
23.09, 4285
23.0925, 4287
23.095, 4303
23.0975, 4324
23.1, 4319
23.1025, 4283
23.105, 4267
23.1075, 4306
23.11, 4264
23.1125, 4246
23.115, 4266
23.1175, 4280
23.12, 4260
23.1225, 4230
23.125, 4183
23.1275, 4170
23.13, 4202
23.1325, 4189
23.135, 4158
23.1375, 4164
23.14, 4111
23.1425, 4079
23.145, 4079
23.1475, 4093
23.15, 4095
23.1525, 4088
23.155, 4112
23.1575, 4121
23.16, 4056
23.1625, 3984
23.165, 3927
23.1675, 3940
23.17, 3934
23.1725, 3959
23.175, 3985
23.1775, 4027
23.18, 4020
23.1825, 3967
23.185, 3920
23.1875, 3888
23.19, 3894
23.1925, 3891
23.195, 3897
23.1975, 3881
23.2, 3921
23.2025, 3967
23.205, 3969
23.2075, 3933
23.21, 3932
23.2125, 3972
23.215, 3967
23.2175, 3967
23.22, 3943
23.2225, 3931
23.225, 3919
23.2275, 3951
23.23, 3974
23.2325, 3957
23.235, 3963
23.2375, 3994
23.24, 3999
23.2425, 4007
23.245, 4018
23.2475, 3998
23.25, 4033
23.2525, 4021
23.255, 3959
23.2575, 3952
23.26, 3958
23.2625, 3989
23.265, 4024
23.2675, 4038
23.27, 4025
23.2725, 4022
23.275, 4019
23.2775, 4022
23.28, 4030
23.2825, 4028
23.285, 4031
23.2875, 4056
23.29, 4043
23.2925, 4065
23.295, 4033
23.2975, 4023
23.3, 4025
23.3025, 4020
23.305, 4047
23.3075, 4055
23.31, 4049
23.3125, 4020
23.315, 4002
23.3175, 4013
23.32, 4007
23.3225, 4000
23.325, 4019
23.3275, 4051
23.33, 4052
23.3325, 4025
23.335, 3981
23.3375, 3988
23.34, 4002
23.3425, 4025
23.345, 4011
23.3475, 4007
23.35, 4038
23.3525, 4047
23.355, 4013
23.3575, 4026
23.36, 4012
23.3625, 4016
23.365, 4045
23.3675, 4039
23.37, 4014
23.3725, 4036
23.375, 4021
23.3775, 4031
23.38, 4048
23.3825, 4057
23.385, 4076
23.3875, 4085
23.39, 4101
23.3925, 4096
23.395, 4074
23.3975, 4009
23.4, 3980
23.4025, 4023
23.405, 4086
23.4075, 4068
23.41, 4054
23.4125, 4066
23.415, 4089
23.4175, 4105
23.42, 4070
23.4225, 4022
23.425, 4030
23.4275, 4051
23.43, 4071
23.4325, 4076
23.435, 4019
23.4375, 4035
23.44, 4042
