52.122,2012.0
52.123,1935.0
52.124,1820.0
52.125,1859.0
52.126,1930.0
52.127,2051.0
52.128,2120.0
52.129,2064.0
52.13,2008.0
52.131,1896.0
52.132,1821.0
52.133,1861.0
52.134,1949.0
52.135,2079.0
52.136,2108.0
52.137,2054.0
52.138,2001.0
52.139,1865.0
52.14,1835.0
52.141,1878.0
52.142,1958.0
52.143,2105.0
52.144,2105.0
52.145,2054.0
52.146,1991.0
52.147,1865.0
52.148,1855.0
52.149,1892.0
52.15,1988.0
52.151,2163.0
52.152,2104.0
52.153,2027.0
52.154,1989.0
52.155,1865.0
52.156,1866.0
52.157,1911.0
52.158,2012.0
52.159,2133.0
52.16,2085.0
52.161,2035.0
52.162,1967.0
52.163,1852.0
52.164,1883.0
52.165,1922.0
52.166,2051.0
52.167,2143.0
52.168,2092.0
52.169,2035.0
52.17,1936.0
52.171,1869.0
52.172,1905.0
52.173,1952.0
52.174,2097.0
52.175,2142.0
52.176,2081.0
52.177,2029.0
52.178,1906.0
52.179,1874.0
52.18,1910.0
52.181,1967.0
52.182,2134.0
52.183,2141.0
52.184,2086.0
52.185,2031.0
52.186,1898.0
52.187,1901.0
52.188,1943.0
52.189,1998.0
52.19,2146.0
52.191,2134.0
52.192,2076.0
52.193,2001.0
52.194,1877.0
52.195,1900.0
52.196,1947.0
52.197,2005.0
52.198,2141.0
52.199,2099.0
52.2,2051.0
52.201,1988.0
52.202,1874.0
52.203,1916.0
52.204,1962.0
52.205,2022.0
52.206,2148.0
52.207,2101.0
52.208,2051.0
52.209,1931.0
52.21,1883.0
52.211,1934.0
52.212,1978.0
52.213,2059.0
52.214,2166.0
52.215,2116.0
52.216,2051.0
52.217,1932.0
52.218,1910.0
52.219,1958.0
52.22,2014.0
52.221,2113.0
52.222,2174.0
52.223,2115.0
52.224,2059.0
52.225,1924.0
52.226,1927.0
52.227,1964.0
52.228,2025.0
52.229,2133.0
52.23,2164.0
52.231,2123.0
52.232,2046.0
52.233,1925.0
52.234,1952.0
52.235,1991.0
52.236,2058.0
52.237,2162.0
52.238,2156.0
52.239,2104.0
52.24,2022.0
52.241,1922.0
52.242,1952.0
52.243,1989.0
52.244,2062.0
52.245,2146.0
52.246,2133.0
52.247,2081.0
52.248,1983.0
52.249,1919.0
52.25,1944.0
52.251,1983.0
52.252,2032.0
52.253,1998.0
52.254,1878.0
52.255,1805.0
52.256,1735.0
52.257,1864.0
52.258,2096.0
52.259,2342.0
52.26,2546.0
52.261,2630.0
52.262,2650.0
52.263,2633.0
52.264,2507.0
52.265,2522.0
52.266,2526.0
52.267,2514.0
52.268,2535.0
52.269,2434.0
52.27,2357.0
52.271,2241.0
52.272,2059.0
52.273,2039.0
52.274,2037.0
52.275,2043.0
52.276,2091.0
52.277,1989.0
52.278,1920.0
52.279,1828.0
52.28,1698.0
52.281,1735.0
52.282,1790.0
52.283,1874.0
52.284,1970.0
52.285,1911.0
52.286,1884.0
52.287,1789.0
52.288,1734.0
52.289,1780.0
52.29,1833.0
52.291,1959.0
52.292,2008.0
52.293,1935.0
52.294,1905.0
52.295,1785.0
52.296,1764.0
52.297,1821.0
52.298,1888.0
52.299,2012.0
52.3,2028.0
52.301,1951.0
52.302,1923.0
52.303,1803.0
52.304,1800.0
52.305,1865.0
52.306,1925.0
52.307,2056.0
52.308,2036.0
52.309,1970.0
52.31,1916.0
52.311,1799.0
52.312,1828.0
52.313,1881.0
52.314,1954.0
52.315,2067.0
52.316,2033.0
52.317,1958.0
52.318,1909.0
52.319,1822.0
52.32,1856.0
52.321,1912.0
52.322,2002.0
52.323,2086.0
52.324,2026.0
52.325,1960.0
52.326,1876.0
52.327,1816.0
52.328,1863.0
52.329,1926.0
52.33,2035.0
52.331,2071.0
52.332,2011.0
52.333,1940.0
52.334,1849.0
52.335,1835.0
52.336,1887.0
52.337,1941.0
52.338,2075.0
52.339,2081.0
52.34,2019.0
52.341,1953.0
52.342,1835.0
52.343,1871.0
52.344,1906.0
52.345,1982.0
52.346,2117.0
52.347,2094.0
52.348,2046.0
52.349,1961.0
52.35,1868.0
52.351,1901.0
52.352,1965.0
52.353,2048.0
52.354,2174.0
52.355,2144.0
52.356,2108.0
52.357,2015.0
52.358,1939.0
52.359,1994.0
52.36,2045.0
52.361,2144.0
52.362,2249.0
52.363,2199.0
52.364,2150.0
52.365,2044.0
52.366,1991.0
52.367,2045.0
52.368,2092.0
52.369,2225.0
52.37,2275.0
52.371,2217.0
52.372,2164.0
52.373,2028.0
52.374,2009.0
52.375,2069.0
52.376,2130.0
52.377,2254.0
52.378,2273.0
52.379,2212.0
52.38,2153.0
52.381,2007.0
52.382,2009.0
52.383,2073.0
52.384,2131.0
52.385,2248.0
52.386,2249.0
52.387,2185.0
52.388,2122.0
52.389,1978.0
52.39,2001.0
52.391,2059.0
52.392,2128.0
52.393,2253.0
52.394,2224.0
52.395,2166.0
52.396,2086.0
52.397,1967.0
52.398,1997.0
52.399,2050.0
52.4,2125.0
52.401,2233.0
52.402,2189.0
52.403,2136.0
52.404,2019.0
52.405,1951.0
52.406,2007.0
52.407,2064.0
52.408,2175.0
52.409,2229.0
52.41,2166.0
52.411,2108.0
52.412,1976.0
52.413,1929.0
52.414,1983.0
52.415,2055.0
52.416,2187.0
52.417,2197.0
52.418,2147.0
52.419,2077.0
52.42,1939.0
52.421,1914.0
52.422,1979.0
52.423,2068.0
52.424,2199.0
52.425,2187.0
52.426,2130.0
52.427,2067.0
52.428,1939.0
52.429,1935.0
52.43,1993.0
52.431,2078.0
52.432,2197.0
52.433,2166.0
52.434,2113.0
52.435,2042.0
52.436,1924.0
52.437,1949.0
52.438,1990.0
52.439,2091.0
52.44,2207.0
52.441,2165.0
52.442,2118.0
52.443,2023.0
52.444,1941.0
52.445,1974.0
52.446,2015.0
52.447,2145.0
52.448,2227.0
52.449,2158.0
52.45,2100.0
52.451,1972.0
52.452,1930.0
52.453,1961.0
52.454,2027.0
52.455,2128.0
52.456,2166.0
52.457,2142.0
52.458,2116.0
52.459,2062.0
52.46,2019.0
52.461,2035.0
52.462,2065.0
52.463,2160.0
52.464,2174.0
52.465,2153.0
52.466,2107.0
52.467,2047.0
52.468,2023.0
52.469,2023.0
52.47,2074.0
52.471,2208.0
52.472,2183.0
52.473,2121.0
52.474,2056.0
52.475,1932.0
52.476,1956.0
52.477,2004.0
52.478,2021.0
52.479,2194.0
52.48,2153.0
52.481,2104.0
52.482,2025.0
52.483,1924.0
52.484,1958.0
52.485,2004.0
52.486,2090.0
52.487,2193.0
52.488,2141.0
52.489,2081.0
52.49,1966.0
52.491,1912.0
52.492,1952.0
52.493,2018.0
52.494,2140.0
52.495,2191.0
52.496,2133.0
52.497,2075.0
52.498,1944.0
52.499,1936.0
52.5,1979.0
52.501,2031.0
52.502,2153.0
52.503,2165.0
52.504,2114.0
52.505,2046.0
52.506,1924.0
52.507,1938.0
52.508,1992.0
52.509,2060.0
52.51,2174.0
52.511,2162.0
52.512,2116.0
52.513,2040.0
52.514,1920.0
52.515,1951.0
52.516,1993.0
52.517,2067.0
52.518,2166.0
52.519,2145.0
52.52,2092.0
52.521,2016.0
52.522,1908.0
52.523,1948.0
52.524,1990.0
52.525,2074.0
52.526,2145.0
52.527,2120.0
52.528,2076.0
52.529,1964.0
52.53,1905.0
52.531,1954.0
52.532,2015.0
52.533,2137.0
52.534,2160.0
52.535,2121.0
52.536,2069.0
52.537,1940.0
52.538,1923.0
52.539,1975.0
52.54,2039.0
52.541,2163.0
52.542,2147.0
52.543,2124.0
52.544,2065.0
52.545,1939.0
52.546,1957.0
52.547,2004.0
52.548,2076.0
52.549,2188.0
52.55,2149.0
52.551,2117.0
52.552,2048.0
52.553,1953.0
52.554,1979.0
52.555,1965.0
52.556,2037.0
52.557,2201.0
52.558,2123.0
52.559,2092.0
52.56,2022.0
52.561,1918.0
52.562,1958.0
52.563,2007.0
52.564,2118.0
52.565,2170.0
52.566,2101.0
52.567,2068.0
52.568,1962.0
52.569,1907.0
52.57,1954.0
52.571,2011.0
52.572,2134.0
52.573,2165.0
52.574,2097.0
52.575,2049.0
52.576,1886.0
52.577,1804.0
52.578,1758.0
52.579,1789.0
52.58,1950.0
52.581,2073.0
52.582,2193.0
52.583,2322.0
52.584,2319.0
52.585,2386.0
52.586,2500.0
52.587,2624.0
52.588,2757.0
52.589,2740.0
52.59,2636.0
52.591,2514.0
52.592,2293.0
52.593,2262.0
52.594,2271.0
52.595,2279.0
52.596,2328.0
52.597,2235.0
52.598,2110.0
52.599,1988.0
52.6,1824.0
52.601,1809.0
52.602,1838.0
52.603,1927.0
52.604,1965.0
52.605,1904.0
52.606,1838.0
52.607,1739.0
52.608,1716.0
52.609,1766.0
52.61,1831.0
52.611,1944.0
52.612,1969.0
52.613,1914.0
52.614,1841.0
52.615,1733.0
52.616,1731.0
52.617,1785.0
52.618,1847.0
52.619,1985.0
52.62,1983.0
52.621,1931.0
52.622,1831.0
52.623,1747.0
52.624,1768.0
52.625,1814.0
52.626,1895.0
52.627,2019.0
52.628,1990.0
52.629,1938.0
52.63,1852.0
52.631,1758.0
52.632,1805.0
52.633,1854.0
52.634,1938.0
52.635,2046.0
52.636,1997.0
52.637,1946.0
52.638,1832.0
52.639,1771.0
52.64,1820.0
52.641,1880.0
52.642,1980.0
52.643,2040.0
52.644,1991.0
52.645,1934.0
52.646,1806.0
52.647,1796.0
52.648,1845.0
52.649,1897.0
52.65,2019.0
52.651,2049.0
52.652,1994.0
52.653,1933.0
52.654,1779.0
52.655,1790.0
52.656,1854.0
52.657,1917.0
52.658,2045.0
52.659,2040.0
52.66,1986.0
52.661,1925.0
52.662,1782.0
52.663,1810.0
52.664,1873.0
52.665,1948.0
52.666,2081.0
52.667,2055.0
52.668,2001.0
52.669,1939.0
52.67,1820.0
52.671,1873.0
52.672,1936.0
52.673,2012.0
52.674,2140.0
52.675,2107.0
52.676,2067.0
52.677,1990.0
52.678,1879.0
52.679,1933.0
52.68,2013.0
52.681,2121.0
52.682,2193.0
52.683,2163.0
52.684,2116.0
52.685,1996.0
52.686,1932.0
52.687,2011.0
52.688,2079.0
52.689,2210.0
52.69,2241.0
52.691,2195.0
52.692,2131.0
52.693,2002.0
52.694,1970.0
52.695,2036.0
52.696,2117.0
52.697,2240.0
52.698,2243.0
52.699,2189.0
52.7,2122.0
52.701,1991.0
52.702,1979.0
52.703,2041.0
52.704,2122.0
52.705,2248.0
52.706,2218.0
52.707,2173.0
52.708,2099.0
52.709,1974.0
52.71,1980.0
52.711,2036.0
52.712,2123.0
52.713,2234.0
52.714,2191.0
52.715,2133.0
52.716,2061.0
52.717,1952.0
52.718,1978.0
52.719,2033.0
52.72,2150.0
52.721,2217.0
52.722,2160.0
52.723,2105.0
52.724,1995.0
52.725,1927.0
52.726,1966.0
52.727,2020.0
52.728,2160.0
52.729,2186.0
52.73,2141.0
52.731,2083.0
52.732,1957.0
52.733,1927.0
52.734,1962.0
52.735,2027.0
52.736,2171.0
52.737,2168.0
52.738,2114.0
52.739,2059.0
52.74,1928.0
52.741,1922.0
52.742,1971.0
52.743,2041.0
52.744,2182.0
52.745,2164.0
52.746,2111.0
52.747,2045.0
52.748,1922.0
52.749,1939.0
52.75,1984.0
52.751,2057.0
52.752,2187.0
52.753,2154.0
52.754,2108.0
52.755,2033.0
52.756,1919.0
52.757,1960.0
52.758,2004.0
52.759,2089.0
52.76,2190.0
52.761,2142.0
52.762,2090.0
52.763,2020.0
52.764,1926.0
52.765,1964.0
52.766,2015.0
52.767,2138.0
52.768,2190.0
52.769,2145.0
52.77,2091.0
52.771,1971.0
52.772,1929.0
52.773,1980.0
52.774,2037.0
52.775,2123.0
52.776,2166.0
52.777,2159.0
52.778,2120.0
52.779,2047.0
52.78,2016.0
52.781,2034.0
52.782,2075.0
52.783,2133.0
52.784,2157.0
52.785,2150.0
52.786,2092.0
52.787,2034.0
52.788,2024.0
52.789,2033.0
52.79,2082.0
52.791,2142.0
52.792,2154.0
52.793,2140.0
52.794,2079.0
52.795,2021.0
52.796,2025.0
52.797,2044.0
52.798,2088.0
52.799,2130.0
52.8,2144.0
52.801,2126.0
52.802,2053.0
52.803,2012.0
52.804,2020.0
52.805,2032.0
52.806,2088.0
52.807,2132.0
52.808,2132.0
52.809,2105.0
52.81,2039.0
52.811,2002.0
52.812,2011.0
52.813,2048.0
52.814,2097.0
52.815,2124.0
52.816,2131.0
52.817,2092.0
52.818,2019.0
52.819,1993.0
52.82,2014.0
52.821,2060.0
52.822,2114.0
52.823,2117.0
52.824,2110.0
52.825,2066.0
52.826,2012.0
52.827,1998.0
52.828,2012.0
52.829,2069.0
52.83,2107.0
52.831,2111.0
52.832,2108.0
52.833,2054.0
52.834,1994.0
52.835,1991.0
52.836,2012.0
52.837,2074.0
52.838,2105.0
52.839,2101.0
52.84,2088.0
52.841,2032.0
52.842,1984.0
52.843,1985.0
52.844,2009.0
52.845,2072.0
52.846,2096.0
52.847,2086.0
52.848,2068.0
52.849,2001.0
52.85,1954.0
52.851,1965.0
52.852,1998.0
52.853,2044.0
52.854,2087.0
52.855,2073.0
52.856,2047.0
52.857,1989.0
52.858,1955.0
52.859,1971.0
52.86,2015.0
52.861,2078.0
52.862,2096.0
52.863,2071.0
52.864,2043.0
52.865,1990.0
52.866,1982.0
52.867,1999.0
52.868,2050.0
52.869,2103.0
52.87,2113.0
52.871,2077.0
52.872,2043.0
52.873,1993.0
52.874,1991.0
52.875,2006.0
52.876,2073.0
52.877,2112.0
52.878,2085.0
52.879,2053.0
52.88,2004.0
52.881,1971.0
52.882,1991.0
52.883,2015.0
52.884,2079.0
52.885,2118.0
52.886,2102.0
52.887,2054.0
52.888,2014.0
52.889,1980.0
52.89,2004.0
52.891,2034.0
52.892,2097.0
52.893,2118.0
52.894,2090.0
52.895,2040.0
52.896,2009.0
52.897,1981.0
52.898,1995.0
52.899,2044.0
52.9,2113.0
52.901,2133.0
52.902,2103.0
52.903,2004.0
52.904,1898.0
52.905,1800.0
52.906,1756.0
52.907,1804.0
52.908,1966.0
52.909,2141.0
52.91,2289.0
52.911,2355.0
52.912,2400.0
52.913,2453.0
52.914,2528.0
52.915,2623.0
52.916,2686.0
52.917,2682.0
52.918,2616.0
52.919,2428.0
52.92,2330.0
52.921,2283.0
52.922,2255.0
52.923,2266.0
52.924,2254.0
52.925,2189.0
52.926,2100.0
52.927,1952.0
52.928,1877.0
52.929,1847.0
52.93,1858.0
52.931,1891.0
52.932,1915.0
52.933,1889.0
52.934,1855.0
52.935,1786.0
52.936,1772.0
52.937,1790.0
52.938,1842.0
52.939,1908.0
52.94,1938.0
52.941,1911.0
52.942,1874.0
52.943,1799.0
52.944,1797.0
52.945,1822.0
52.946,1878.0
52.947,1939.0
52.948,1947.0
52.949,1945.0
52.95,1875.0
52.951,1805.0
52.952,1820.0
52.953,1879.0
52.954,1924.0
52.955,1968.0
52.956,1981.0
52.957,1949.0
52.958,1885.0
52.959,1817.0
52.96,1844.0
52.961,1904.0
52.962,1952.0
52.963,2017.0
52.964,1984.0
52.965,1956.0
52.966,1890.0
52.967,1823.0
52.968,1863.0
52.969,1898.0
52.97,1970.0
52.971,1998.0
52.972,1980.0
52.973,1951.0
52.974,1880.0
52.975,1828.0
52.976,1875.0
52.977,1920.0
52.978,1987.0
52.979,2007.0
52.98,1984.0
52.981,1930.0
52.982,1871.0
52.983,1844.0
52.984,1868.0
52.985,1967.0
52.986,2002.0
52.987,2003.0
52.988,1987.0
52.989,1938.0
52.99,1879.0
52.991,1864.0
52.992,1902.0
52.993,1976.0
52.994,2031.0
52.995,2036.0
52.996,2016.0
52.997,1954.0
52.998,1909.0
52.999,1898.0
53.0,1949.0
53.001,2042.0
53.002,2090.0
53.003,2085.0
53.004,2065.0
53.005,2003.0
53.006,1964.0
53.007,1966.0
53.008,2034.0
53.009,2122.0
53.01,2168.0
53.011,2161.0
53.012,2126.0
53.013,2063.0
53.014,2031.0
53.015,2036.0
53.016,2101.0
53.017,2182.0
53.018,2200.0
53.019,2192.0
53.02,2156.0
53.021,2091.0
53.022,2066.0
53.023,2067.0
53.024,2142.0
53.025,2221.0
53.026,2235.0
53.027,2210.0
53.028,2153.0
53.029,2091.0
53.03,2082.0
53.031,2083.0
53.032,2157.0
53.033,2232.0
53.034,2221.0
53.035,2190.0
53.036,2144.0
53.037,2094.0
53.038,2096.0
53.039,2095.0
53.04,2165.0
53.041,2224.0
53.042,2215.0
53.043,2178.0
53.044,2114.0
53.045,2071.0
53.046,2078.0
53.047,2094.0
53.048,2170.0
53.049,2224.0
53.05,2204.0
53.051,2167.0
53.052,2102.0
53.053,2059.0
53.054,2072.0
53.055,2096.0
53.056,2176.0
53.057,2204.0
53.058,2182.0
53.059,2141.0
53.06,2070.0
53.061,2050.0
53.062,2062.0
53.063,2087.0
53.064,2169.0
53.065,2190.0
53.066,2170.0
53.067,2118.0
53.068,2062.0
53.069,2054.0
53.07,2074.0
53.071,2117.0
53.072,2178.0
53.073,2192.0
53.074,2163.0
53.075,2106.0
53.076,2049.0
53.077,2056.0
53.078,2080.0
53.079,2135.0
53.08,2177.0
53.081,2175.0
53.082,2153.0
53.083,2086.0
53.084,2052.0
53.085,2057.0
53.086,2084.0
53.087,2137.0
53.088,2184.0
53.089,2181.0
53.09,2145.0
53.091,2078.0
53.092,2051.0
53.093,2063.0
53.094,2096.0
53.095,2153.0
53.096,2178.0
53.097,2170.0
53.098,2130.0
53.099,2060.0
53.1,2047.0
53.101,2049.0
53.102,2108.0
53.103,2157.0
53.104,2168.0
53.105,2159.0
53.106,2107.0
53.107,2049.0
53.108,2041.0
53.109,2060.0
53.11,2118.0
53.111,2167.0
53.112,2164.0
53.113,2159.0
53.114,2101.0
53.115,2043.0
53.116,2050.0
53.117,2069.0
53.118,2142.0
53.119,2164.0
53.12,2168.0
53.121,2152.0
53.122,2088.0
53.123,2042.0
53.124,2059.0
53.125,2082.0
53.126,2151.0
53.127,2172.0
53.128,2160.0
53.129,2137.0
53.13,2074.0
53.131,2044.0
53.132,2051.0
53.133,2100.0
53.134,2161.0
53.135,2172.0
53.136,2156.0
53.137,2127.0
53.138,2071.0
53.139,2046.0
53.14,2053.0
53.141,2104.0
53.142,2160.0
53.143,2162.0
53.144,2140.0
53.145,2107.0
53.146,2050.0
53.147,2039.0
53.148,2068.0
53.149,2124.0
53.15,2174.0
53.151,2156.0
53.152,2126.0
53.153,2088.0
53.154,2034.0
53.155,2033.0
53.156,2056.0
53.157,2124.0
53.158,2162.0
53.159,2137.0
53.16,2100.0
53.161,2047.0
53.162,2010.0
53.163,2014.0
53.164,2051.0
53.165,2124.0
53.166,2149.0
53.167,2129.0
53.168,2083.0
53.169,2054.0
53.17,2025.0
53.171,2030.0
53.172,2082.0
53.173,2139.0
53.174,2159.0
53.175,2129.0
53.176,2079.0
53.177,2049.0
53.178,2036.0
53.179,2060.0
53.18,2110.0
53.181,2167.0
53.182,2162.0
53.183,2140.0
53.184,2067.0
53.185,2042.0
53.186,2035.0
53.187,2057.0
53.188,2102.0
53.189,2161.0
53.19,2147.0
53.191,2118.0
53.192,2060.0
53.193,2041.0
53.194,2037.0
53.195,2060.0
53.196,2132.0
53.197,2168.0
53.198,2153.0
53.199,2117.0
53.2,2040.0
53.201,2015.0
53.202,2031.0
53.203,2060.0
53.204,2131.0
53.205,2165.0
53.206,2141.0
53.207,2098.0
53.208,2022.0
53.209,2004.0
53.21,2038.0
53.211,2067.0
53.212,2117.0
53.213,2105.0
53.214,2017.0
53.215,1893.0
53.216,1741.0
53.217,1690.0
53.218,1741.0
53.219,1938.0
53.22,2164.0
53.221,2334.0
53.222,2421.0
53.223,2453.0
53.224,2446.0
53.225,2505.0
53.226,2545.0
53.227,2613.0
53.228,2647.0
53.229,2598.0
53.23,2479.0
53.231,2349.0
53.232,2248.0
53.233,2233.0
53.234,2217.0
53.235,2232.0
53.236,2239.0
53.237,2187.0
53.238,2103.0
53.239,1967.0
53.24,1865.0
53.241,1873.0
53.242,1888.0
53.243,1919.0
53.244,1968.0
53.245,1946.0
53.246,1909.0
53.247,1839.0
53.248,1787.0
53.249,1832.0
53.25,1878.0
53.251,1939.0
53.252,1971.0
53.253,1956.0
53.254,1921.0
53.255,1850.0
53.256,1815.0
53.257,1861.0
53.258,1912.0
53.259,1972.0
53.26,1990.0
53.261,1969.0
53.262,1918.0
53.263,1858.0
53.264,1834.0
53.265,1890.0
53.266,1948.0
53.267,1997.0
53.268,2008.0
53.269,1978.0
53.27,1924.0
53.271,1869.0
53.272,1853.0
53.273,1898.0
53.274,1960.0
53.275,2009.0
53.276,1999.0
53.277,1979.0
53.278,1909.0
53.279,1873.0
53.28,1862.0
53.281,1914.0
53.282,1970.0
53.283,2014.0
53.284,1997.0
53.285,1969.0
53.286,1896.0
53.287,1862.0
53.288,1851.0
53.289,1915.0
53.29,1977.0
53.291,2004.0
53.292,1998.0
53.293,1949.0
53.294,1915.0
53.295,1865.0
53.296,1860.0
53.297,1927.0
53.298,1996.0
53.299,2009.0
53.3,2002.0
53.301,1954.0
53.302,1890.0
53.303,1878.0
53.304,1873.0
53.305,1961.0
53.306,2032.0
53.307,2038.0
53.308,2033.0
53.309,1977.0
53.31,1927.0
53.311,1933.0
53.312,1947.0
53.313,2034.0
53.314,2098.0
53.315,2093.0
53.316,2072.0
53.317,2018.0
53.318,1985.0
53.319,2004.0
53.32,2016.0
53.321,2106.0
53.322,2156.0
53.323,2153.0
53.324,2129.0
53.325,2055.0
53.326,2030.0
53.327,2045.0
53.328,2064.0
53.329,2145.0
53.33,2183.0
53.331,2167.0
53.332,2133.0
53.333,2077.0
53.334,2051.0
53.335,2060.0
53.336,2091.0
53.337,2164.0
53.338,2185.0
53.339,2164.0
53.34,2125.0
53.341,2060.0
53.342,2041.0
53.343,2069.0
53.344,2084.0
53.345,2162.0
53.346,2170.0
53.347,2143.0
53.348,2113.0
53.349,2032.0
53.35,2027.0
53.351,2051.0
53.352,2085.0
53.353,2146.0
53.354,2154.0
53.355,2126.0
53.356,2058.0
53.357,2014.0
53.358,2009.0
53.359,2029.0
53.36,2078.0
53.361,2126.0
53.362,2133.0
53.363,2089.0
53.364,2020.0
53.365,1986.0
53.366,1998.0
53.367,2030.0
53.368,2075.0
53.369,2103.0
53.37,2101.0
53.371,2058.0
53.372,1989.0
53.373,1966.0
53.374,1980.0
53.375,2025.0
53.376,2057.0
53.377,2087.0
53.378,2080.0
53.379,2023.0
53.38,1964.0
53.381,1949.0
53.382,1966.0
53.383,2012.0
53.384,2059.0
53.385,2085.0
53.386,2079.0
53.387,2011.0
53.388,1958.0
53.389,1949.0
53.39,1968.0
53.391,2031.0
53.392,2069.0
53.393,2068.0
53.394,2049.0
53.395,1987.0
53.396,1946.0
53.397,1952.0
53.398,1978.0
53.399,2034.0
53.4,2064.0
53.401,2049.0
53.402,2025.0
53.403,1959.0
53.404,1922.0
53.405,1938.0
53.406,1969.0
53.407,2028.0
53.408,2046.0
53.409,2029.0
53.41,2007.0
53.411,1945.0
53.412,1929.0
53.413,1942.0
53.414,1982.0
53.415,2046.0
53.416,2052.0
53.417,2038.0
53.418,1998.0
53.419,1938.0
53.42,1923.0
53.421,1948.0
53.422,2001.0
53.423,2053.0
53.424,2047.0
53.425,2033.0
53.426,1994.0
53.427,1946.0
53.428,1939.0
53.429,1955.0
53.43,2017.0
53.431,2060.0
53.432,2054.0
53.433,2031.0
53.434,1978.0
53.435,1934.0
53.436,1941.0
53.437,1968.0
53.438,2031.0
53.439,2069.0
53.44,2045.0
53.441,2012.0
53.442,1959.0
53.443,1918.0
53.444,1935.0
53.445,1969.0
53.446,2035.0
53.447,2062.0
53.448,2037.0
53.449,2011.0
53.45,1945.0
53.451,1925.0
53.452,1891.0
53.453,1980.0
53.454,2039.0
53.455,2042.0
53.456,2026.0
53.457,1917.0
53.458,1908.0
53.459,1900.0
53.46,1916.0
53.461,1966.0
53.462,2028.0
53.463,2034.0
53.464,2001.0
53.465,1941.0
53.466,1903.0
53.467,1907.0
53.468,1933.0
53.469,1989.0
53.47,2050.0
53.471,2041.0
53.472,1972.0
53.473,1962.0
53.474,1924.0
53.475,1926.0
53.476,1958.0
53.477,2003.0
53.478,2079.0
53.479,2053.0
53.48,1992.0
53.481,1947.0
53.482,1948.0
53.483,1937.0
53.484,1983.0
53.485,2040.0
53.486,2073.0
53.487,2046.0
53.488,2001.0
53.489,1928.0
53.49,1923.0
53.491,1953.0
53.492,1996.0
53.493,2060.0
53.494,2073.0
53.495,2053.0
53.496,1992.0
53.497,1928.0
53.498,1931.0
53.499,1953.0
53.5,2006.0
53.501,2061.0
53.502,2067.0
53.503,2035.0
53.504,1963.0
53.505,1896.0
53.506,1911.0
53.507,1942.0
53.508,2002.0
53.509,2049.0
53.51,2040.0
53.511,1992.0
53.512,1873.0
53.513,1740.0
53.514,1680.0
53.515,1668.0
53.516,1727.0
53.517,1875.0
53.518,2029.0
53.519,2145.0
53.52,2222.0
53.521,2258.0
53.522,2375.0
53.523,2470.0
53.524,2554.0
53.525,2601.0
53.526,2586.0
53.527,2510.0
53.528,2363.0
53.529,2243.0
53.53,2216.0
53.531,2228.0
53.532,2245.0
53.533,2209.0
53.534,2148.0
53.535,2049.0
53.536,1927.0
53.537,1834.0
53.538,1825.0
53.539,1851.0
53.54,1883.0
53.541,1872.0
53.542,1838.0
53.543,1781.0
53.544,1723.0
53.545,1714.0
53.546,1768.0
53.547,1827.0
53.548,1880.0
53.549,1881.0
53.55,1849.0
53.551,1786.0
53.552,1736.0
53.553,1726.0
53.554,1779.0
53.555,1848.0
53.556,1898.0
53.557,1882.0
53.558,1859.0
53.559,1793.0
53.56,1749.0
53.561,1748.0
53.562,1804.0
53.563,1873.0
53.564,1910.0
53.565,1898.0
53.566,1859.0
53.567,1792.0
53.568,1755.0
53.569,1753.0
53.57,1826.0
53.571,1897.0
53.572,1925.0
53.573,1903.0
53.574,1860.0
53.575,1791.0
53.576,1779.0
53.577,1777.0
53.578,1849.0
53.579,1916.0
53.58,1918.0
53.581,1903.0
53.582,1848.0
53.583,1788.0
53.584,1783.0
53.585,1773.0
53.586,1866.0
53.587,1914.0
53.588,1911.0
53.589,1897.0
53.59,1836.0
53.591,1777.0
53.592,1779.0
53.593,1785.0
53.594,1874.0
53.595,1921.0
53.596,1911.0
53.597,1883.0
53.598,1830.0
53.599,1788.0
53.6,1791.0
53.601,1813.0
53.602,1901.0
53.603,1945.0
53.604,1935.0
53.605,1907.0
53.606,1854.0
53.607,1824.0
53.608,1849.0
53.609,1879.0
53.61,1967.0
53.611,2013.0
53.612,2005.0
53.613,1970.0
53.614,1912.0
53.615,1904.0
53.616,1930.0
53.617,1963.0
53.618,2058.0
53.619,2083.0
53.62,2075.0
53.621,2028.0
53.622,1972.0
53.623,1977.0
53.624,1996.0
53.625,2043.0
53.626,2122.0
53.627,2137.0
53.628,2116.0
53.629,2057.0
53.63,2011.0
53.631,2007.0
53.632,2032.0
53.633,2066.0
53.634,2146.0
53.635,2139.0
53.636,2112.0
53.637,2046.0
53.638,2002.0
53.639,2009.0
53.64,2038.0
53.641,2088.0
53.642,2147.0
53.643,2134.0
53.644,2100.0
53.645,2038.0
53.646,1996.0
53.647,2010.0
53.648,2049.0
53.649,2089.0
53.65,2124.0
53.651,2121.0
53.652,2073.0
53.653,2017.0
53.654,1989.0
53.655,2006.0
53.656,2053.0
53.657,2094.0
53.658,2122.0
53.659,2112.0
53.66,2056.0
53.661,2008.0
53.662,1989.0
53.663,2004.0
53.664,2052.0
53.665,2082.0
53.666,2096.0
53.667,2084.0
53.668,2030.0
53.669,1987.0
53.67,1986.0
53.671,2005.0
53.672,2066.0
53.673,2085.0
53.674,2091.0
53.675,2069.0
53.676,2001.0
53.677,1962.0
53.678,1969.0
53.679,2006.0
53.68,2070.0
53.681,2088.0
53.682,2084.0
53.683,2066.0
53.684,1991.0
53.685,1959.0
53.686,1976.0
53.687,2014.0
53.688,2074.0
53.689,2074.0
53.69,2078.0
53.691,2045.0
53.692,1980.0
53.693,1954.0
53.694,1971.0
53.695,2023.0
53.696,2084.0
53.697,2068.0
53.698,2061.0
53.699,2022.0
53.7,1979.0
53.701,1967.0
53.702,1990.0
53.703,2036.0
53.704,2081.0
53.705,2071.0
53.706,2056.0
53.707,2014.0
53.708,1963.0
53.709,1967.0
53.71,1994.0
53.711,2048.0
53.712,2094.0
53.713,2076.0
53.714,2051.0
53.715,1992.0
53.716,1948.0
53.717,1952.0
53.718,1995.0
53.719,2059.0
53.72,2088.0
53.721,2074.0
53.722,2040.0
53.723,1991.0
53.724,1965.0
53.725,1971.0
53.726,2010.0
53.727,2064.0
53.728,2092.0
53.729,2055.0
53.73,2015.0
53.731,1972.0
53.732,1953.0
53.733,1966.0
53.734,2017.0
53.735,2075.0
53.736,2086.0
53.737,2046.0
53.738,2012.0
53.739,1970.0
53.74,1963.0
53.741,1974.0
53.742,2033.0
53.743,2089.0
53.744,2085.0
53.745,2045.0
53.746,1984.0
53.747,1960.0
53.748,1959.0
53.749,1981.0
53.75,2046.0
53.751,2087.0
53.752,2077.0
53.753,2026.0
53.754,1971.0
53.755,1943.0
53.756,1957.0
53.757,1983.0
53.758,2056.0
53.759,2094.0
53.76,2068.0
53.761,2023.0
53.762,1963.0
53.763,1939.0
53.764,1965.0
53.765,2000.0
53.766,2059.0
53.767,2078.0
53.768,2061.0
53.769,2007.0
53.77,1937.0
53.771,1931.0
53.772,1947.0
53.773,1989.0
53.774,2053.0
53.775,2051.0
53.776,2033.0
53.777,1968.0
53.778,1916.0
53.779,1935.0
53.78,1948.0
53.781,2003.0
53.782,2061.0
53.783,2056.0
53.784,2034.0
53.785,1968.0
53.786,1920.0
53.787,1940.0
53.788,1967.0
53.789,2041.0
53.79,2084.0
53.791,2065.0
53.792,2047.0
53.793,1973.0
53.794,1930.0
53.795,1971.0
53.796,1997.0
53.797,2059.0
53.798,2093.0
53.799,2067.0
53.8,2044.0
53.801,1959.0
53.802,1927.0
53.803,1956.0
53.804,2000.0
53.805,2055.0
53.806,2083.0
53.807,2079.0
53.808,2024.0
53.809,1954.0
53.81,1913.0
53.811,1950.0
53.812,2011.0
53.813,2076.0
53.814,2089.0
53.815,2066.0
53.816,2012.0
53.817,1946.0
53.818,1922.0
53.819,1966.0
53.82,2023.0
53.821,2085.0
53.822,2072.0
53.823,2052.0
53.824,1988.0
53.825,1911.0
53.826,1875.0
53.827,1854.0
53.828,1848.0
53.829,1824.0
53.83,1802.0
53.831,1845.0
53.832,1947.0
53.833,2073.0
53.834,2250.0
53.835,2390.0
53.836,2529.0
53.837,2621.0
53.838,2636.0
53.839,2624.0
53.84,2554.0
53.841,2464.0
53.842,2388.0
53.843,2350.0
53.844,2357.0
53.845,2329.0
53.846,2258.0
53.847,2179.0
53.848,2056.0
53.849,1984.0
53.85,1922.0
53.851,1919.0
53.852,1940.0
53.853,1912.0
53.854,1869.0
53.855,1804.0
53.856,1746.0
53.857,1733.0
53.858,1736.0
53.859,1817.0
53.86,1886.0
53.861,1888.0
53.862,1864.0
53.863,1803.0
53.864,1752.0
53.865,1748.0
53.866,1754.0
53.867,1856.0
53.868,1915.0
53.869,1905.0
53.87,1884.0
53.871,1822.0
53.872,1774.0
53.873,1777.0
53.874,1799.0
53.875,1898.0
53.876,1937.0
53.877,1934.0
53.878,1891.0
53.879,1835.0
53.88,1796.0
53.881,1817.0
53.882,1828.0
53.883,1931.0
53.884,1958.0
53.885,1944.0
53.886,1908.0
53.887,1850.0
53.888,1826.0
53.889,1833.0
53.89,1856.0
53.891,1942.0
53.892,1966.0
53.893,1934.0
53.894,1899.0
53.895,1834.0
53.896,1823.0
53.897,1837.0
53.898,1867.0
53.899,1951.0
53.9,1950.0
53.901,1931.0
53.902,1869.0
53.903,1810.0
53.904,1818.0
53.905,1823.0
53.906,1880.0
53.907,1952.0
53.908,1944.0
53.909,1922.0
53.91,1864.0
53.911,1819.0
53.912,1824.0
53.913,1859.0
53.914,1897.0
53.915,1969.0
53.916,1957.0
53.917,1935.0
53.918,1869.0
53.919,1838.0
53.92,1851.0
53.921,1891.0
53.922,1945.0
53.923,2017.0
53.924,2009.0
53.925,1974.0
53.926,1925.0
53.927,1909.0
53.928,1933.0
53.929,1983.0
53.93,2046.0
53.931,2090.0
53.932,2081.0
53.933,2048.0
53.934,2000.0
53.935,1996.0
53.936,2021.0
53.937,2071.0
53.938,2127.0
53.939,2141.0
53.94,2137.0
53.941,2082.0
53.942,2037.0
53.943,2038.0
53.944,2070.0
53.945,2121.0
53.946,2162.0
53.947,2176.0
53.948,2152.0
53.949,2095.0
53.95,2052.0
53.951,2056.0
53.952,2090.0
53.953,2137.0
53.954,2159.0
53.955,2168.0
53.956,2144.0
53.957,2082.0
53.958,2045.0
53.959,2045.0
53.96,2088.0
53.961,2142.0
53.962,2135.0
53.963,2153.0
53.964,2129.0
53.965,2062.0
53.966,2035.0
53.967,2052.0
53.968,2087.0
53.969,2137.0
53.97,2128.0
53.971,2132.0
53.972,2091.0
53.973,2029.0
53.974,2014.0
53.975,2030.0
53.976,2082.0
53.977,2134.0
53.978,2110.0
53.979,2111.0
53.98,2063.0
53.981,2009.0
53.982,2006.0
53.983,2025.0
53.984,2074.0
53.985,2122.0
53.986,2108.0
53.987,2088.0
53.988,2037.0
53.989,1991.0
53.99,2002.0
53.991,2032.0
53.992,2084.0
53.993,2124.0
53.994,2085.0
53.995,2072.0
53.996,2016.0
53.997,1981.0
53.998,1990.0
53.999,2024.0
54.0,2081.0
54.001,2103.0
54.002,2069.0
54.003,2049.0
54.004,1998.0
54.005,1972.0
54.006,1997.0
54.007,2042.0
54.008,2104.0
54.009,2113.0
54.01,2070.0
54.011,2042.0
54.012,1992.0
54.013,1977.0
54.014,1994.0
54.015,2050.0
54.016,2108.0
54.017,2113.0
54.018,2071.0
54.019,2024.0
54.02,1977.0
54.021,1983.0
54.022,2009.0
54.023,2062.0
54.024,2114.0
54.025,2100.0
54.026,2058.0
54.027,2011.0
54.028,1969.0
54.029,1987.0
54.03,2000.0
54.031,2051.0
54.032,2116.0
54.033,2092.0
54.034,2053.0
54.035,2002.0
54.036,1981.0
54.037,1987.0
54.038,2022.0
54.039,2093.0
54.04,2113.0
54.041,2094.0
54.042,2042.0
54.043,1987.0
54.044,1987.0
54.045,2003.0
54.046,2044.0
54.047,2107.0
54.048,2124.0
54.049,2098.0
54.05,2057.0
54.051,1948.0
54.052,1985.0
54.053,1991.0
54.054,2088.0
54.055,2142.0
54.056,2135.0
54.057,2082.0
54.058,2005.0
54.059,1963.0
54.06,1999.0
54.061,2018.0
54.062,2068.0
54.063,2124.0
54.064,2094.0
54.065,2075.0
54.066,2015.0
54.067,1963.0
54.068,1976.0
54.069,2013.0
54.07,2080.0
54.071,2109.0
54.072,2092.0
54.073,2061.0
54.074,1995.0
54.075,1952.0
54.076,1985.0
54.077,2021.0
54.078,2085.0
54.079,2109.0
54.08,2090.0
54.081,2053.0
54.082,1983.0
54.083,1955.0
54.084,1989.0
54.085,2031.0
54.086,2084.0
54.087,2109.0
54.088,2096.0
54.089,2051.0
54.09,1975.0
54.091,1952.0
54.092,1984.0
54.093,2043.0
54.094,2101.0
54.095,2103.0
54.096,2082.0
54.097,2031.0
54.098,1962.0
54.099,1957.0
54.1,1995.0
54.101,2053.0
54.102,2097.0
54.103,2096.0
54.104,2069.0
54.105,2011.0
54.106,1956.0
54.107,1962.0
54.108,2006.0
54.109,2072.0
54.11,2141.0
54.111,2107.0
54.112,2081.0
54.113,2003.0
54.114,1949.0
54.115,1962.0
54.116,2013.0
54.117,2076.0
54.118,2103.0
54.119,2078.0
54.12,2043.0
54.121,1968.0
54.122,1920.0
54.123,1943.0
54.124,1999.0
54.125,2078.0
54.126,2100.0
54.127,2075.0
54.128,2033.0
54.129,1964.0
54.13,1942.0
54.131,1950.0
54.132,2027.0
54.133,2093.0
54.134,2101.0
54.135,2086.0
54.136,2029.0
54.137,1969.0
54.138,1967.0
54.139,1979.0
54.14,2053.0
54.141,2110.0
54.142,2103.0
54.143,2091.0
54.144,2035.0
54.145,1989.0
54.146,1979.0
54.147,1988.0
54.148,2079.0
54.149,2128.0
54.15,2107.0
54.151,2078.0
54.152,2010.0
54.153,1966.0
54.154,1973.0
54.155,1999.0
54.156,2090.0
54.157,2122.0
54.158,2100.0
54.159,2067.0
54.16,2009.0
54.161,1979.0
54.162,1982.0
54.163,1999.0
54.164,2098.0
54.165,2112.0
54.166,2088.0
54.167,2040.0
54.168,1980.0
54.169,1954.0
54.17,1968.0
54.171,1992.0
54.172,2087.0
54.173,2089.0
54.174,2046.0
54.175,1935.0
54.176,1808.0
54.177,1726.0
54.178,1730.0
54.179,1835.0
54.18,2083.0
54.181,2261.0
54.182,2418.0
54.183,2449.0
54.184,2470.0
54.185,2527.0
54.186,2578.0
54.187,2629.0
54.188,2697.0
54.189,2638.0
54.19,2521.0
54.191,2365.0
54.192,2256.0
54.193,2207.0
54.194,2179.0
54.195,2169.0
54.196,2176.0
54.197,2116.0
54.198,2023.0
54.199,1898.0
54.2,1818.0
54.201,1797.0
54.202,1800.0
54.203,1825.0
54.204,1876.0
54.205,1871.0
54.206,1828.0
54.207,1777.0
54.208,1754.0
54.209,1764.0
54.21,1816.0
54.211,1850.0
54.212,1894.0
54.213,1877.0
54.214,1833.0
54.215,1782.0
54.216,1777.0
54.217,1795.0
54.218,1844.0
54.219,1895.0
54.22,1907.0
54.221,1898.0
54.222,1844.0
54.223,1795.0
54.224,1801.0
54.225,1827.0
54.226,1893.0
54.227,1909.0
54.228,1933.0
54.229,1918.0
54.23,1855.0
54.231,1827.0
54.232,1835.0
54.233,1867.0
54.234,1926.0
54.235,1941.0
54.236,1956.0
54.237,1923.0
54.238,1860.0
54.239,1835.0
54.24,1854.0
54.241,1894.0
54.242,1957.0
54.243,1955.0
54.244,1960.0
54.245,1923.0
54.246,1864.0
54.247,1844.0
54.248,1863.0
54.249,1915.0
54.25,1966.0
54.251,1946.0
54.252,1963.0
54.253,1917.0
54.254,1859.0
54.255,1855.0
54.256,1877.0
54.257,1928.0
54.258,1985.0
54.259,1959.0
54.26,1961.0
54.261,1912.0
54.262,1864.0
54.263,1873.0
54.264,1910.0
54.265,1960.0
54.266,2006.0
54.267,1980.0
54.268,1972.0
54.269,1934.0
54.27,1906.0
54.271,1932.0
54.272,1977.0
54.273,2034.0
54.274,2064.0
54.275,2047.0
54.276,2040.0
54.277,1993.0
54.278,1978.0
54.279,1994.0
54.28,2050.0
54.281,2116.0
54.282,2146.0
54.283,2112.0
54.284,2088.0
54.285,2048.0
54.286,2041.0
54.287,2056.0
54.288,2111.0
54.289,2176.0
54.29,2185.0
54.291,2145.0
54.292,2130.0
54.293,2088.0
54.294,2079.0
54.295,2106.0
54.296,2163.0
54.297,2206.0
54.298,2203.0
54.299,2165.0
54.3,2131.0
54.301,2086.0
54.302,2087.0
54.303,2108.0
54.304,2172.0
54.305,2208.0
54.306,2194.0
54.307,2135.0
54.308,2103.0
54.309,2073.0
54.31,2076.0
54.311,2114.0
54.312,2174.0
54.313,2198.0
54.314,2168.0
54.315,2114.0
54.316,2070.0
54.317,2049.0
54.318,2063.0
54.319,2098.0
54.32,2162.0
54.321,2167.0
54.322,2153.0
54.323,2098.0
54.324,2041.0
54.325,2033.0
54.326,2054.0
54.327,2100.0
54.328,2164.0
54.329,2165.0
54.33,2148.0
54.331,2076.0
54.332,2033.0
54.333,2037.0
54.334,2051.0
54.335,2101.0
54.336,2160.0
54.337,2148.0
54.338,2123.0
54.339,2048.0
54.34,2010.0
54.341,2020.0
54.342,2043.0
54.343,2106.0
54.344,2146.0
54.345,2140.0
54.346,2108.0
54.347,2030.0
54.348,1998.0
54.349,2020.0
54.35,2051.0
54.351,2110.0
54.352,2144.0
54.353,2131.0
54.354,2094.0
54.355,2011.0
54.356,1987.0
54.357,2010.0
54.358,2045.0
54.359,2109.0
54.36,2140.0
54.361,2124.0
54.362,2088.0
54.363,2005.0
54.364,1994.0
54.365,2017.0
54.366,2081.0
54.367,2135.0
54.368,2140.0
54.369,2127.0
54.37,2068.0
54.371,2010.0
54.372,1996.0
54.373,2035.0
54.374,2092.0
54.375,2143.0
54.376,2133.0
54.377,2113.0
54.378,2054.0
54.379,1993.0
54.38,2004.0
54.381,2028.0
54.382,2105.0
54.383,2154.0
54.384,2143.0
54.385,2108.0
54.386,2044.0
54.387,1987.0
54.388,2002.0
54.389,2050.0
54.39,2114.0
54.391,2150.0
54.392,2133.0
54.393,2107.0
54.394,2040.0
54.395,1995.0
54.396,2008.0
54.397,2054.0
54.398,2124.0
54.399,2149.0
54.4,2132.0
54.401,2089.0
54.402,2022.0
54.403,1991.0
54.404,1999.0
54.405,2071.0
54.406,2130.0
54.407,2135.0
54.408,2110.0
54.409,2072.0
54.41,2006.0
54.411,1987.0
54.412,1999.0
54.413,2075.0
54.414,2124.0
54.415,2122.0
54.416,2107.0
54.417,2056.0
54.418,1993.0
54.419,1981.0
54.42,2000.0
54.421,2077.0
54.422,2135.0
54.423,2117.0
54.424,2093.0
54.425,2033.0
54.426,1989.0
54.427,1987.0
54.428,2012.0
54.429,2100.0
54.43,2134.0
54.431,2116.0
54.432,2088.0
54.433,2011.0
54.434,1983.0
54.435,1983.0
54.436,2020.0
54.437,2095.0
54.438,2130.0
54.439,2127.0
54.44,2043.0
54.441,2029.0
54.442,1997.0
54.443,1986.0
54.444,2037.0
54.445,2107.0
54.446,2123.0
54.447,2119.0
54.448,2067.0
54.449,2012.0
54.45,1984.0
54.451,1999.0
54.452,2044.0
54.453,2122.0
54.454,2128.0
54.455,2105.0
54.456,2056.0
54.457,2001.0
54.458,2002.0
54.459,2010.0
54.46,2062.0
54.461,2130.0
54.462,2114.0
54.463,2088.0
54.464,2030.0
54.465,1994.0
54.466,1995.0
54.467,2016.0
54.468,2062.0
54.469,2129.0
54.47,2117.0
54.471,2092.0
54.472,2029.0
54.473,1987.0
54.474,1992.0
54.475,2026.0
54.476,2072.0
54.477,2117.0
54.478,2105.0
54.479,2066.0
54.48,2011.0
54.481,1988.0
54.482,2004.0
54.483,2040.0
54.484,2072.0
54.485,2111.0
54.486,2099.0
54.487,2051.0
54.488,1994.0
54.489,1980.0
54.49,1986.0
54.491,2030.0
54.492,2081.0
54.493,2101.0
54.494,2078.0
54.495,2028.0
54.496,1984.0
54.497,1980.0
54.498,2001.0
54.499,2053.0
54.5,2081.0
54.501,2097.0
54.502,2082.0
54.503,2019.0
54.504,1980.0
54.505,1978.0
54.506,2010.0
54.507,2063.0
54.508,2078.0
54.509,2096.0
54.51,2065.0
54.511,2007.0
54.512,1959.0
54.513,1972.0
54.514,2002.0
54.515,2056.0
54.516,2079.0
54.517,2082.0
54.518,2053.0
54.519,1984.0
54.52,1962.0
54.521,1981.0
54.522,2018.0
54.523,2076.0
54.524,2076.0
54.525,2086.0
54.526,2049.0
54.527,1991.0
54.528,1981.0
54.529,2001.0
54.53,2053.0
54.531,2100.0
54.532,2095.0
54.533,2094.0
54.534,2074.0
54.535,1991.0
54.536,1995.0
54.537,2012.0
54.538,2071.0
54.539,2112.0
54.54,2093.0
54.541,2092.0
54.542,2035.0
54.543,1987.0
54.544,1981.0
54.545,2024.0
54.546,2090.0
54.547,2117.0
54.548,2084.0
54.549,2087.0
54.55,2023.0
54.551,1999.0
54.552,2003.0
54.553,2016.0
54.554,2077.0
54.555,2110.0
54.556,2085.0
54.557,2058.0
54.558,2014.0
54.559,1948.0
54.56,1973.0
54.561,2045.0
54.562,2123.0
54.563,2110.0
54.564,2071.0
54.565,1997.0
54.566,1888.0
54.567,1771.0
54.568,1758.0
54.569,1825.0
54.57,2005.0
54.571,2185.0
54.572,2330.0
54.573,2432.0
54.574,2452.0
54.575,2512.0
54.576,2598.0
54.577,2660.0
54.578,2718.0
54.579,2680.0
54.58,2581.0
54.581,2434.0
54.582,2312.0
54.583,2264.0
54.584,2241.0
54.585,2249.0
54.586,2230.0
54.587,2164.0
54.588,2057.0
54.589,1961.0
54.59,1884.0
54.591,1847.0
54.592,1864.0
54.593,1901.0
54.594,1912.0
54.595,1895.0
54.596,1845.0
54.597,1797.0
54.598,1788.0
54.599,1814.0
54.6,1857.0
54.601,1927.0
54.602,1927.0
54.603,1912.0
54.604,1861.0
54.605,1822.0
54.606,1816.0
54.607,1840.0
54.608,1903.0
54.609,1951.0
54.61,1954.0
54.611,1937.0
54.612,1868.0
54.613,1829.0
54.614,1850.0
54.615,1879.0
54.616,1942.0
54.617,1990.0
54.618,1987.0
54.619,1957.0
54.62,1883.0
54.621,1854.0
54.622,1874.0
54.623,1901.0
54.624,1966.0
54.625,2007.0
54.626,2001.0
54.627,1971.0
54.628,1891.0
54.629,1861.0
54.63,1894.0
54.631,1928.0
54.632,1989.0
54.633,2014.0
54.634,2005.0
54.635,1965.0
54.636,1886.0
54.637,1871.0
54.638,1903.0
54.639,1940.0
54.64,1993.0
54.641,2018.0
54.642,1993.0
54.643,1936.0
54.644,1869.0
54.645,1867.0
54.646,1889.0
54.647,1948.0
54.648,2000.0
54.649,2005.0
54.65,1990.0
54.651,1936.0
54.652,1877.0
54.653,1883.0
54.654,1922.0
54.655,1991.0
54.656,2036.0
54.657,2032.0
54.658,2011.0
54.659,1946.0
54.66,1909.0
54.661,1916.0
54.662,1965.0
54.663,2037.0
54.664,2089.0
54.665,2088.0
54.666,2070.0
54.667,2013.0
54.668,1971.0
54.669,2001.0
54.67,2058.0
54.671,2124.0
54.672,2161.0
54.673,2161.0
54.674,2131.0
54.675,2072.0
54.676,2050.0
54.677,2066.0
54.678,2130.0
54.679,2188.0
54.68,2208.0
54.681,2206.0
54.682,2166.0
54.683,2111.0
54.684,2081.0
54.685,2116.0
54.686,2175.0
54.687,2237.0
54.688,2238.0
54.689,2226.0
54.69,2175.0
54.691,2116.0
54.692,2098.0
54.693,2114.0
54.694,2194.0
54.695,2238.0
54.696,2238.0
54.697,2210.0
54.698,2154.0
54.699,2097.0
54.7,2093.0
54.701,2110.0
54.702,2185.0
54.703,2226.0
54.704,2211.0
54.705,2190.0
54.706,2120.0
54.707,2078.0
54.708,2074.0
54.709,2098.0
54.71,2185.0
54.711,2207.0
54.712,2189.0
54.713,2153.0
54.714,2091.0
54.715,2062.0
54.716,2050.0
54.717,2103.0
54.718,2175.0
54.719,2194.0
54.72,2178.0
54.721,2135.0
54.722,2073.0
54.723,2055.0
54.724,2051.0
54.725,2102.0
54.726,2183.0
54.727,2187.0
54.728,2167.0
54.729,2112.0
54.73,2061.0
54.731,2050.0
54.732,2056.0
54.733,2117.0
54.734,2197.0
54.735,2188.0
54.736,2170.0
54.737,2103.0
54.738,2064.0
54.739,2062.0
54.74,2080.0
54.741,2149.0
54.742,2197.0
54.743,2179.0
54.744,2161.0
54.745,2106.0
54.746,2067.0
54.747,2065.0
54.748,2086.0
54.749,2137.0
54.75,2200.0
54.751,2185.0
54.752,2145.0
54.753,2091.0
54.754,2056.0
54.755,2064.0
54.756,2096.0
54.757,2160.0
54.758,2202.0
54.759,2186.0
54.76,2139.0
54.761,2084.0
54.762,2066.0
54.763,2068.0
54.764,2123.0
54.765,2159.0
54.766,2184.0
54.767,2173.0
54.768,2117.0
54.769,2068.0
54.77,2069.0
54.771,2076.0
54.772,2112.0
54.773,2169.0
54.774,2187.0
54.775,2165.0
54.776,2101.0
54.777,2058.0
54.778,2066.0
54.779,2079.0
54.78,2139.0
54.781,2164.0
54.782,2172.0
54.783,2152.0
54.784,2089.0
54.785,2050.0
54.786,2063.0
54.787,2089.0
54.788,2152.0
54.789,2156.0
54.79,2164.0
54.791,2132.0
54.792,2071.0
54.793,2043.0
54.794,2049.0
54.795,2086.0
54.796,2130.0
54.797,2142.0
54.798,2150.0
54.799,2115.0
54.8,2041.0
54.801,2021.0
54.802,2043.0
54.803,2088.0
54.804,2138.0
54.805,2126.0
54.806,2133.0
54.807,2090.0
54.808,2035.0
54.809,2031.0
54.81,2039.0
54.811,2100.0
54.812,2149.0
54.813,2124.0
54.814,2125.0
54.815,2076.0
54.816,2021.0
54.817,2026.0
54.818,2053.0
54.819,2099.0
54.82,2137.0
54.821,2114.0
54.822,2109.0
54.823,2044.0
54.824,2014.0
54.825,2023.0
54.826,2049.0
54.827,2109.0
54.828,2132.0
54.829,2104.0
54.83,2092.0
54.831,2033.0
54.832,2007.0
54.833,2015.0
54.834,2055.0
54.835,2121.0
54.836,2116.0
54.837,2094.0
54.838,2080.0
54.839,2025.0
54.84,2004.0
54.841,2009.0
54.842,2061.0
54.843,2121.0
54.844,2126.0
54.845,2093.0
54.846,2063.0
54.847,2007.0
54.848,2005.0
54.849,2023.0
54.85,2080.0
54.851,2128.0
54.852,2120.0
54.853,2085.0
54.854,2052.0
54.855,2011.0
54.856,2009.0
54.857,2031.0
54.858,2091.0
54.859,2137.0
54.86,2114.0
54.861,2075.0
54.862,2036.0
54.863,1997.0
54.864,2011.0
54.865,2049.0
54.866,2106.0
54.867,2127.0
54.868,2108.0
54.869,2058.0
54.87,2024.0
54.871,2000.0
54.872,2011.0
54.873,2057.0
54.874,2111.0
54.875,2126.0
54.876,2103.0
54.877,2039.0
54.878,2007.0
54.879,1992.0
54.88,2005.0
54.881,2056.0
54.882,2123.0
54.883,2126.0
54.884,2101.0
54.885,2028.0
54.886,2002.0
54.887,1995.0
54.888,2008.0
54.889,2081.0
54.89,2120.0
54.891,2115.0
54.892,2077.0
54.893,2012.0
54.894,1980.0
54.895,1990.0
54.896,2023.0
54.897,2070.0
54.898,2109.0
54.899,2098.0
54.9,2061.0
54.901,1984.0
54.902,1971.0
54.903,1996.0
54.904,2031.0
54.905,2089.0
54.906,2120.0
54.907,2105.0
54.908,2078.0
54.909,2005.0
54.91,1995.0
54.911,2024.0
54.912,2065.0
54.913,2135.0
54.914,2151.0
54.915,2123.0
54.916,2079.0
54.917,2007.0
54.918,2001.0
54.919,2026.0
54.92,2072.0
54.921,2129.0
54.922,2145.0
54.923,2117.0
54.924,2074.0
54.925,1994.0
54.926,2008.0
54.927,2037.0
54.928,2093.0
54.929,2148.0
54.93,2143.0
54.931,2107.0
54.932,2056.0
54.933,1994.0
54.934,2017.0
54.935,2048.0
54.936,2109.0
54.937,2145.0
54.938,2137.0
54.939,2106.0
54.94,2035.0
54.941,1976.0
54.942,2002.0
54.943,2017.0
54.944,2027.0
54.945,1983.0
54.946,1902.0
54.947,1807.0
54.948,1746.0
54.949,1775.0
54.95,1952.0
54.951,2163.0
54.952,2376.0
54.953,2480.0
54.954,2546.0
54.955,2550.0
54.956,2525.0
54.957,2497.0
54.958,2545.0
54.959,2559.0
54.96,2542.0
54.961,2463.0
54.962,2399.0
54.963,2315.0
54.964,2217.0
54.965,2149.0
54.966,2127.0
54.967,2151.0
54.968,2157.0
54.969,2095.0
54.97,2022.0
54.971,1923.0
54.972,1854.0
54.973,1820.0
54.974,1834.0
54.975,1906.0
54.976,1959.0
54.977,1950.0
54.978,1926.0
54.979,1864.0
54.98,1812.0
54.981,1818.0
54.982,1870.0
54.983,1945.0
54.984,1980.0
54.985,1964.0
54.986,1937.0
54.987,1880.0
54.988,1846.0
54.989,1841.0
54.99,1887.0
54.991,1966.0
54.992,2000.0
54.993,1983.0
54.994,1951.0
54.995,1888.0
54.996,1867.0
54.997,1866.0
54.998,1929.0
54.999,1994.0
55.0,2010.0
55.001,2000.0
55.002,1957.0
55.003,1897.0
55.004,1883.0
55.005,1885.0
55.006,1960.0
55.007,2026.0
55.008,2021.0
55.009,2001.0
55.01,1955.0
55.011,1893.0
55.012,1893.0
55.013,1914.0
55.014,1977.0
55.015,2026.0
55.016,2026.0
55.017,1989.0
55.018,1930.0
55.019,1881.0
55.02,1885.0
55.021,1913.0
55.022,1973.0
55.023,2035.0
55.024,2015.0
55.025,1983.0
55.026,1926.0
55.027,1887.0
55.028,1897.0
55.029,1919.0
55.03,1998.0
55.031,2026.0
55.032,2014.0
55.033,1966.0
55.034,1925.0
55.035,1939.0
55.036,1919.0
55.037,1960.0
55.038,2025.0
55.039,2055.0
55.04,2023.0
55.041,2005.0
55.042,1971.0
55.043,1967.0
55.044,1992.0
55.045,2042.0
55.046,2104.0
55.047,2136.0
55.048,2082.0
55.049,2084.0
55.05,2072.0
55.051,2053.0
55.052,2054.0
55.053,2122.0
55.054,2180.0
55.055,2216.0
55.056,2151.0
55.057,2148.0
55.058,2105.0
55.059,2097.0
55.06,2145.0
55.061,2212.0
55.062,2233.0
55.063,2228.0
55.064,2205.0
55.065,2138.0
55.066,2110.0
55.067,2125.0
55.068,2157.0
55.069,2204.0
55.07,2227.0
55.071,2229.0
55.072,2204.0
55.073,2137.0
55.074,2115.0
55.075,2125.0
55.076,2160.0
55.077,2207.0
55.078,2216.0
55.079,2213.0
55.08,2166.0
55.081,2102.0
55.082,2096.0
55.083,2103.0
55.084,2149.0
55.085,2183.0
55.086,2179.0
55.087,2169.0
55.088,2121.0
55.089,2074.0
55.09,2072.0
55.091,2093.0
55.092,2148.0
55.093,2175.0
55.094,2144.0
55.095,2144.0
55.096,2083.0
55.097,2043.0
55.098,2047.0
55.099,2062.0
55.1,2112.0
55.101,2143.0
55.102,2120.0
55.103,2106.0
55.104,2051.0
55.105,2013.0
55.106,2029.0
55.107,2060.0
55.108,2109.0
55.109,2124.0
55.11,2099.0
55.111,2088.0
55.112,2027.0
55.113,2008.0
55.114,2025.0
55.115,2061.0
55.116,2110.0
55.117,2115.0
55.118,2081.0
55.119,2057.0
55.12,2013.0
55.121,2001.0
55.122,2013.0
55.123,2065.0
55.124,2110.0
55.125,2105.0
55.126,2071.0
55.127,2043.0
55.128,2000.0
55.129,2004.0
55.13,2021.0
55.131,2064.0
55.132,2110.0
55.133,2090.0
55.134,2046.0
55.135,2017.0
55.136,1973.0
55.137,1990.0
55.138,2014.0
55.139,2082.0
55.14,2107.0
55.141,2083.0
55.142,2039.0
55.143,2003.0
55.144,1972.0
55.145,1986.0
55.146,2025.0
55.147,2091.0
55.148,2096.0
55.149,2078.0
55.15,2018.0
55.151,1985.0
55.152,1966.0
55.153,1985.0
55.154,2031.0
55.155,2081.0
55.156,2090.0
55.157,2063.0
55.158,1994.0
55.159,1962.0
55.16,1959.0
55.161,1977.0
55.162,2034.0
55.163,2092.0
55.164,2089.0
55.165,2046.0
55.166,1986.0
55.167,1954.0
55.168,1962.0
55.169,1983.0
55.17,2041.0
55.171,2084.0
55.172,2067.0
55.173,2045.0
55.174,1967.0
55.175,1932.0
55.176,1955.0
55.177,1991.0
55.178,2058.0
55.179,2096.0
55.18,2069.0
55.181,2038.0
55.182,1951.0
55.183,1932.0
55.184,1950.0
55.185,1984.0
55.186,2052.0
55.187,2069.0
55.188,2055.0
55.189,2007.0
55.19,1930.0
55.191,1921.0
55.192,1940.0
55.193,1986.0
55.194,2045.0
55.195,2062.0
55.196,2042.0
55.197,1993.0
55.198,1927.0
55.199,1930.0
55.2,1954.0
55.201,2006.0
55.202,2057.0
55.203,2065.0
55.204,2039.0
55.205,1968.0
55.206,1902.0
55.207,1924.0
55.208,1947.0
55.209,2006.0
55.21,2056.0
55.211,2049.0
55.212,2025.0
55.213,1958.0
55.214,1894.0
55.215,1923.0
55.216,1961.0
55.217,2009.0
55.218,2049.0
55.219,2036.0
55.22,2018.0
55.221,1945.0
55.222,1890.0
55.223,1919.0
55.224,1962.0
55.225,2016.0
55.226,2054.0
55.227,2032.0
55.228,1986.0
55.229,1927.0
55.23,1892.0
55.231,1905.0
55.232,1953.0
55.233,2014.0
55.234,2026.0
55.235,2023.0
55.236,1975.0
55.237,1911.0
55.238,1877.0
55.239,1907.0
55.24,1967.0
55.241,2027.0
55.242,2033.0
55.243,2019.0
55.244,1964.0
55.245,1902.0
55.246,1893.0
55.247,1927.0
55.248,1997.0
55.249,2048.0
55.25,2046.0
55.251,2020.0
55.252,1955.0
55.253,1912.0
55.254,1907.0
55.255,1932.0
55.256,2012.0
55.257,2056.0
55.258,2049.0
55.259,2014.0
55.26,1952.0
55.261,1904.0
55.262,1905.0
55.263,1950.0
55.264,2022.0
55.265,2054.0
55.266,2044.0
55.267,2007.0
55.268,1944.0
55.269,1913.0
55.27,1908.0
55.271,1963.0
55.272,2031.0
55.273,2044.0
55.274,2035.0
55.275,1991.0
55.276,1929.0
55.277,1910.0
55.278,1916.0
55.279,1960.0
55.28,2030.0
55.281,2040.0
55.282,2013.0
55.283,1946.0
55.284,1851.0
55.285,1774.0
55.286,1707.0
55.287,1700.0
55.288,1721.0
55.289,1758.0
55.29,1876.0
55.291,1976.0
55.292,2096.0
55.293,2219.0
55.294,2320.0
55.295,2453.0
55.296,2553.0
55.297,2556.0
55.298,2540.0
55.299,2470.0
55.3,2374.0
55.301,2304.0
55.302,2254.0
55.303,2275.0
55.304,2279.0
55.305,2221.0
55.306,2142.0
55.307,2032.0
55.308,1951.0
55.309,1918.0
55.31,1909.0
55.311,1913.0
55.312,1918.0
55.313,1881.0
55.314,1818.0
55.315,1760.0
55.316,1737.0
55.317,1751.0
55.318,1787.0
55.319,1851.0
55.32,1874.0
55.321,1854.0
55.322,1799.0
55.323,1753.0
55.324,1748.0
55.325,1768.0
55.326,1815.0
55.327,1874.0
55.328,1886.0
55.329,1876.0
55.33,1809.0
55.331,1771.0
55.332,1774.0
55.333,1807.0
55.334,1855.0
55.335,1900.0
55.336,1903.0
55.337,1880.0
55.338,1810.0
55.339,1781.0
55.34,1786.0
55.341,1823.0
55.342,1883.0
55.343,1906.0
55.344,1913.0
55.345,1886.0
55.346,1821.0
55.347,1803.0
55.348,1814.0
55.349,1854.0
55.35,1901.0
55.351,1924.0
55.352,1929.0
55.353,1881.0
55.354,1823.0
55.355,1807.0
55.356,1825.0
55.357,1874.0
55.358,1917.0
55.359,1925.0
55.36,1927.0
55.361,1877.0
55.362,1824.0
55.363,1816.0
55.364,1833.0
55.365,1892.0
55.366,1919.0
55.367,1915.0
55.368,1921.0
55.369,1876.0
55.37,1834.0
55.371,1846.0
55.372,1873.0
55.373,1932.0
55.374,1962.0
55.375,1947.0
55.376,1945.0
55.377,1891.0
55.378,1864.0
55.379,1871.0
55.38,1921.0
55.381,1988.0
55.382,2030.0
55.383,2016.0
55.384,2015.0
55.385,1964.0
55.386,1944.0
55.387,1969.0
55.388,2015.0
55.389,2079.0
55.39,2103.0
55.391,2076.0
55.392,2060.0
55.393,2014.0
55.394,2015.0
55.395,2032.0
55.396,2086.0
55.397,2148.0
55.398,2160.0
55.399,2136.0
55.4,2106.0
55.401,2057.0
55.402,2055.0
55.403,2079.0
55.404,2130.0
55.405,2172.0
55.406,2174.0
55.407,2140.0
55.408,2106.0
55.409,2079.0
55.41,2072.0
55.411,2096.0
55.412,2158.0
55.413,2194.0
55.414,2171.0
55.415,2134.0
55.416,2092.0
55.417,2059.0
55.418,2069.0
55.419,2099.0
55.42,2155.0
55.421,2190.0
55.422,2170.0
55.423,2112.0
55.424,2069.0
55.425,2054.0
55.426,2065.0
55.427,2103.0
55.428,2159.0
55.429,2175.0
55.43,2143.0
55.431,2090.0
55.432,2050.0
55.433,2034.0
55.434,2051.0
55.435,2092.0
55.436,2144.0
55.437,2152.0
55.438,2123.0
55.439,2049.0
55.44,2032.0
55.441,2033.0
55.442,2049.0
55.443,2098.0
55.444,2145.0
55.445,2135.0
55.446,2101.0
55.447,2015.0
55.448,2005.0
55.449,2016.0
55.45,2043.0
55.451,2100.0
55.452,2137.0
55.453,2117.0
55.454,2087.0
55.455,2009.0
55.456,1993.0
55.457,2009.0
55.458,2036.0
55.459,2097.0
55.46,2124.0
55.461,2099.0
55.462,2062.0
55.463,1984.0
55.464,1973.0
55.465,1997.0
55.466,2029.0
55.467,2096.0
55.468,2108.0
55.469,2087.0
55.47,2043.0
55.471,1969.0
55.472,1967.0
55.473,1990.0
55.474,2032.0
55.475,2088.0
55.476,2094.0
55.477,2071.0
55.478,2027.0
55.479,1964.0
55.48,1976.0
55.481,1992.0
55.482,2054.0
55.483,2104.0
55.484,2100.0
55.485,2066.0
55.486,2013.0
55.487,1950.0
55.488,1973.0
55.489,2006.0
55.49,2058.0
55.491,2101.0
55.492,2096.0
55.493,2060.0
55.494,2000.0
55.495,1942.0
55.496,1974.0
55.497,2021.0
55.498,2067.0
55.499,2114.0
55.5,2103.0
55.501,2070.0
55.502,1998.0
55.503,1955.0
55.504,1985.0
55.505,2030.0
55.506,2088.0
55.507,2091.0
55.508,2088.0
55.509,2034.0
55.51,1974.0
55.511,1949.0
55.512,1972.0
55.513,2026.0
55.514,2088.0
55.515,2106.0
55.516,2084.0
55.517,2041.0
55.518,1972.0
55.519,1949.0
55.52,1977.0
55.521,2044.0
55.522,2092.0
55.523,2093.0
55.524,2071.0
55.525,2004.0
55.526,1958.0
55.527,1942.0
55.528,1989.0
55.529,2050.0
55.53,2098.0
55.531,2091.0
55.532,2065.0
55.533,1998.0
55.534,1957.0
55.535,1954.0
55.536,1995.0
55.537,2065.0
55.538,2110.0
55.539,2098.0
55.54,2066.0
55.541,1991.0
55.542,1966.0
55.543,1941.0
55.544,2010.0
55.545,2055.0
55.546,2099.0
55.547,2079.0
55.548,2049.0
55.549,1992.0
55.55,1962.0
55.551,1967.0
55.552,2024.0
55.553,2101.0
55.554,2091.0
55.555,2049.0
55.556,2008.0
55.557,2010.0
55.558,1971.0
55.559,1947.0
55.56,2022.0
55.561,2067.0
55.562,2075.0
55.563,2043.0
55.564,1994.0
55.565,1941.0
55.566,1949.0
55.567,1941.0
55.568,2015.0
55.569,2079.0
55.57,2065.0
55.571,2040.0
55.572,1969.0
55.573,1933.0
55.574,1947.0
55.575,1962.0
55.576,2042.0
55.577,2091.0
55.578,2075.0
55.579,2042.0
55.58,1972.0
55.581,1948.0
55.582,1951.0
55.583,1972.0
55.584,2054.0
55.585,2082.0
55.586,2068.0
55.587,2025.0
55.588,1974.0
55.589,1939.0
55.59,1944.0
55.591,1984.0
55.592,2051.0
55.593,2083.0
55.594,2057.0
55.595,2011.0
55.596,1957.0
55.597,1943.0
55.598,1959.0
55.599,1987.0
55.6,2056.0
55.601,2066.0
55.602,2041.0
55.603,1980.0
55.604,1934.0
55.605,1926.0
55.606,1955.0
55.607,1989.0
55.608,2044.0
55.609,2039.0
55.61,2012.0
55.611,1950.0
55.612,1903.0
55.613,1899.0
55.614,1897.0
55.615,1882.0
55.616,1849.0
55.617,1764.0
55.618,1690.0
55.619,1653.0
55.62,1746.0
55.621,1917.0
55.622,2119.0
55.623,2293.0
55.624,2413.0
55.625,2479.0
55.626,2485.0
55.627,2435.0
55.628,2445.0
55.629,2447.0
55.63,2433.0
55.631,2414.0
55.632,2356.0
55.633,2308.0
55.634,2208.0
55.635,2113.0
55.636,2052.0
55.637,2024.0
55.638,2022.0
55.639,2022.0
55.64,1952.0
55.641,1897.0
55.642,1820.0
55.643,1750.0
55.644,1729.0
55.645,1742.0
55.646,1801.0
55.647,1832.0
55.648,1834.0
55.649,1828.0
55.65,1774.0
55.651,1721.0
55.652,1738.0
55.653,1763.0
55.654,1825.0
55.655,1858.0
55.656,1840.0
55.657,1835.0
55.658,1776.0
55.659,1746.0
55.66,1771.0
55.661,1805.0
55.662,1868.0
55.663,1879.0
55.664,1871.0
55.665,1858.0
55.666,1805.0
55.667,1777.0
55.668,1795.0
55.669,1843.0
55.67,1901.0
55.671,1903.0
55.672,1884.0
55.673,1854.0
55.674,1816.0
55.675,1807.0
55.676,1826.0
55.677,1879.0
55.678,1924.0
55.679,1916.0
55.68,1893.0
55.681,1854.0
55.682,1812.0
55.683,1805.0
55.684,1830.0
55.685,1887.0
55.686,1929.0
55.687,1910.0
55.688,1880.0
55.689,1840.0
55.69,1809.0
55.691,1809.0
55.692,1841.0
55.693,1896.0
55.694,1930.0
55.695,1916.0
55.696,1870.0
55.697,1833.0
55.698,1803.0
55.699,1820.0
55.7,1862.0
55.701,1919.0
55.702,1949.0
55.703,1904.0
55.704,1872.0
55.705,1845.0
55.706,1837.0
55.707,1844.0
55.708,1893.0
55.709,1962.0
55.71,1976.0
55.711,1970.0
55.712,1897.0
55.713,1892.0
55.714,1899.0
55.715,1921.0
55.716,1980.0
55.717,2047.0
55.718,2052.0
55.719,2048.0
55.72,1983.0
55.721,1962.0
55.722,1976.0
55.723,2018.0
55.724,2079.0
55.725,2133.0
55.726,2122.0
55.727,2102.0
55.728,2027.0
55.729,2015.0
55.73,2025.0
55.731,2073.0
55.732,2132.0
55.733,2165.0
55.734,2155.0
55.735,2124.0
55.736,2052.0
55.737,2048.0
55.738,2068.0
55.739,2108.0
55.74,2172.0
55.741,2189.0
55.742,2161.0
55.743,2108.0
55.744,2031.0
55.745,2035.0
55.746,2045.0
55.747,2102.0
55.748,2149.0
55.749,2167.0
55.75,2149.0
55.751,2094.0
55.752,2014.0
55.753,2025.0
55.754,2048.0
55.755,2095.0
55.756,2154.0
55.757,2148.0
55.758,2125.0
55.759,2059.0
55.76,1992.0
55.761,2010.0
55.762,2036.0
55.763,2094.0
55.764,2141.0
55.765,2131.0
55.766,2101.0
55.767,2028.0
55.768,1955.0
55.769,1988.0
55.77,2031.0
55.771,2085.0
55.772,2117.0
55.773,2105.0
55.774,2066.0
55.775,1993.0
55.776,1945.0
55.777,1978.0
55.778,2023.0
55.779,2078.0
55.78,2106.0
55.781,2087.0
55.782,2044.0
55.783,1976.0
55.784,1939.0
55.785,1975.0
55.786,2018.0
55.787,2071.0
55.788,2091.0
55.789,2077.0
55.79,2034.0
55.791,1964.0
55.792,1944.0
55.793,1980.0
55.794,2029.0
55.795,2084.0
55.796,2086.0
55.797,2069.0
55.798,2017.0
55.799,1959.0
55.8,1931.0
55.801,1973.0
55.802,2050.0
55.803,2087.0
55.804,2081.0
55.805,2060.0
55.806,2000.0
55.807,1954.0
55.808,1935.0
55.809,1986.0
55.81,2058.0
55.811,2100.0
55.812,2090.0
55.813,2055.0
55.814,1978.0
55.815,1945.0
55.816,1942.0
55.817,1998.0
55.818,2074.0
55.819,2099.0
55.82,2087.0
55.821,2041.0
55.822,1973.0
55.823,1948.0
55.824,1943.0
55.825,2006.0
55.826,2080.0
55.827,2091.0
55.828,2070.0
55.829,2026.0
55.83,1968.0
55.831,1947.0
55.832,1943.0
55.833,2015.0
55.834,2091.0
55.835,2085.0
55.836,2079.0
55.837,2020.0
55.838,1973.0
55.839,1957.0
55.84,1958.0
55.841,2044.0
55.842,2097.0
55.843,2089.0
55.844,2071.0
55.845,2015.0
55.846,1963.0
55.847,1977.0
55.848,1974.0
55.849,2057.0
55.85,2107.0
55.851,2091.0
55.852,2060.0
55.853,1999.0
55.854,1947.0
55.855,1972.0
55.856,1979.0
55.857,2062.0
55.858,2099.0
55.859,2087.0
55.86,2048.0
55.861,1994.0
55.862,1968.0
55.863,1987.0
55.864,2002.0
55.865,2070.0
55.866,2103.0
55.867,2087.0
55.868,2038.0
55.869,1985.0
55.87,1972.0
55.871,1979.0
55.872,2015.0
55.873,2088.0
55.874,2105.0
55.875,2082.0
55.876,2037.0
55.877,1987.0
55.878,1971.0
55.879,1990.0
55.88,2035.0
55.881,2100.0
55.882,2108.0
55.883,2084.0
55.884,2033.0
55.885,1977.0
55.886,1978.0
55.887,1997.0
55.888,2050.0
55.889,2094.0
55.89,2098.0
55.891,2082.0
55.892,2018.0
55.893,1973.0
55.894,1980.0
55.895,2009.0
55.896,2060.0
55.897,2103.0
55.898,2107.0
55.899,2069.0
55.9,2010.0
55.901,1983.0
55.902,2000.0
55.903,2057.0
55.904,2095.0
55.905,2120.0
55.906,2119.0
55.907,2079.0
55.908,2016.0
55.909,2011.0
55.91,2023.0
55.911,2070.0
55.912,2115.0
55.913,2123.0
55.914,2121.0
55.915,2065.0
55.916,2008.0
55.917,2010.0
55.918,2024.0
55.919,2074.0
55.92,2114.0
55.921,2125.0
55.922,2106.0
55.923,2048.0
55.924,2008.0
55.925,2008.0
55.926,2035.0
55.927,2084.0
55.928,2118.0
55.929,2116.0
55.93,2104.0
55.931,2035.0
55.932,1995.0
55.933,2005.0
55.934,2026.0
55.935,2080.0
55.936,2109.0
55.937,2097.0
55.938,2074.0
55.939,1994.0
55.94,1921.0
55.941,1855.0
55.942,1809.0
55.943,1810.0
55.944,1814.0
55.945,1914.0
55.946,2036.0
55.947,2136.0
55.948,2276.0
55.949,2371.0
55.95,2508.0
55.951,2611.0
55.952,2652.0
55.953,2641.0
55.954,2611.0
55.955,2531.0
55.956,2445.0
55.957,2390.0
55.958,2384.0
55.959,2382.0
55.96,2323.0
55.961,2251.0
55.962,2166.0
55.963,2058.0
55.964,2001.0
55.965,1977.0
55.966,1973.0
55.967,1981.0
55.968,1950.0
55.969,1885.0
55.97,1849.0
55.971,1810.0
55.972,1818.0
55.973,1857.0
55.974,1913.0
55.975,1944.0
55.976,1923.0
55.977,1887.0
55.978,1851.0
55.979,1823.0
55.98,1837.0
55.981,1875.0
55.982,1934.0
55.983,1951.0
55.984,1933.0
55.985,1888.0
55.986,1856.0
55.987,1846.0
55.988,1864.0
55.989,1921.0
55.99,1977.0
55.991,1973.0
55.992,1954.0
55.993,1889.0
55.994,1862.0
55.995,1866.0
55.996,1880.0
55.997,1943.0
55.998,1992.0
55.999,1987.0
56.0,1952.0
56.001,1886.0
56.002,1873.0
56.003,1876.0
56.004,1896.0
56.005,1965.0
56.006,1999.0
56.007,1980.0
56.008,1940.0
56.009,1864.0
56.01,1863.0
56.011,1877.0
56.012,1915.0
56.013,1977.0
56.014,1998.0
56.015,1975.0
56.016,1930.0
56.017,1861.0
56.018,1855.0
56.019,1865.0
56.02,1903.0
56.021,1962.0
56.022,1983.0
56.023,1960.0
56.024,1909.0
56.025,1855.0
56.026,1859.0
56.027,1881.0
56.028,1887.0
56.029,1982.0
56.03,1992.0
56.031,1996.0
56.032,1917.0
56.033,1855.0
56.034,1887.0
56.035,1917.0
56.036,1974.0
56.037,2036.0
56.038,2037.0
56.039,2024.0
56.04,1965.0
56.041,1921.0
56.042,1958.0
56.043,1985.0
56.044,2057.0
56.045,2111.0
56.046,2115.0
56.047,2081.0
56.048,2043.0
56.049,1997.0
56.05,2021.0
56.051,2078.0
56.052,2179.0
56.053,2167.0
56.054,2163.0
56.055,2105.0
56.056,2080.0
56.057,2001.0
56.058,2065.0
56.059,2138.0
56.06,2176.0
56.061,2212.0
56.062,2184.0
56.063,2136.0
56.064,2080.0
56.065,2033.0
56.066,2082.0
56.067,2133.0
56.068,2188.0
56.069,2193.0
56.07,2176.0
56.071,2119.0
56.072,2063.0
56.073,2048.0
56.074,2080.0
56.075,2142.0
56.076,2183.0
56.077,2179.0
56.078,2161.0
56.079,2097.0
56.08,2043.0
56.081,2030.0
56.082,2068.0
56.083,2124.0
56.084,2169.0
56.085,2155.0
56.086,2132.0
56.087,2064.0
56.088,2025.0
56.089,2021.0
56.09,2058.0
56.091,2117.0
56.092,2147.0
56.093,2134.0
56.094,2106.0
56.095,2036.0
56.096,2008.0
56.097,1995.0
56.098,2050.0
56.099,2123.0
56.1,2141.0
56.101,2124.0
56.102,2088.0
56.103,2021.0
56.104,1990.0
56.105,1974.0
56.106,2057.0
56.107,2125.0
56.108,2132.0
56.109,2113.0
56.11,2057.0
56.111,1995.0
56.112,1984.0
56.113,1984.0
56.114,2063.0
56.115,2120.0
56.116,2121.0
56.117,2103.0
56.118,2046.0
56.119,1997.0
56.12,1993.0
56.121,1995.0
56.122,2075.0
56.123,2123.0
56.124,2103.0
56.125,2083.0
56.126,2032.0
56.127,1989.0
56.128,2001.0
56.129,1996.0
56.13,2082.0
56.131,2125.0
56.132,2113.0
56.133,2083.0
56.134,2018.0
56.135,1985.0
56.136,1989.0
56.137,1990.0
56.138,2091.0
56.139,2124.0
56.14,2114.0
56.141,2084.0
56.142,2025.0
56.143,1989.0
56.144,1995.0
56.145,2025.0
56.146,2100.0
56.147,2118.0
56.148,2096.0
56.149,2051.0
56.15,2000.0
56.151,1992.0
56.152,2007.0
56.153,2038.0
56.154,2110.0
56.155,2111.0
56.156,2092.0
56.157,2038.0
56.158,1988.0
56.159,1984.0
56.16,2008.0
56.161,2045.0
56.162,2103.0
56.163,2108.0
56.164,2085.0
56.165,2026.0
56.166,1981.0
56.167,1993.0
56.168,2030.0
56.169,2066.0
56.17,2115.0
56.171,2108.0
56.172,2072.0
56.173,2007.0
56.174,1983.0
56.175,1992.0
56.176,2027.0
56.177,2054.0
56.178,2098.0
56.179,2105.0
56.18,2057.0
56.181,1996.0
56.182,1977.0
56.183,1987.0
56.184,2039.0
56.185,2069.0
56.186,2095.0
56.187,2092.0
56.188,2048.0
56.189,1994.0
56.19,1982.0
56.191,1996.0
56.192,2046.0
56.193,2085.0
56.194,2096.0
56.195,2090.0
56.196,2037.0
56.197,1977.0
56.198,1978.0
56.199,2004.0
56.2,2065.0
56.201,2088.0
56.202,2092.0
56.203,2076.0
56.204,2013.0
56.205,1978.0
56.206,1996.0
56.207,2013.0
56.208,2075.0
56.209,2088.0
56.21,2074.0
56.211,2074.0
56.212,2012.0
56.213,1979.0
56.214,2001.0
56.215,2029.0
56.216,2079.0
56.217,2088.0
56.218,2080.0
56.219,2048.0
56.22,1997.0
56.221,1971.0
56.222,1993.0
56.223,2041.0
56.224,2096.0
56.225,2098.0
56.226,2078.0
56.227,2043.0
56.228,1986.0
56.229,1974.0
56.23,1979.0
56.231,2023.0
56.232,2076.0
56.233,2081.0
56.234,2053.0
56.235,2025.0
56.236,1978.0
56.237,1976.0
56.238,1990.0
56.239,2047.0
56.24,2087.0
56.241,2072.0
56.242,2048.0
56.243,2006.0
56.244,1962.0
56.245,1975.0
56.246,2007.0
56.247,2070.0
56.248,2108.0
56.249,2089.0
56.25,2056.0
56.251,2010.0
56.252,1983.0
56.253,2008.0
56.254,2036.0
56.255,2091.0
56.256,2107.0
56.257,2075.0
56.258,2035.0
56.259,1999.0
56.26,1973.0
56.261,1991.0
56.262,2034.0
56.263,2094.0
56.264,2097.0
56.265,2072.0
56.266,2022.0
56.267,1984.0
56.268,1986.0
56.269,2007.0
56.27,2054.0
56.271,2100.0
56.272,2092.0
56.273,2071.0
56.274,2005.0
56.275,1974.0
56.276,1976.0
56.277,1983.0
56.278,2045.0
56.279,2083.0
56.28,2069.0
56.281,2037.0
56.282,1966.0
56.283,1930.0
56.284,1896.0
56.285,1857.0
56.286,1835.0
56.287,1809.0
56.288,1777.0
56.289,1835.0
56.29,1927.0
56.291,2074.0
56.292,2263.0
56.293,2372.0
56.294,2512.0
56.295,2587.0
56.296,2602.0
56.297,2577.0
56.298,2523.0
56.299,2472.0
56.3,2409.0
56.301,2363.0
56.302,2365.0
56.303,2329.0
56.304,2266.0
56.305,2170.0
56.306,2054.0
56.307,2011.0
56.308,1976.0
56.309,1971.0
56.31,1968.0
56.311,1924.0
56.312,1898.0
56.313,1816.0
56.314,1738.0
56.315,1768.0
56.316,1799.0
56.317,1853.0
56.318,1893.0
56.319,1895.0
56.32,1874.0
56.321,1807.0
56.322,1746.0
56.323,1781.0
56.324,1814.0
56.325,1876.0
56.326,1917.0
56.327,1901.0
56.328,1881.0
56.329,1815.0
56.33,1771.0
56.331,1803.0
56.332,1845.0
56.333,1907.0
56.334,1943.0
56.335,1933.0
56.336,1894.0
56.337,1829.0
56.338,1789.0
56.339,1832.0
56.34,1881.0
56.341,1943.0
56.342,1959.0
56.343,1948.0
56.344,1897.0
56.345,1831.0
56.346,1815.0
56.347,1848.0
56.348,1909.0
56.349,1965.0
56.35,1951.0
56.351,1938.0
56.352,1894.0
56.353,1828.0
56.354,1822.0
56.355,1862.0
56.356,1923.0
56.357,1967.0
56.358,1951.0
56.359,1925.0
56.36,1864.0
56.361,1813.0
56.362,1801.0
56.363,1859.0
56.364,1915.0
56.365,1954.0
56.366,1942.0
56.367,1920.0
56.368,1851.0
56.369,1815.0
56.37,1819.0
56.371,1866.0
56.372,1940.0
56.373,1963.0
56.374,1946.0
56.375,1912.0
56.376,1857.0
56.377,1835.0
56.378,1841.0
56.379,1916.0
56.38,1991.0
56.381,2010.0
56.382,1999.0
56.383,1962.0
56.384,1908.0
56.385,1902.0
56.386,1918.0
56.387,2005.0
56.388,2080.0
56.389,2094.0
56.39,2087.0
56.391,2040.0
56.392,1985.0
56.393,1985.0
56.394,2005.0
56.395,2092.0
56.396,2148.0
56.397,2133.0
56.398,2091.0
56.399,2035.0
56.4,1995.0
56.401,2005.0
56.402,2015.0
56.403,2095.0
56.404,2138.0
56.405,2113.0
56.406,2079.0
56.407,2016.0
56.408,1967.0
56.409,1978.0
56.41,1997.0
56.411,2072.0
56.412,2093.0
56.413,2059.0
56.414,2019.0
56.415,1959.0
56.416,1929.0
56.417,1942.0
56.418,1960.0
56.419,2029.0
56.42,2039.0
56.421,2005.0
56.422,1953.0
56.423,1888.0
56.424,1867.0
56.425,1896.0
56.426,1936.0
56.427,1980.0
56.428,1976.0
56.429,1941.0
56.43,1883.0
56.431,1814.0
56.432,1803.0
56.433,1816.0
56.434,1844.0
56.435,1896.0
56.436,1882.0
56.437,1833.0
56.438,1766.0
56.439,1712.0
56.44,1696.0
56.441,1701.0
56.442,1750.0
56.443,1786.0
56.444,1768.0
56.445,1711.0
56.446,1645.0
56.447,1589.0
56.448,1585.0
56.449,1613.0
56.45,1650.0
56.451,1669.0
56.452,1631.0
56.453,1570.0
56.454,1474.0
56.455,1431.0
56.456,1420.0
56.457,1453.0
56.458,1477.0
56.459,1485.0
56.46,1446.0
56.461,1375.0
56.462,1305.0
56.463,1285.0
56.464,1273.0
56.465,1311.0
56.466,1332.0
56.467,1330.0
56.468,1290.0
56.469,1219.0
56.47,1160.0
56.471,1143.0
56.472,1154.0
56.473,1209.0
56.474,1216.0
56.475,1191.0
56.476,1153.0
56.477,1079.0
56.478,1020.0
56.479,1013.0
56.48,1032.0
56.481,1091.0
56.482,1083.0
56.483,1072.0
56.484,1041.0
56.485,952.0
56.486,913.0
56.487,918.0
56.488,947.0
56.489,1003.0
56.49,1021.0
56.491,1012.0
56.492,980.0
56.493,918.0
56.494,902.0
56.495,932.0
56.496,984.0
56.497,1052.0
56.498,1048.0
56.499,1037.0
56.5,1013.0
56.501,933.0
56.502,916.0
56.503,945.0
56.504,997.0
56.505,1053.0
56.506,1028.0
56.507,1013.0
56.508,966.0
56.509,906.0
56.51,895.0
56.511,916.0
56.512,963.0
56.513,986.0
56.514,943.0
56.515,889.0
56.516,818.0
56.517,763.0
56.518,762.0
56.519,780.0
56.52,823.0
56.521,831.0
56.522,782.0
56.523,741.0
56.524,660.0
56.525,601.0
56.526,599.0
56.527,635.0
56.528,655.0
56.529,649.0
56.53,599.0
56.531,512.0
56.532,388.0
56.533,391.0
56.534,396.0
56.535,436.0
56.536,481.0
56.537,467.0
56.538,360.0
56.539,223.0
56.54,84.0
56.541,55.0
56.542,46.0
56.543,47.0
56.544,57.0
56.545,35.0
56.546,35.0
56.547,13.0
56.548,17.0
56.549,0.0
56.55,0.0
56.551,18.0
56.552,21.0
56.553,17.0
56.554,5.0
56.555,0.0
56.556,0.0
56.557,7.0
56.558,8.0
56.559,10.0
56.56,9.0
56.561,13.0
56.562,8.0
56.563,6.0
56.564,5.0
56.565,4.0
56.566,7.0
56.567,7.0
56.568,5.0
56.569,5.0
56.57,2.0
56.571,5.0
56.572,4.0
56.573,4.0
56.574,5.0
56.575,4.0
56.576,6.0
56.577,7.0
56.578,0.0
56.579,7.0
56.58,2.0
56.581,3.0
56.582,2.0
56.583,4.0
56.584,8.0
56.585,3.0
56.586,4.0
56.587,3.0
56.588,2.0
56.589,3.0
56.59,6.0
56.591,9.0
56.592,5.0
56.593,5.0
56.594,6.0
56.595,1.0
56.596,1.0
56.597,5.0
56.598,7.0
56.599,4.0
56.6,4.0
56.601,1.0
56.602,2.0
56.603,3.0
56.604,0.0
56.605,2.0
56.606,3.0
56.607,5.0
56.608,5.0
56.609,1.0
56.61,6.0
56.611,2.0
56.612,0.0
56.613,4.0
56.614,2.0
56.615,5.0
56.616,4.0
56.617,4.0
56.618,0.0
56.619,3.0
56.62,3.0
56.621,2.0
56.622,1.0
56.623,1.0
56.624,0.0
56.625,1.0
56.626,0.0
56.627,2.0
56.628,2.0
56.629,0.0
56.63,1.0
56.631,3.0
56.632,1.0
56.633,2.0
56.634,3.0
56.635,2.0
56.636,2.0
56.637,4.0
56.638,2.0
56.639,0.0
56.64,2.0
56.641,1.0
56.642,0.0
56.643,0.0
56.644,3.0
56.645,1.0
56.646,2.0
56.647,2.0
56.648,1.0
56.649,1.0
56.65,1.0
56.651,2.0
56.652,1.0
56.653,1.0
56.654,3.0
56.655,5.0
56.656,3.0
56.657,2.0
56.658,3.0
56.659,0.0
56.66,3.0
56.661,4.0
56.662,7.0
56.663,3.0
56.664,2.0
56.665,2.0
56.666,0.0
56.667,4.0
56.668,5.0
56.669,5.0
56.67,2.0
56.671,2.0
56.672,3.0
56.673,8.0
56.674,5.0
56.675,16.0
56.676,23.0
56.677,34.0
56.678,31.0
56.679,36.0
56.68,33.0
56.681,32.0
56.682,39.0
56.683,30.0
56.684,46.0
56.685,44.0
56.686,33.0
56.687,33.0
56.688,29.0
56.689,24.0
56.69,30.0
56.691,28.0
56.692,39.0
56.693,37.0
56.694,38.0
56.695,30.0
56.696,30.0
56.697,35.0
56.698,36.0
56.699,50.0
56.7,134.0
56.701,195.0
56.702,197.0
56.703,176.0
56.704,161.0
56.705,190.0
56.706,256.0
56.707,319.0
56.708,464.0
56.709,515.0
56.71,519.0
56.711,478.0
56.712,471.0
56.713,515.0
56.714,582.0
56.715,655.0
56.716,791.0
56.717,826.0
56.718,812.0
56.719,749.0
56.72,729.0
56.721,779.0
56.722,827.0
56.723,879.0
56.724,974.0
56.725,968.0
56.726,902.0
56.727,812.0
56.728,782.0
56.729,798.0
56.73,844.0
56.731,885.0
56.732,968.0
56.733,958.0
56.734,893.0
56.735,829.0
56.736,836.0
56.737,873.0
56.738,951.0
56.739,1004.0
56.74,1076.0
56.741,1073.0
56.742,996.0
56.743,937.0
56.744,943.0
56.745,978.0
56.746,1040.0
56.747,1090.0
56.748,1106.0
56.749,1071.0
56.75,987.0
56.751,896.0
56.752,888.0
56.753,923.0
56.754,1003.0
56.755,1029.0
56.756,1014.0
56.757,978.0
56.758,891.0
56.759,822.0
56.76,826.0
56.761,881.0
56.762,953.0
56.763,961.0
56.764,947.0
56.765,904.0
56.766,812.0
56.767,767.0
56.768,799.0
56.769,866.0
56.77,957.0
56.771,957.0
56.772,928.0
56.773,874.0
56.774,793.0
56.775,766.0
56.776,801.0
56.777,874.0
56.778,929.0
56.779,909.0
56.78,856.0
56.781,795.0
56.782,723.0
56.783,712.0
56.784,745.0
56.785,807.0
56.786,856.0
56.787,808.0
56.788,754.0
56.789,690.0
56.79,630.0
56.791,632.0
56.792,669.0
56.793,740.0
56.794,766.0
56.795,712.0
56.796,653.0
56.797,568.0
56.798,524.0
56.799,541.0
56.8,595.0
56.801,669.0
56.802,703.0
56.803,651.0
56.804,597.0
56.805,565.0
56.806,542.0
56.807,572.0
56.808,658.0
56.809,736.0
56.81,754.0
56.811,710.0
56.812,664.0
56.813,651.0
56.814,658.0
56.815,701.0
56.816,788.0
56.817,872.0
56.818,877.0
56.819,834.0
56.82,784.0
56.821,794.0
56.822,809.0
56.823,860.0
56.824,947.0
56.825,1020.0
56.826,1015.0
56.827,963.0
56.828,912.0
56.829,918.0
56.83,945.0
56.831,989.0
56.832,1075.0
56.833,1137.0
56.834,1126.0
56.835,1073.0
56.836,963.0
56.837,956.0
56.838,989.0
56.839,1035.0
56.84,1113.0
56.841,1173.0
56.842,1143.0
56.843,1050.0
56.844,932.0
56.845,933.0
56.846,956.0
56.847,1007.0
56.848,1111.0
56.849,1136.0
56.85,1087.0
56.851,998.0
56.852,882.0
56.853,863.0
56.854,892.0
56.855,956.0
56.856,1021.0
56.857,1013.0
56.858,1047.0
56.859,830.0
56.86,697.0
56.861,666.0
56.862,661.0
56.863,2998.0
56.864,4080.0
56.865,4078.0
56.866,4076.0
56.867,4080.0
56.868,4081.0
56.869,4082.0
56.87,4081.0
56.871,4074.0
56.872,4075.0
56.873,4082.0
56.874,4076.0
56.875,4076.0
56.876,3355.0
56.877,10.0
56.878,35.0
56.879,4081.0
56.88,4079.0
56.881,4078.0
56.882,4071.0
56.883,2.0
56.884,3.0
56.885,2.0
56.886,0.0
56.887,0.0
56.888,2.0
56.889,4.0
56.89,2.0
56.891,0.0
56.892,1.0
56.893,0.0
56.894,1.0
56.895,2.0
56.896,0.0
56.897,0.0
56.898,4.0
56.899,0.0
56.9,3.0
56.901,2.0
56.902,1.0
56.903,2.0
56.904,3.0
56.905,3.0
56.906,3.0
56.907,2.0
56.908,5.0
56.909,3.0
56.91,5.0
56.911,12.0
56.912,12.0
56.913,9.0
56.914,9.0
56.915,20.0
56.916,14.0
56.917,25.0
56.918,47.0
56.919,66.0
56.92,77.0
56.921,68.0
56.922,46.0
56.923,48.0
56.924,36.0
56.925,156.0
56.926,4082.0
56.927,4080.0
56.928,4083.0
56.929,4078.0
56.93,4078.0
56.931,4082.0
56.932,4076.0
56.933,4078.0
56.934,4075.0
56.935,4077.0
56.936,4081.0
56.937,4081.0
56.938,4081.0
56.939,4077.0
56.94,4076.0
56.941,4079.0
56.942,4079.0
56.943,4078.0
56.944,4075.0
56.945,4083.0
56.946,4079.0
56.947,4081.0
56.948,4078.0
56.949,4082.0
56.95,4080.0
56.951,4082.0
56.952,4080.0
56.953,4082.0
56.954,2256.0
56.955,0.0
56.956,608.0
56.957,4077.0
56.958,4080.0
56.959,4080.0
56.96,4079.0
56.961,4080.0
56.962,4.0
56.963,1.0
56.964,1.0
56.965,4076.0
56.966,4075.0
56.967,4078.0
56.968,4077.0
56.969,3.0
56.97,4.0
56.971,7.0
56.972,3.0
56.973,0.0
56.974,4078.0
56.975,4079.0
56.976,0.0
56.977,1.0
56.978,0.0
56.979,3.0
56.98,0.0
56.981,2.0
56.982,0.0
56.983,0.0
56.984,3.0
56.985,0.0
56.986,2.0
56.987,0.0
56.988,2.0
56.989,1.0
56.99,0.0
56.991,3.0
56.992,3.0
56.993,2.0
56.994,4.0
56.995,2.0
56.996,2.0
56.997,1.0
56.998,3.0
56.999,0.0
57.0,1.0
57.001,4.0
57.002,0.0
57.003,4.0
57.004,1.0
57.005,3.0
57.006,1.0
57.007,2.0
57.008,0.0
57.009,0.0
57.01,3.0
57.011,0.0
57.012,1.0
57.013,3.0
57.014,0.0
57.015,0.0
57.016,0.0
57.017,0.0
57.018,0.0
57.019,0.0
57.02,1.0
57.021,1.0
57.022,2.0
57.023,2.0
57.024,0.0
57.025,1.0
57.026,1.0
57.027,2.0
57.028,3.0
57.029,6.0
57.03,6.0
57.031,10.0
57.032,11.0
57.033,9.0
57.034,17.0
57.035,26.0
57.036,39.0
57.037,86.0
57.038,132.0
57.039,165.0
57.04,221.0
57.041,357.0
57.042,496.0
57.043,712.0
57.044,815.0
57.045,922.0
57.046,999.0
57.047,1026.0
57.048,1078.0
57.049,1235.0
57.05,1323.0
57.051,1538.0
57.052,1594.0
57.053,1723.0
57.054,1709.0
57.055,1715.0
57.056,1742.0
57.057,1790.0
57.058,1822.0
57.059,1920.0
57.06,2009.0
57.061,2237.0
57.062,2445.0
57.063,2657.0
57.064,2854.0
57.065,3024.0
57.066,3212.0
57.067,3354.0
57.068,3406.0
57.069,3473.0
57.07,3506.0
57.071,3468.0
57.072,3448.0
57.073,3467.0
57.074,3540.0
57.075,3581.0
57.076,3550.0
57.077,3562.0
57.078,3552.0
57.079,3538.0
57.08,3560.0
57.081,3607.0
57.082,3669.0
57.083,3710.0
57.084,3697.0
57.085,3708.0
57.086,3716.0
57.087,3753.0
57.088,3814.0
57.089,3915.0
57.09,4027.0
57.091,4036.0
57.092,4034.0
57.093,4039.0
57.094,4040.0
57.095,4043.0
57.096,4052.0
57.097,4061.0
57.098,4064.0
57.099,4065.0
57.1,4068.0
57.101,4065.0
57.102,4064.0
57.103,4068.0
57.104,4068.0
57.105,4074.0
57.106,4075.0
57.107,4074.0
57.108,4076.0
57.109,4075.0
57.11,4073.0
57.111,4079.0
57.112,4079.0
57.113,4076.0
57.114,4077.0
57.115,4077.0
57.116,4079.0
57.117,4079.0
57.118,4080.0
57.119,4079.0
57.12,4080.0
57.121,4081.0
