85.672,2048.0
85.673,2061.0
85.674,2074.0
85.675,2087.0
85.676,2097.0
85.677,2086.0
85.678,2080.0
85.679,2062.0
85.68,2067.0
85.681,2080.0
85.682,2073.0
85.683,2077.0
85.684,2082.0
85.685,2069.0
85.686,2070.0
85.687,2052.0
85.688,2073.0
85.689,2096.0
85.69,2089.0
85.691,2077.0
85.692,2075.0
85.693,2078.0
85.694,2072.0
85.695,2065.0
85.696,2069.0
85.697,2069.0
85.698,2108.0
85.699,2110.0
85.7,2089.0
85.701,2083.0
85.702,2074.0
85.703,2068.0
85.704,2073.0
85.705,2087.0
85.706,2076.0
85.707,2070.0
85.708,2056.0
85.709,2038.0
85.71,1986.0
85.711,1936.0
85.712,1885.0
85.713,1827.0
85.714,1801.0
85.715,1835.0
85.716,1950.0
85.717,2073.0
85.718,2179.0
85.719,2289.0
85.72,2380.0
85.721,2445.0
85.722,2497.0
85.723,2504.0
85.724,2515.0
85.725,2514.0
85.726,2465.0
85.727,2396.0
85.728,2335.0
85.729,2305.0
85.73,2275.0
85.731,2265.0
85.732,2182.0
85.733,2145.0
85.734,2107.0
85.735,2066.0
85.736,2036.0
85.737,1984.0
85.738,1962.0
85.739,1949.0
85.74,1926.0
85.741,1899.0
85.742,1892.0
85.743,1901.0
85.744,1901.0
85.745,1910.0
85.746,1916.0
85.747,1918.0
85.748,1919.0
85.749,1912.0
85.75,1901.0
85.751,1911.0
85.752,1917.0
85.753,1926.0
85.754,1936.0
85.755,1926.0
85.756,1938.0
85.757,1924.0
85.758,1936.0
85.759,1930.0
85.76,1933.0
85.761,1942.0
85.762,1949.0
85.763,1940.0
85.764,1922.0
85.765,1917.0
85.766,1926.0
85.767,1929.0
85.768,1948.0
85.769,1949.0
85.77,1954.0
85.771,1962.0
85.772,1956.0
85.773,1939.0
85.774,1939.0
85.775,1937.0
85.776,1957.0
85.777,1967.0
85.778,1970.0
85.779,1958.0
85.78,1918.0
85.781,1947.0
85.782,1940.0
85.783,1945.0
85.784,1968.0
85.785,1979.0
85.786,1962.0
85.787,1945.0
85.788,1910.0
85.789,1933.0
85.79,1942.0
85.791,1943.0
85.792,1956.0
85.793,1952.0
85.794,1952.0
85.795,1953.0
85.796,1942.0
85.797,1922.0
85.798,1950.0
85.799,1912.0
85.8,1962.0
85.801,1985.0
85.802,1965.0
85.803,1952.0
85.804,1945.0
85.805,1957.0
85.806,1995.0
85.807,1986.0
85.808,2001.0
85.809,2011.0
85.81,2004.0
85.811,2004.0
85.812,1992.0
85.813,1997.0
85.814,1986.0
85.815,2040.0
85.816,2069.0
85.817,2069.0
85.818,2064.0
85.819,2062.0
85.82,2118.0
85.821,2121.0
85.822,2111.0
85.823,2105.0
85.824,2111.0
85.825,2112.0
85.826,2107.0
85.827,2109.0
85.828,2111.0
85.829,2120.0
85.83,2130.0
85.831,2130.0
85.832,2136.0
85.833,2128.0
85.834,2126.0
85.835,2108.0
85.836,2113.0
85.837,2122.0
85.838,2126.0
85.839,2129.0
85.84,2148.0
85.841,2126.0
85.842,2125.0
85.843,2117.0
85.844,2115.0
85.845,2120.0
85.846,2121.0
85.847,2112.0
85.848,2119.0
85.849,2104.0
85.85,2092.0
85.851,2099.0
85.852,2108.0
85.853,2106.0
85.854,2110.0
85.855,2103.0
85.856,2107.0
85.857,2101.0
85.858,2091.0
85.859,2075.0
85.86,2080.0
85.861,2083.0
85.862,2108.0
85.863,2094.0
85.864,2093.0
85.865,2076.0
85.866,2083.0
85.867,2070.0
85.868,2086.0
85.869,2090.0
85.87,2094.0
85.871,2078.0
85.872,2070.0
85.873,2055.0
85.874,2051.0
85.875,2056.0
85.876,2058.0
85.877,2060.0
85.878,2064.0
85.879,2060.0
85.88,2070.0
85.881,2059.0
85.882,2050.0
85.883,2054.0
85.884,2057.0
85.885,2073.0
85.886,2065.0
85.887,2048.0
85.888,2031.0
85.889,2025.0
85.89,2039.0
85.891,2049.0
85.892,2043.0
85.893,2056.0
85.894,2058.0
85.895,2055.0
85.896,2057.0
85.897,2030.0
85.898,2008.0
85.899,2005.0
85.9,2034.0
85.901,2035.0
85.902,2054.0
85.903,2056.0
85.904,2058.0
85.905,2055.0
85.906,2049.0
85.907,2053.0
85.908,2052.0
85.909,2058.0
85.91,2051.0
85.911,2027.0
85.912,2038.0
85.913,2030.0
85.914,2025.0
85.915,2033.0
85.916,2039.0
85.917,2045.0
85.918,2044.0
85.919,2030.0
85.92,2040.0
85.921,2040.0
85.922,2035.0
85.923,2048.0
85.924,2045.0
85.925,2040.0
85.926,2040.0
85.927,2021.0
85.928,2017.0
85.929,2018.0
85.93,2018.0
85.931,2023.0
85.932,2028.0
85.933,2034.0
85.934,2033.0
85.935,2018.0
85.936,1999.0
85.937,2000.0
85.938,2035.0
85.939,2060.0
85.94,2053.0
85.941,2054.0
85.942,2043.0
85.943,2018.0
85.944,2015.0
85.945,2023.0
85.946,2027.0
85.947,2016.0
85.948,2025.0
85.949,2024.0
85.95,2024.0
85.951,2009.0
85.952,2016.0
85.953,2031.0
85.954,2033.0
85.955,2035.0
85.956,2040.0
85.957,2033.0
85.958,2031.0
85.959,2013.0
85.96,2011.0
85.961,2018.0
85.962,2027.0
85.963,2034.0
85.964,2038.0
85.965,1995.0
85.966,2045.0
85.967,2012.0
85.968,2014.0
85.969,2021.0
85.97,2017.0
85.971,2017.0
85.972,2022.0
85.973,2023.0
85.974,2019.0
85.975,1999.0
85.976,2003.0
85.977,2006.0
85.978,2020.0
85.979,2014.0
85.98,2012.0
85.981,1992.0
85.982,1995.0
85.983,1998.0
85.984,1992.0
85.985,2008.0
85.986,2027.0
85.987,2017.0
85.988,2006.0
85.989,2005.0
85.99,2017.0
85.991,2009.0
85.992,2011.0
85.993,2020.0
85.994,2012.0
85.995,1997.0
85.996,1997.0
85.997,2014.0
85.998,2031.0
85.999,2031.0
86.0,2027.0
86.001,2020.0
86.002,2026.0
86.003,2027.0
86.004,2042.0
86.005,2026.0
86.006,2013.0
86.007,2014.0
86.008,2011.0
86.009,2017.0
86.01,2025.0
86.011,2035.0
86.012,2042.0
86.013,2030.0
86.014,2021.0
86.015,2008.0
86.016,2016.0
86.017,2034.0
86.018,2034.0
86.019,2038.0
86.02,2028.0
86.021,2018.0
86.022,2011.0
86.023,2013.0
86.024,2011.0
86.025,2023.0
86.026,2031.0
86.027,2026.0
86.028,2018.0
86.029,2005.0
86.03,1973.0
86.031,1941.0
86.032,1888.0
86.033,1822.0
86.034,1786.0
86.035,1780.0
86.036,1850.0
86.037,1985.0
86.038,2111.0
86.039,2249.0
86.04,2336.0
86.041,2394.0
86.042,2451.0
86.043,2480.0
86.044,2487.0
86.045,2496.0
86.046,2447.0
86.047,2366.0
86.048,2293.0
86.049,2262.0
86.05,2232.0
86.051,2185.0
86.052,2129.0
86.053,2086.0
86.054,2050.0
86.055,1998.0
86.056,1967.0
86.057,1950.0
86.058,1922.0
86.059,1888.0
86.06,1855.0
86.061,1844.0
86.062,1857.0
86.063,1834.0
86.064,1871.0
86.065,1878.0
86.066,1875.0
86.067,1868.0
86.068,1848.0
86.069,1842.0
86.07,1850.0
86.071,1867.0
86.072,1873.0
86.073,1889.0
86.074,1879.0
86.075,1860.0
86.076,1869.0
86.077,1859.0
86.078,1875.0
86.079,1880.0
86.08,1894.0
86.081,1899.0
86.082,1897.0
86.083,1893.0
86.084,1898.0
86.085,1900.0
86.086,1909.0
86.087,1914.0
86.088,1923.0
86.089,1912.0
86.09,1915.0
86.091,1912.0
86.092,1906.0
86.093,1905.0
86.094,1904.0
86.095,1910.0
86.096,1908.0
86.097,1924.0
86.098,1920.0
86.099,1915.0
86.1,1910.0
86.101,1918.0
86.102,1912.0
86.103,1911.0
86.104,1905.0
86.105,1902.0
86.106,1895.0
86.107,1887.0
86.108,1889.0
86.109,1896.0
86.11,1909.0
86.111,1903.0
86.112,1901.0
86.113,1935.0
86.114,1921.0
86.115,1902.0
86.116,1889.0
86.117,1906.0
86.118,1923.0
86.119,1923.0
86.12,1919.0
86.121,1920.0
86.122,1914.0
86.123,1923.0
86.124,1920.0
86.125,1921.0
86.126,1933.0
86.127,1942.0
86.128,1939.0
86.129,1957.0
86.13,1958.0
86.131,1964.0
86.132,1971.0
86.133,1991.0
86.134,2016.0
86.135,2016.0
86.136,2001.0
86.137,2010.0
86.138,2005.0
86.139,2021.0
86.14,2045.0
86.141,2058.0
86.142,2061.0
86.143,2055.0
86.144,2064.0
86.145,2074.0
86.146,2096.0
86.147,2086.0
86.148,2087.0
86.149,2100.0
86.15,2097.0
86.151,2109.0
86.152,2109.0
86.153,2096.0
86.154,2087.0
86.155,2088.0
86.156,2096.0
86.157,2104.0
86.158,2121.0
86.159,2127.0
86.16,2102.0
86.161,2098.0
86.162,2092.0
86.163,2078.0
86.164,2090.0
86.165,2102.0
86.166,2106.0
86.167,2102.0
86.168,2081.0
86.169,2083.0
86.17,2094.0
86.171,2094.0
86.172,2094.0
86.173,2104.0
86.174,2100.0
86.175,2103.0
86.176,2075.0
86.177,2063.0
86.178,2065.0
86.179,2069.0
86.18,2092.0
86.181,2088.0
86.182,2072.0
86.183,2062.0
86.184,2068.0
86.185,2059.0
86.186,2053.0
86.187,2045.0
86.188,2063.0
86.189,2062.0
86.19,2066.0
86.191,2086.0
86.192,2058.0
86.193,2052.0
86.194,2051.0
86.195,2033.0
86.196,2045.0
86.197,2043.0
86.198,2043.0
86.199,2049.0
86.2,2043.0
86.201,2040.0
86.202,2040.0
86.203,2039.0
86.204,2041.0
86.205,2051.0
86.206,2066.0
86.207,2056.0
86.208,2039.0
86.209,2036.0
86.21,2035.0
86.211,2038.0
86.212,2033.0
86.213,2029.0
86.214,2036.0
86.215,2034.0
86.216,2035.0
86.217,2029.0
86.218,2023.0
86.219,2022.0
86.22,2026.0
86.221,2036.0
86.222,2029.0
86.223,2029.0
86.224,2010.0
86.225,2008.0
86.226,2030.0
86.227,2047.0
86.228,2046.0
86.229,2054.0
86.23,2036.0
86.231,2013.0
86.232,1994.0
86.233,2010.0
86.234,2023.0
86.235,2036.0
86.236,2039.0
86.237,2043.0
86.238,2052.0
86.239,2036.0
86.24,2011.0
86.241,2016.0
86.242,2028.0
86.243,2041.0
86.244,2042.0
86.245,2051.0
86.246,2038.0
86.247,2015.0
86.248,2002.0
86.249,2006.0
86.25,2023.0
86.251,2023.0
86.252,2020.0
86.253,2046.0
86.254,2044.0
86.255,2016.0
86.256,1995.0
86.257,2002.0
86.258,2018.0
86.259,2014.0
86.26,2037.0
86.261,2040.0
86.262,2040.0
86.263,1988.0
86.264,2000.0
86.265,2007.0
86.266,2018.0
86.267,2029.0
86.268,2050.0
86.269,2035.0
86.27,2020.0
86.271,2001.0
86.272,2004.0
86.273,1993.0
86.274,2032.0
86.275,2024.0
86.276,2000.0
86.277,2047.0
86.278,1992.0
86.279,2009.0
86.28,2005.0
86.281,2000.0
86.282,2015.0
86.283,2012.0
86.284,2030.0
86.285,2044.0
86.286,2031.0
86.287,2010.0
86.288,2017.0
86.289,2062.0
86.29,2069.0
86.291,2036.0
86.292,2047.0
86.293,2026.0
86.294,2021.0
86.295,2003.0
86.296,1992.0
86.297,2015.0
86.298,2042.0
86.299,2044.0
86.3,2041.0
86.301,2033.0
86.302,2017.0
86.303,2006.0
86.304,1983.0
86.305,2008.0
86.306,2018.0
86.307,2026.0
86.308,2016.0
86.309,2003.0
86.31,1999.0
86.311,1991.0
86.312,2001.0
86.313,2016.0
86.314,2027.0
86.315,2018.0
86.316,2011.0
86.317,2002.0
86.318,1985.0
86.319,1996.0
86.32,2011.0
86.321,2022.0
86.322,2022.0
86.323,2022.0
86.324,2019.0
86.325,2017.0
86.326,2004.0
86.327,2016.0
86.328,2042.0
86.329,2050.0
86.33,2045.0
86.331,2055.0
86.332,2039.0
86.333,2031.0
86.334,2029.0
86.335,2027.0
86.336,2030.0
86.337,2031.0
86.338,2044.0
86.339,2047.0
86.34,2042.0
86.341,2028.0
86.342,2029.0
86.343,2039.0
86.344,2030.0
86.345,2028.0
86.346,2049.0
86.347,2056.0
86.348,2037.0
86.349,2029.0
86.35,2022.0
86.351,2029.0
86.352,2037.0
86.353,2044.0
86.354,2041.0
86.355,2027.0
86.356,2011.0
86.357,2002.0
86.358,2010.0
86.359,2022.0
86.36,2004.0
86.361,1966.0
86.362,1932.0
86.363,1873.0
86.364,1839.0
86.365,1862.0
86.366,1934.0
86.367,2075.0
86.368,2210.0
86.369,2333.0
86.37,2413.0
86.371,2473.0
86.372,2512.0
86.373,2537.0
86.374,2557.0
86.375,2555.0
86.376,2513.0
86.377,2430.0
86.378,2365.0
86.379,2294.0
86.38,2241.0
86.381,2183.0
86.382,2133.0
86.383,2103.0
86.384,2048.0
86.385,1992.0
86.386,1954.0
86.387,1908.0
86.388,1869.0
86.389,1852.0
86.39,1841.0
86.391,1856.0
86.392,1858.0
86.393,1872.0
86.394,1884.0
86.395,1871.0
86.396,1846.0
86.397,1834.0
86.398,1854.0
86.399,1874.0
86.4,1887.0
86.401,1896.0
86.402,1908.0
86.403,1885.0
86.404,1879.0
86.405,1879.0
86.406,1904.0
86.407,1903.0
86.408,1903.0
86.409,1900.0
86.41,1904.0
86.411,1897.0
86.412,1895.0
86.413,1906.0
86.414,1912.0
86.415,1921.0
86.416,1931.0
86.417,1911.0
86.418,1918.0
86.419,1908.0
86.42,1910.0
86.421,1914.0
86.422,1910.0
86.423,1921.0
86.424,1937.0
86.425,1929.0
86.426,1934.0
86.427,1929.0
86.428,1917.0
86.429,1919.0
86.43,1937.0
86.431,1935.0
86.432,1949.0
86.433,1936.0
86.434,1935.0
86.435,1931.0
86.436,1915.0
86.437,1919.0
86.438,1925.0
86.439,1933.0
86.44,1936.0
86.441,1900.0
86.442,1920.0
86.443,1919.0
86.444,1917.0
86.445,1927.0
86.446,1926.0
86.447,1931.0
86.448,1941.0
86.449,1928.0
86.45,1916.0
86.451,1918.0
86.452,1922.0
86.453,1927.0
86.454,1953.0
86.455,1970.0
86.456,1978.0
86.457,1968.0
86.458,1975.0
86.459,1970.0
86.46,1986.0
86.461,1998.0
86.462,2020.0
86.463,2023.0
86.464,2017.0
86.465,2016.0
86.466,2043.0
86.467,2040.0
86.468,2035.0
86.469,2046.0
86.47,2069.0
86.471,2107.0
86.472,2118.0
86.473,2100.0
86.474,2109.0
86.475,2101.0
86.476,2116.0
86.477,2115.0
86.478,2127.0
86.479,2127.0
86.48,2121.0
86.481,2106.0
86.482,2112.0
86.483,2114.0
86.484,2126.0
86.485,2142.0
86.486,2154.0
86.487,2158.0
86.488,2158.0
86.489,2149.0
86.49,2146.0
86.491,2145.0
86.492,2146.0
86.493,2154.0
86.494,2151.0
86.495,2145.0
86.496,2134.0
86.497,2115.0
86.498,2111.0
86.499,2124.0
86.5,2132.0
86.501,2145.0
86.502,2155.0
86.503,2152.0
86.504,2144.0
86.505,2113.0
86.506,2118.0
86.507,2112.0
86.508,2123.0
86.509,2127.0
86.51,2146.0
86.511,2131.0
86.512,2124.0
86.513,2099.0
86.514,2095.0
86.515,2104.0
86.516,2116.0
86.517,2111.0
86.518,2110.0
86.519,2100.0
86.52,2090.0
86.521,2074.0
86.522,2079.0
86.523,2085.0
86.524,2088.0
86.525,2091.0
86.526,2100.0
86.527,2087.0
86.528,2076.0
86.529,2043.0
86.53,2037.0
86.531,2044.0
86.532,2051.0
86.533,2072.0
86.534,2095.0
86.535,2071.0
86.536,2058.0
86.537,2026.0
86.538,2037.0
86.539,2051.0
86.54,2045.0
86.541,2054.0
86.542,2056.0
86.543,2060.0
86.544,2060.0
86.545,2038.0
86.546,2044.0
86.547,2050.0
86.548,2053.0
86.549,2059.0
86.55,2058.0
86.551,2041.0
86.552,2037.0
86.553,2019.0
86.554,2029.0
86.555,2034.0
86.556,2053.0
86.557,2052.0
86.558,2046.0
86.559,2029.0
86.56,2030.0
86.561,2011.0
86.562,2031.0
86.563,2034.0
86.564,2035.0
86.565,2051.0
86.566,2056.0
86.567,2048.0
86.568,2029.0
86.569,2027.0
86.57,2028.0
86.571,2036.0
86.572,2055.0
86.573,2058.0
86.574,2048.0
86.575,2032.0
86.576,2015.0
86.577,1998.0
86.578,2022.0
86.579,2044.0
86.58,2061.0
86.581,2065.0
86.582,2054.0
86.583,2033.0
86.584,2018.0
86.585,2011.0
86.586,2032.0
86.587,2042.0
86.588,2053.0
86.589,2060.0
86.59,2053.0
86.591,2037.0
86.592,2032.0
86.593,2015.0
86.594,2037.0
86.595,2060.0
86.596,2043.0
86.597,2039.0
86.598,2025.0
86.599,2030.0
86.6,2036.0
86.601,2034.0
86.602,2034.0
86.603,2038.0
86.604,2035.0
86.605,2037.0
86.606,2037.0
86.607,2032.0
86.608,2038.0
86.609,2028.0
86.61,2028.0
86.611,2044.0
86.612,2055.0
86.613,2042.0
86.614,2033.0
86.615,2029.0
86.616,2030.0
86.617,2022.0
86.618,2017.0
86.619,2021.0
86.62,2036.0
86.621,2050.0
86.622,2060.0
86.623,2061.0
86.624,2064.0
86.625,2043.0
86.626,2048.0
86.627,2044.0
86.628,2043.0
86.629,2037.0
86.63,2033.0
86.631,2042.0
86.632,2034.0
86.633,2017.0
86.634,2033.0
86.635,2061.0
86.636,2055.0
86.637,2058.0
86.638,2048.0
86.639,2040.0
86.64,2043.0
86.641,2037.0
86.642,2032.0
86.643,2039.0
86.644,2026.0
86.645,2030.0
86.646,2030.0
86.647,2033.0
86.648,2037.0
86.649,2038.0
86.65,2056.0
86.651,2040.0
86.652,2027.0
86.653,2026.0
86.654,2027.0
86.655,2035.0
86.656,2052.0
86.657,2040.0
86.658,2039.0
86.659,2040.0
86.66,2028.0
86.661,2018.0
86.662,2023.0
86.663,2019.0
86.664,2031.0
86.665,2046.0
86.666,2039.0
86.667,2045.0
86.668,2029.0
86.669,2011.0
86.67,2011.0
86.671,2025.0
86.672,2018.0
86.673,2030.0
86.674,2026.0
86.675,2018.0
86.676,2008.0
86.677,2001.0
86.678,2013.0
86.679,2027.0
86.68,2042.0
86.681,2044.0
86.682,2039.0
86.683,2045.0
86.684,2032.0
86.685,2013.0
86.686,2023.0
86.687,2029.0
86.688,2045.0
86.689,2061.0
86.69,2049.0
86.691,2062.0
86.692,2053.0
86.693,2038.0
86.694,2037.0
86.695,2032.0
86.696,2034.0
86.697,2062.0
86.698,2071.0
86.699,2057.0
86.7,2048.0
86.701,2044.0
86.702,2049.0
86.703,2051.0
86.704,2057.0
86.705,2054.0
86.706,2063.0
86.707,2060.0
86.708,2049.0
86.709,2040.0
86.71,2042.0
86.711,2056.0
86.712,2069.0
86.713,2052.0
86.714,2033.0
86.715,2042.0
86.7160000001,2025.0
86.7170000001,2024.0
86.7180000001,2051.0
86.7190000001,2049.0
86.7200000001,2052.0
86.7210000001,2006.0
86.7220000001,1942.0
86.7230000001,1873.0
86.7240000001,1809.0
86.7250000001,1822.0
86.7260000001,1890.0
86.7270000001,2037.0
86.7280000001,2221.0
86.7290000001,2367.0
86.7300000001,2395.0
86.7310000001,2437.0
86.7320000001,2503.0
86.7330000001,2559.0
86.7340000001,2582.0
86.7350000001,2581.0
86.7360000001,2540.0
86.7370000001,2464.0
86.7380000001,2354.0
86.7390000001,2286.0
86.7400000001,2234.0
86.7410000001,2185.0
86.7420000001,2146.0
86.7430000001,2117.0
86.7440000001,2079.0
86.7450000001,2024.0
86.7460000001,1953.0
86.7470000001,1914.0
86.7480000001,1901.0
86.7490000001,1850.0
86.7500000001,1848.0
86.7510000001,1860.0
86.7520000001,1865.0
86.7530000001,1880.0
86.7540000001,1851.0
86.7550000001,1871.0
86.7560000001,1877.0
86.7570000001,1879.0
86.7580000001,1885.0
86.7590000001,1889.0
86.7600000001,1895.0
86.7610000001,1916.0
86.7620000001,1853.0
86.7630000001,1860.0
86.7640000001,1892.0
86.7650000001,1893.0
86.7660000001,1884.0
86.7670000001,1905.0
86.7680000001,1905.0
86.7690000001,1906.0
86.7700000001,1927.0
86.7710000001,1905.0
86.7720000001,1912.0
86.7730000001,1924.0
86.7740000001,1881.0
86.7750000001,1944.0
86.7760000001,1926.0
86.7770000001,1929.0
86.7780000001,1913.0
86.7790000001,1900.0
86.7800000001,1921.0
86.7810000001,1926.0
86.7820000001,1944.0
86.7830000001,1944.0
86.7840000001,1940.0
86.7850000001,1926.0
86.7860000001,1915.0
86.7870000001,1906.0
86.7880000001,1922.0
86.7890000001,1924.0
86.7900000001,1959.0
86.7910000001,1953.0
86.7920000001,1952.0
86.7930000001,1936.0
86.7940000001,1918.0
86.7950000001,1922.0
86.7960000001,1931.0
86.7970000001,1929.0
86.7980000001,1949.0
86.7990000001,1939.0
86.8000000001,1936.0
86.8010000001,1904.0
86.8020000001,1877.0
86.8030000001,1902.0
86.8040000001,1939.0
86.8050000001,1944.0
86.8060000001,1956.0
86.8070000001,1949.0
86.8080000001,1936.0
86.8090000001,1931.0
86.8100000001,1916.0
86.8110000001,1932.0
86.8120000001,1934.0
86.8130000001,1944.0
86.8140000001,1961.0
86.8150000001,1964.0
86.8160000001,1958.0
86.8170000001,1949.0
86.8180000001,1938.0
86.8190000001,1948.0
86.8200000001,1979.0
86.8210000001,2012.0
86.8220000001,2025.0
86.8230000001,2027.0
86.8240000001,2012.0
86.8250000001,2012.0
86.8260000001,2004.0
86.8270000001,2041.0
86.8280000001,2066.0
86.8290000001,2078.0
86.8300000001,2089.0
86.8310000001,2086.0
86.8320000001,2079.0
86.8330000001,2079.0
86.8340000001,2078.0
86.8350000001,2088.0
86.8360000001,2093.0
86.8370000001,2111.0
86.8380000001,2138.0
86.8390000001,2129.0
86.8400000001,2115.0
86.8410000001,2103.0
86.8420000001,2116.0
86.8430000001,2137.0
86.8440000001,2137.0
86.8450000001,2137.0
86.8460000001,2132.0
86.8470000001,2133.0
86.8480000001,2131.0
86.8490000001,2119.0
86.8500000001,2122.0
86.8510000001,2130.0
86.8520000001,2130.0
86.8530000001,2133.0
86.8540000001,2135.0
86.8550000001,2114.0
86.8560000001,2108.0
86.8570000001,2109.0
86.8580000001,2086.0
86.8590000001,2108.0
86.8600000001,2111.0
86.8610000001,2120.0
86.8620000001,2122.0
86.8630000001,2103.0
86.8640000001,2094.0
86.8650000001,2084.0
86.8660000001,2080.0
86.8670000001,2101.0
86.8680000001,2123.0
86.8690000001,2118.0
86.8700000001,2109.0
86.8710000001,2089.0
86.8720000001,2068.0
86.8730000001,2059.0
86.8740000001,2066.0
86.8750000001,2092.0
86.8760000001,2096.0
86.8770000001,2102.0
86.8780000001,2080.0
86.8790000001,2067.0
86.8800000001,2057.0
86.8810000001,2060.0
86.8820000001,2065.0
86.8830000001,2057.0
86.8840000001,2065.0
86.8850000001,2060.0
86.8860000001,2045.0
86.8870000001,2035.0
86.8880000001,2026.0
86.8890000001,2030.0
86.8900000001,2036.0
86.8910000001,2060.0
86.8920000001,2064.0
86.8930000001,2052.0
86.8940000001,2040.0
86.8950000001,2039.0
86.8960000001,2028.0
86.8970000001,2037.0
86.8980000001,2022.0
86.8990000001,2029.0
86.9000000001,2059.0
86.9010000001,2054.0
86.9020000001,2035.0
86.9030000001,2019.0
86.9040000001,2020.0
86.9050000001,2017.0
86.9060000001,2033.0
86.9070000001,2048.0
86.9080000001,2051.0
86.9090000001,2040.0
86.9100000001,2030.0
86.9110000001,2022.0
86.9120000001,2019.0
86.9130000001,2021.0
86.9140000001,2036.0
86.9150000001,2027.0
86.9160000001,2045.0
86.9170000001,2032.0
86.9180000001,2035.0
86.9190000001,2023.0
86.9200000001,2028.0
86.9210000001,2035.0
86.9220000001,2025.0
86.9230000001,2034.0
86.9240000001,2039.0
86.9250000001,2029.0
86.9260000001,2010.0
86.9270000001,2001.0
86.9280000001,2020.0
86.9290000001,2038.0
86.9300000001,2041.0
86.9310000001,2037.0
86.9320000001,2028.0
86.9330000001,2026.0
86.9340000001,2021.0
86.9350000001,2013.0
86.9360000001,2016.0
86.9370000001,2042.0
86.9380000001,2047.0
86.9390000001,2037.0
86.9400000001,2046.0
86.9410000001,2032.0
86.9420000001,2020.0
86.9430000001,2010.0
86.9440000001,2018.0
86.9450000001,2025.0
86.9460000001,2026.0
86.9470000001,2032.0
86.9480000001,2021.0
86.9490000001,2010.0
86.9500000001,2013.0
86.9510000001,2027.0
86.9520000001,2036.0
86.9530000001,2041.0
86.9540000001,2045.0
86.9550000001,2039.0
86.9560000001,2047.0
86.9570000001,2016.0
86.9580000001,2009.0
86.9590000001,2012.0
86.9600000001,2034.0
86.9610000001,2032.0
86.9620000001,2042.0
86.9630000001,2027.0
86.9640000001,2027.0
86.9650000001,2018.0
86.9660000001,2011.0
86.9670000001,2031.0
86.9680000001,2042.0
86.9690000001,2042.0
86.9700000001,2057.0
86.9710000001,2050.0
86.9720000001,2037.0
86.9730000001,2033.0
86.9740000001,2027.0
86.9750000001,2021.0
86.9760000001,2021.0
86.9770000001,2028.0
86.9780000001,2045.0
86.9790000001,2034.0
86.9800000001,2032.0
86.9810000001,2024.0
86.9820000001,2026.0
86.9830000001,2025.0
86.9840000001,2034.0
86.9850000001,2042.0
86.9860000001,2030.0
86.9870000001,2015.0
86.9880000001,2009.0
86.9890000001,1999.0
86.9900000001,1996.0
86.9910000001,2026.0
86.9920000001,2049.0
86.9930000001,2063.0
86.9940000001,2052.0
86.9950000001,2022.0
86.9960000001,2027.0
86.9970000001,2026.0
86.9980000001,2038.0
86.9990000001,2041.0
87.0000000001,2042.0
87.0010000001,2037.0
87.0020000001,2036.0
87.0030000001,2020.0
87.0040000001,2015.0
87.0050000001,2003.0
87.0060000001,2022.0
87.0070000001,2034.0
87.0080000001,2039.0
87.0090000001,2047.0
87.0100000001,2048.0
87.0110000001,2025.0
87.0120000001,2020.0
87.0130000001,2022.0
87.0140000001,2026.0
87.0150000001,2033.0
87.0160000001,2052.0
87.0170000001,2061.0
87.0180000001,2050.0
87.0190000001,2019.0
87.0200000001,2024.0
87.0210000001,2027.0
87.0220000001,2041.0
87.0230000001,2033.0
87.0240000001,2028.0
87.0250000001,2037.0
87.0260000001,2048.0
87.0270000001,2038.0
87.0280000001,2051.0
87.0290000001,2043.0
87.0300000001,2042.0
87.0310000001,2043.0
87.0320000001,2052.0
87.0330000001,2049.0
87.0340000001,2030.0
87.0350000001,2022.0
87.0360000001,2030.0
87.0370000001,2039.0
87.0380000001,2047.0
87.0390000001,2046.0
87.0400000001,2046.0
87.0410000001,2046.0
87.0420000001,2049.0
87.0430000001,2038.0
87.0440000001,2035.0
87.0450000001,2035.0
87.0460000001,2036.0
87.0470000001,2039.0
87.0480000001,2050.0
87.0490000001,2041.0
87.0500000001,2032.0
87.0510000001,2007.0
87.0520000001,2019.0
87.0530000001,2026.0
87.0540000001,2038.0
87.0550000001,2049.0
87.0560000001,2060.0
87.0570000001,2044.0
87.0580000001,2027.0
87.0590000001,1999.0
87.0600000001,2012.0
87.0610000001,2045.0
87.0620000001,2071.0
87.0630000001,2073.0
87.0640000001,2085.0
87.0650000001,2071.0
87.0660000001,2052.0
87.0670000001,2021.0
87.0680000001,2024.0
87.0690000001,2038.0
87.0700000001,2053.0
87.0710000001,2060.0
87.0720000001,2069.0
87.0730000001,2072.0
87.0740000001,2051.0
87.0750000001,2034.0
87.0760000001,2039.0
87.0770000001,2051.0
87.0780000001,2062.0
87.0790000001,2070.0
87.0800000001,2066.0
87.0810000001,2043.0
87.0820000001,2033.0
87.0830000001,2019.0
87.0840000001,2044.0
87.0850000001,2047.0
87.0860000001,2048.0
87.0870000001,2051.0
87.0880000001,2039.0
87.0890000001,2048.0
87.0900000001,2030.0
87.0910000001,2008.0
87.0920000001,1985.0
87.0930000001,1931.0
87.0940000001,1867.0
87.0950000001,1817.0
87.0960000001,1803.0
87.0970000001,1848.0
87.0980000001,1970.0
87.0990000001,2093.0
87.1000000001,2238.0
87.1010000001,2331.0
87.1020000001,2406.0
87.1030000001,2453.0
87.1040000001,2494.0
87.1050000001,2496.0
87.1060000001,2488.0
87.1070000001,2441.0
87.1080000001,2428.0
87.1090000001,2371.0
87.1100000001,2300.0
87.1110000001,2263.0
87.1120000001,2228.0
87.1130000001,2176.0
87.1140000001,2114.0
87.1150000001,2056.0
87.1160000001,2029.0
87.1170000001,2004.0
87.1180000001,1983.0
87.1190000001,1957.0
87.1200000001,1934.0
87.1210000001,1908.0
87.1220000001,1882.0
87.1230000001,1862.0
87.1240000001,1874.0
87.1250000001,1890.0
87.1260000001,1909.0
87.1270000001,1901.0
87.1280000001,1896.0
87.1290000001,1883.0
87.1300000001,1892.0
87.1310000001,1890.0
87.1320000001,1909.0
87.1330000001,1906.0
87.1340000001,1905.0
87.1350000001,1889.0
87.1360000001,1887.0
87.1370000001,1892.0
87.1380000001,1898.0
87.1390000001,1914.0
87.1400000001,1927.0
87.1410000001,1921.0
87.1420000001,1927.0
87.1430000001,1927.0
87.1440000001,1909.0
87.1450000001,1899.0
87.1460000001,1897.0
87.1470000001,1904.0
87.1480000001,1918.0
87.1490000001,1948.0
87.1500000001,1965.0
87.1510000001,1953.0
87.1520000001,1928.0
87.1530000001,1931.0
87.1540000001,1933.0
87.1550000001,1935.0
87.1560000001,1942.0
87.1570000001,1945.0
87.1580000001,1941.0
87.1590000001,1935.0
87.1600000001,1924.0
87.1610000001,1911.0
87.1620000001,1923.0
87.1630000001,1935.0
87.1640000001,1945.0
87.1650000001,1954.0
87.1660000001,1964.0
87.1670000001,1947.0
87.1680000001,1927.0
87.1690000001,1917.0
87.1700000001,1930.0
87.1710000001,1925.0
87.1720000001,1938.0
87.1730000001,1947.0
87.1740000001,1948.0
87.1750000001,1952.0
87.1760000001,1935.0
87.1770000001,1929.0
87.1780000001,1939.0
87.1790000001,1940.0
87.1800000001,1942.0
87.1810000001,1969.0
87.1820000001,1960.0
87.1830000001,1962.0
87.1840000001,1947.0
87.1850000001,1952.0
87.1860000001,1973.0
87.1870000001,1970.0
87.1880000001,1977.0
87.1890000001,1989.0
87.1900000001,1995.0
87.1910000001,1988.0
87.1920000001,2003.0
87.1930000001,2012.0
87.1940000001,2028.0
87.1950000001,2043.0
87.1960000001,2057.0
87.1970000001,2074.0
87.1980000001,2061.0
87.1990000001,2057.0
87.2000000001,2057.0
87.2010000001,2075.0
87.2020000001,2093.0
87.2030000001,2103.0
87.2040000001,2121.0
87.2050000001,2117.0
87.2060000001,2119.0
87.2070000001,2090.0
87.2080000001,2108.0
87.2090000001,2116.0
87.2100000001,2151.0
87.2110000001,2171.0
87.2120000001,2175.0
87.2130000001,2173.0
87.2140000001,2148.0
87.2150000001,2144.0
87.2160000001,2144.0
87.2170000001,2147.0
87.2180000001,2160.0
87.2190000001,2154.0
87.2200000001,2165.0
87.2210000001,2166.0
87.2220000001,2162.0
87.2230000001,2147.0
87.2240000001,2145.0
87.2250000001,2156.0
87.2260000001,2166.0
87.2270000001,2160.0
87.2280000001,2158.0
87.2290000001,2142.0
87.2300000001,2132.0
87.2310000001,2116.0
87.2320000001,2122.0
87.2330000001,2149.0
87.2340000001,2152.0
87.2350000001,2155.0
87.2360000001,2155.0
87.2370000001,2149.0
87.2380000001,2136.0
87.2390000001,2104.0
87.2400000001,2121.0
87.2410000001,2132.0
87.2420000001,2150.0
87.2430000001,2130.0
87.2440000001,2150.0
87.2450000001,2123.0
87.2460000001,2125.0
87.2470000001,2107.0
87.2480000001,2115.0
87.2490000001,2106.0
87.2500000001,2115.0
87.2510000001,2117.0
87.2520000001,2114.0
87.2530000001,2099.0
87.2540000001,2105.0
87.2550000001,2087.0
87.2560000001,2088.0
87.2570000001,2096.0
87.2580000001,2154.0
87.2590000001,2123.0
87.2600000001,2114.0
87.2610000001,2080.0
87.2620000001,2095.0
87.2630000001,2069.0
87.2640000001,2101.0
87.2650000001,2107.0
87.2660000001,2118.0
87.2670000001,2113.0
87.2680000001,2112.0
87.2690000001,2104.0
87.2700000001,2089.0
87.2710000001,2083.0
87.2720000001,2095.0
87.2730000001,2118.0
87.2740000001,2126.0
87.2750000001,2114.0
87.2760000001,2097.0
87.2770000001,2093.0
87.2780000001,2087.0
87.2790000001,2090.0
87.2800000001,2093.0
87.2810000001,2093.0
87.2820000001,2130.0
87.2830000001,2131.0
87.2840000001,2112.0
87.2850000001,2112.0
87.2860000001,2107.0
87.2870000001,2110.0
87.2880000001,2110.0
87.2890000001,2110.0
87.2900000001,2107.0
87.2910000001,2106.0
87.2920000001,2095.0
87.2930000001,2116.0
87.2940000001,2108.0
87.2950000001,2106.0
87.2960000001,2110.0
87.2970000001,2121.0
87.2980000001,2122.0
87.2990000001,2116.0
87.3000000001,2102.0
87.3010000001,2109.0
87.3020000001,2108.0
87.3030000001,2104.0
87.3040000001,2113.0
87.3050000001,2125.0
87.3060000001,2128.0
87.3070000001,2113.0
87.3080000001,2095.0
87.3090000001,2098.0
87.3100000001,2092.0
87.3110000001,2132.0
87.3120000001,2104.0
87.3130000001,2110.0
87.3140000001,2119.0
87.3150000001,2100.0
87.3160000001,2083.0
87.3170000001,2080.0
87.3180000001,2085.0
87.3190000001,2108.0
87.3200000001,2117.0
87.3210000001,2116.0
87.3220000001,2121.0
87.3230000001,2110.0
87.3240000001,2098.0
87.3250000001,2089.0
87.3260000001,2079.0
87.3270000001,2094.0
87.3280000001,2107.0
87.3290000001,2115.0
87.3300000001,2105.0
87.3310000001,2095.0
87.3320000001,2076.0
87.3330000001,2090.0
87.3340000001,2094.0
87.3350000001,2088.0
87.3360000001,2097.0
87.3370000001,2100.0
87.3380000001,2107.0
87.3390000001,2086.0
87.3400000001,2080.0
87.3410000001,2083.0
87.3420000001,2090.0
87.3430000001,2097.0
87.3440000001,2098.0
87.3450000001,2096.0
87.3460000001,2093.0
87.3470000001,2085.0
87.3480000001,2072.0
87.3490000001,2082.0
87.3500000001,2095.0
87.3510000001,2116.0
87.3520000001,2118.0
87.3530000001,2100.0
87.3540000001,2095.0
87.3550000001,2075.0
87.3560000001,2051.0
87.3570000001,2060.0
87.3580000001,2066.0
87.3590000001,2064.0
87.3600000001,2073.0
87.3610000001,2084.0
87.3620000001,2076.0
87.3630000001,2089.0
87.3640000001,2082.0
87.3650000001,2073.0
87.3660000001,2073.0
87.3670000001,2079.0
87.3680000001,2091.0
87.3690000001,2079.0
87.3700000001,2069.0
87.3710000001,2056.0
87.3720000001,2028.0
87.3730000001,2046.0
87.3740000001,2061.0
87.3750000001,2069.0
87.3760000001,2090.0
87.3770000001,2094.0
87.3780000001,2098.0
87.3790000001,2071.0
87.3800000001,2061.0
87.3810000001,2078.0
87.3820000001,2086.0
87.3830000001,2085.0
87.3840000001,2097.0
87.3850000001,2083.0
87.3860000001,2069.0
87.3870000001,2050.0
87.3880000001,2049.0
87.3890000001,2048.0
87.3900000001,2067.0
87.3910000001,2079.0
87.3920000001,2084.0
87.3930000001,2096.0
87.3940000001,2079.0
87.3950000001,2068.0
87.3960000001,2057.0
87.3970000001,2080.0
87.3980000001,2087.0
87.3990000001,2078.0
87.4000000001,2063.0
87.4010000001,2055.0
87.4020000001,2047.0
87.4030000001,2051.0
87.4040000001,2042.0
87.4050000001,2050.0
87.4060000001,2046.0
87.4070000001,2039.0
87.4080000001,2041.0
87.4090000001,2037.0
87.4100000001,2031.0
87.4110000001,2011.0
87.4120000001,1966.0
87.4130000001,1916.0
87.4140000001,1847.0
87.4150000001,1796.0
87.4160000001,1801.0
87.4170000001,1839.0
87.4180000001,1959.0
87.4190000001,2087.0
87.4200000001,2205.0
87.4210000001,2310.0
87.4220000001,2381.0
87.4230000001,2432.0
87.4240000001,2470.0
87.4250000001,2482.0
87.4260000001,2498.0
87.4270000001,2482.0
87.4280000001,2432.0
87.4290000001,2361.0
87.4300000001,2305.0
87.4310000001,2260.0
87.4320000001,2203.0
87.4330000001,2155.0
87.4340000001,2115.0
87.4350000001,2082.0
87.4360000001,2049.0
87.4370000001,2023.0
87.4380000001,1986.0
87.4390000001,1944.0
87.4400000001,1915.0
87.4410000001,1884.0
87.4420000001,1863.0
87.4430000001,1860.0
87.4440000001,1862.0
87.4450000001,1870.0
87.4460000001,1873.0
87.4470000001,1874.0
87.4480000001,1866.0
87.4490000001,1863.0
87.4500000001,1870.0
87.4510000001,1872.0
87.4520000001,1881.0
87.4530000001,1889.0
87.4540000001,1895.0
87.4550000001,1879.0
87.4560000001,1874.0
87.4570000001,1868.0
87.4580000001,1890.0
87.4590000001,1908.0
87.4600000001,1909.0
87.4610000001,1917.0
87.4620000001,1918.0
87.4630000001,1912.0
87.4640000001,1900.0
87.4650000001,1902.0
87.4660000001,1896.0
87.4670000001,1908.0
87.4680000001,1919.0
87.4690000001,1931.0
87.4700000001,1933.0
87.4710000001,1927.0
87.4720000001,1908.0
87.4730000001,1896.0
87.4740000001,1897.0
87.4750000001,1900.0
87.4760000001,1921.0
87.4770000001,1943.0
87.4780000001,1946.0
87.4790000001,1937.0
87.4800000001,1933.0
87.4810000001,1921.0
87.4820000001,1909.0
87.4830000001,1911.0
87.4840000001,1917.0
87.4850000001,1934.0
87.4860000001,1932.0
87.4870000001,1922.0
87.4880000001,1906.0
87.4890000001,1907.0
87.4900000001,1914.0
87.4910000001,1923.0
87.4920000001,1928.0
87.4930000001,1925.0
87.4940000001,1918.0
87.4950000001,1905.0
87.4960000001,1904.0
87.4970000001,1909.0
87.4980000001,1922.0
87.4990000001,1923.0
87.5000000001,1927.0
87.5010000001,1947.0
87.5020000001,1939.0
87.5030000001,1929.0
87.5040000001,1928.0
87.5050000001,1927.0
87.5060000001,1950.0
87.5070000001,1966.0
87.5080000001,1970.0
87.5090000001,1962.0
87.5100000001,1968.0
87.5110000001,1953.0
87.5120000001,1953.0
87.5130000001,1973.0
87.5140000001,1991.0
87.5150000001,2018.0
87.5160000001,2027.0
87.5170000001,2039.0
87.5180000001,2036.0
87.5190000001,2030.0
87.5200000001,2045.0
87.5210000001,2053.0
87.5220000001,2058.0
87.5230000001,2071.0
87.5240000001,2080.0
87.5250000001,2090.0
87.5260000001,2091.0
87.5270000001,2084.0
87.5280000001,2090.0
87.5290000001,2106.0
87.5300000001,2102.0
87.5310000001,2100.0
87.5320000001,2103.0
87.5330000001,2105.0
87.5340000001,2124.0
87.5350000001,2117.0
87.5360000001,2105.0
87.5370000001,2110.0
87.5380000001,2125.0
87.5390000001,2114.0
87.5400000001,2119.0
87.5410000001,2114.0
87.5420000001,2101.0
87.5430000001,2099.0
87.5440000001,2098.0
87.5450000001,2101.0
87.5460000001,2112.0
87.5470000001,2119.0
87.5480000001,2108.0
87.5490000001,2103.0
87.5500000001,2092.0
87.5510000001,2091.0
87.5520000001,2088.0
87.5530000001,2093.0
87.5540000001,2097.0
87.5550000001,2106.0
87.5560000001,2092.0
87.5570000001,2080.0
87.5580000001,2080.0
87.5590000001,2065.0
87.5600000001,2066.0
87.5610000001,2068.0
87.5620000001,2077.0
87.5630000001,2081.0
87.5640000001,2079.0
87.5650000001,2054.0
87.5660000001,2027.0
87.5670000001,2021.0
87.5680000001,2038.0
87.5690000001,2065.0
87.5700000001,2058.0
87.5710000001,2067.0
87.5720000001,2057.0
87.5730000001,2048.0
87.5740000001,2044.0
87.5750000001,2026.0
87.5760000001,2037.0
87.5770000001,2035.0
87.5780000001,2040.0
87.5790000001,2058.0
87.5800000001,2047.0
87.5810000001,2024.0
87.5820000001,2022.0
87.5830000001,2028.0
87.5840000001,2023.0
87.5850000001,2023.0
87.5860000001,2044.0
87.5870000001,2030.0
87.5880000001,2019.0
87.5890000001,2004.0
87.5900000001,2016.0
87.5910000001,2024.0
87.5920000001,2024.0
87.5930000001,2030.0
87.5940000001,2041.0
87.5950000001,2029.0
87.5960000001,2006.0
87.5970000001,1994.0
87.5980000001,1991.0
87.5990000001,1999.0
87.6000000001,2012.0
87.6010000001,2021.0
87.6020000001,2023.0
87.6030000001,2021.0
87.6040000001,2003.0
87.6050000001,1982.0
87.6060000001,1982.0
87.6070000001,1986.0
87.6080000001,2004.0
87.6090000001,2024.0
87.6100000001,2027.0
87.6110000001,2017.0
87.6120000001,2002.0
87.6130000001,1985.0
87.6140000001,1996.0
87.6150000001,2006.0
87.6160000001,2012.0
87.6170000001,2013.0
87.6180000001,2018.0
87.6190000001,2000.0
87.6200000001,1990.0
87.6210000001,1988.0
87.6220000001,1994.0
87.6230000001,2008.0
87.6240000001,2022.0
87.6250000001,2032.0
87.6260000001,2027.0
87.6270000001,2013.0
87.6280000001,2002.0
87.6290000001,1993.0
87.6300000001,1996.0
87.6310000001,2006.0
87.6320000001,2015.0
87.6330000001,2021.0
87.6340000001,2016.0
87.6350000001,1991.0
87.6360000001,1989.0
87.6370000001,1976.0
87.6380000001,1985.0
87.6390000001,1995.0
87.6400000001,2017.0
87.6410000001,2023.0
87.6420000001,2028.0
87.6430000001,2017.0
87.6440000001,2002.0
87.6450000001,1986.0
87.6460000001,2003.0
87.6470000001,2007.0
87.6480000001,2005.0
87.6490000001,2010.0
87.6500000001,2017.0
87.6510000001,2006.0
87.6520000001,1999.0
87.6530000001,1983.0
87.6540000001,2002.0
87.6550000001,2005.0
87.6560000001,2010.0
87.6570000001,2010.0
87.6580000001,2018.0
87.6590000001,2004.0
87.6600000001,1996.0
87.6610000001,1988.0
87.6620000001,1998.0
87.6630000001,2011.0
87.6640000001,2007.0
87.6650000001,2001.0
87.6660000001,2010.0
87.6670000001,2004.0
87.6680000001,2002.0
87.6690000001,1997.0
87.6700000001,2015.0
87.6710000001,2013.0
87.6720000001,2012.0
87.6730000001,2009.0
87.6740000001,1991.0
87.6750000001,1994.0
87.6760000001,1988.0
87.6770000001,1977.0
87.6780000001,2020.0
87.6790000001,2013.0
87.6800000001,2022.0
87.6810000001,2007.0
87.6820000001,2006.0
87.6830000001,2000.0
87.6840000001,1987.0
87.6850000001,1995.0
87.6860000001,2010.0
87.6870000001,2015.0
87.6880000001,2019.0
87.6890000001,1998.0
87.6900000001,1980.0
87.6910000001,1965.0
87.6920000001,1968.0
87.6930000001,1981.0
87.6940000001,2013.0
87.6950000001,2027.0
87.6960000001,2025.0
87.6970000001,2006.0
87.6980000001,1991.0
87.6990000001,1978.0
87.7000000001,1979.0
87.7010000001,1982.0
87.7020000001,2005.0
87.7030000001,2010.0
87.7040000001,2021.0
87.7050000001,2019.0
87.7060000001,2001.0
87.7070000001,1975.0
87.7080000001,1994.0
87.7090000001,2011.0
87.7100000001,2031.0
87.7110000001,2048.0
87.7120000001,2042.0
87.7130000001,2047.0
87.7140000001,2050.0
87.7150000001,2032.0
87.7160000001,2014.0
87.7170000001,2022.0
87.7180000001,2022.0
87.7190000001,2026.0
87.7200000001,2019.0
87.7210000001,2020.0
87.7220000001,2017.0
87.7230000001,2007.0
87.7240000001,2012.0
87.7250000001,2013.0
87.7260000001,2028.0
87.7270000001,2041.0
87.7280000001,2033.0
87.7290000001,2020.0
87.7300000001,2022.0
87.7310000001,2027.0
87.7320000001,2026.0
87.7330000001,2030.0
87.7340000001,2033.0
87.7350000001,2032.0
87.7360000001,2028.0
87.7370000001,2027.0
87.7380000001,2016.0
87.7390000001,2018.0
87.7400000001,2016.0
87.7410000001,1998.0
87.7420000001,1996.0
87.7430000001,1982.0
87.7440000001,1921.0
87.7450000001,1831.0
87.7460000001,1799.0
87.7470000001,1801.0
87.7480000001,1911.0
87.7490000001,2058.0
87.7500000001,2208.0
87.7510000001,2342.0
87.7520000001,2384.0
87.7530000001,2445.0
87.7540000001,2503.0
87.7550000001,2516.0
87.7560000001,2530.0
87.7570000001,2518.0
87.7580000001,2491.0
87.7590000001,2407.0
87.7600000001,2326.0
87.7610000001,2261.0
87.7620000001,2218.0
87.7630000001,2169.0
87.7640000001,2130.0
87.7650000001,2082.0
87.7660000001,2049.0
87.7670000001,1993.0
87.7680000001,1914.0
87.7690000001,1869.0
87.7700000001,1851.0
87.7710000001,1845.0
87.7720000001,1837.0
87.7730000001,1840.0
87.7740000001,1858.0
87.7750000001,1849.0
87.7760000001,1823.0
87.7770000001,1830.0
87.7780000001,1833.0
87.7790000001,1852.0
87.7800000001,1863.0
87.7810000001,1861.0
87.7820000001,1874.0
87.7830000001,1872.0
87.7840000001,1862.0
87.7850000001,1853.0
87.7860000001,1859.0
87.7870000001,1860.0
87.7880000001,1875.0
87.7890000001,1873.0
87.7900000001,1875.0
87.7910000001,1871.0
87.7920000001,1872.0
87.7930000001,1870.0
87.7940000001,1884.0
87.7950000001,1884.0
87.7960000001,1895.0
87.7970000001,1893.0
87.7980000001,1891.0
87.7990000001,1889.0
87.8000000001,1889.0
87.8010000001,1884.0
87.8020000001,1922.0
87.8030000001,1906.0
87.8040000001,1924.0
87.8050000001,1928.0
87.8060000001,1913.0
87.8070000001,1914.0
87.8080000001,1904.0
87.8090000001,1902.0
87.8100000001,1902.0
87.8110000001,1902.0
87.8120000001,1903.0
87.8130000001,1929.0
87.8140000001,1930.0
87.8150000001,1915.0
87.8160000001,1907.0
87.8170000001,1898.0
87.8180000001,1910.0
87.8190000001,1912.0
87.8200000001,1917.0
87.8210000001,1917.0
87.8220000001,1923.0
87.8230000001,1911.0
87.8240000001,1933.0
87.8250000001,1937.0
87.8260000001,1922.0
87.8270000001,1913.0
87.8280000001,1923.0
87.8290000001,1911.0
87.8300000001,1944.0
87.8310000001,1939.0
87.8320000001,1871.0
87.8330000001,1899.0
87.8340000001,1905.0
87.8350000001,1927.0
87.8360000001,1968.0
87.8370000001,1955.0
87.8380000001,1953.0
87.8390000001,1956.0
87.8400000001,1953.0
87.8410000001,1955.0
87.8420000001,1966.0
87.8430000001,1983.0
87.8440000001,2002.0
87.8450000001,2004.0
87.8460000001,2001.0
87.8470000001,2008.0
87.8480000001,2017.0
87.8490000001,2031.0
87.8500000001,2032.0
87.8510000001,2037.0
87.8520000001,2054.0
87.8530000001,2064.0
87.8540000001,2058.0
87.8550000001,2073.0
87.8560000001,2079.0
87.8570000001,2096.0
87.8580000001,2098.0
87.8590000001,2092.0
87.8600000001,2111.0
87.8610000001,2113.0
87.8620000001,2117.0
87.8630000001,2114.0
87.8640000001,2121.0
87.8650000001,2134.0
87.8660000001,2132.0
87.8670000001,2147.0
87.8680000001,2147.0
87.8690000001,2127.0
87.8700000001,2109.0
87.8710000001,2122.0
87.8720000001,2121.0
87.8730000001,2137.0
87.8740000001,2139.0
87.8750000001,2144.0
87.8760000001,2142.0
87.8770000001,2130.0
87.8780000001,2118.0
87.8790000001,2106.0
87.8800000001,2117.0
87.8810000001,2119.0
87.8820000001,2123.0
87.8830000001,2127.0
87.8840000001,2111.0
87.8850000001,2103.0
87.8860000001,2084.0
87.8870000001,2070.0
87.8880000001,2089.0
87.8890000001,2111.0
87.8900000001,2116.0
87.8910000001,2121.0
87.8920000001,2106.0
87.8930000001,2084.0
87.8940000001,2067.0
87.8950000001,2075.0
87.8960000001,2082.0
87.8970000001,2076.0
87.8980000001,2089.0
87.8990000001,2104.0
87.9000000001,2099.0
87.9010000001,2081.0
87.9020000001,2082.0
87.9030000001,2072.0
87.9040000001,2071.0
87.9050000001,2076.0
87.9060000001,2071.0
87.9070000001,2075.0
87.9080000001,2088.0
87.9090000001,2069.0
87.9100000001,2049.0
87.9110000001,2051.0
87.9120000001,2064.0
87.9130000001,2070.0
87.9140000001,2079.0
87.9150000001,2075.0
87.9160000001,2066.0
87.9170000001,2044.0
87.9180000001,2040.0
87.9190000001,2060.0
87.9200000001,2059.0
87.9210000001,2057.0
87.9220000001,2067.0
87.9230000001,2065.0
87.9240000001,2051.0
87.9250000001,2026.0
87.9260000001,1998.0
87.9270000001,2030.0
87.9280000001,2046.0
87.9290000001,2044.0
87.9300000001,2062.0
87.9310000001,2060.0
87.9320000001,2050.0
87.9330000001,2029.0
87.9340000001,2023.0
87.9350000001,2040.0
87.9360000001,2051.0
87.9370000001,2060.0
87.9380000001,2053.0
87.9390000001,2047.0
87.9400000001,2040.0
87.9410000001,2033.0
87.9420000001,2033.0
87.9430000001,2041.0
87.9440000001,2047.0
87.9450000001,2054.0
87.9460000001,2058.0
87.9470000001,2037.0
87.9480000001,2027.0
87.9490000001,2014.0
87.9500000001,2014.0
87.9510000001,2035.0
87.9520000001,2040.0
87.9530000001,2044.0
87.9540000001,2051.0
87.9550000001,2044.0
87.9560000001,2033.0
87.9570000001,2012.0
87.9580000001,2001.0
87.9590000001,2021.0
87.9600000001,2037.0
87.9610000001,2048.0
87.9620000001,2034.0
87.9630000001,2029.0
87.9640000001,2020.0
87.9650000001,2010.0
87.9660000001,2013.0
87.9670000001,2029.0
87.9680000001,2042.0
87.9690000001,2042.0
87.9700000001,2048.0
87.9710000001,2031.0
87.9720000001,2024.0
87.9730000001,2017.0
87.9740000001,2022.0
87.9750000001,2023.0
87.9760000001,2034.0
87.9770000001,2039.0
87.9780000001,2045.0
87.9790000001,2036.0
87.9800000001,2030.0
87.9810000001,2026.0
87.9820000001,2028.0
87.9830000001,2043.0
87.9840000001,2030.0
87.9850000001,2017.0
87.9860000001,2020.0
87.9870000001,2025.0
87.9880000001,2019.0
87.9890000001,2031.0
87.9900000001,2040.0
87.9910000001,2047.0
87.9920000001,2044.0
87.9930000001,2038.0
87.9940000001,2029.0
87.9950000001,2015.0
87.9960000001,2018.0
87.9970000001,2025.0
87.9980000001,2018.0
87.9990000001,2034.0
88.0000000001,2040.0
88.0010000001,2026.0
88.0020000001,2022.0
88.0030000001,2022.0
88.0040000001,2030.0
88.0050000001,2030.0
88.0060000001,2032.0
88.0070000001,2030.0
88.0080000001,2036.0
88.0090000001,2025.0
88.0100000001,2010.0
88.0110000001,2008.0
88.0120000001,2021.0
88.0130000001,2043.0
88.0140000001,2047.0
88.0150000001,2054.0
88.0160000001,2054.0
88.0170000001,2037.0
88.0180000001,2015.0
88.0190000001,2009.0
88.0200000001,2016.0
88.0210000001,2035.0
88.0220000001,2043.0
88.0230000001,2047.0
88.0240000001,2049.0
88.0250000001,2020.0
88.0260000001,2012.0
88.0270000001,2028.0
88.0280000001,2029.0
88.0290000001,2025.0
88.0300000001,2025.0
88.0310000001,2031.0
88.0320000001,2024.0
88.0330000001,2014.0
88.0340000001,2015.0
88.0350000001,2014.0
88.0360000001,2020.0
88.0370000001,2011.0
88.0380000001,2007.0
88.0390000001,2005.0
88.0400000001,2016.0
88.0410000001,2017.0
88.0420000001,2021.0
88.0430000001,2017.0
88.0440000001,2034.0
88.0450000001,2046.0
88.0460000001,2042.0
88.0470000001,2049.0
88.0480000001,2049.0
88.0490000001,2031.0
88.0500000001,2033.0
88.0510000001,2044.0
88.0520000001,2043.0
88.0530000001,2038.0
88.0540000001,2039.0
88.0550000001,2049.0
88.0560000001,2054.0
88.0570000001,2050.0
88.0580000001,2038.0
88.0590000001,2043.0
88.0600000001,2057.0
88.0610000001,2032.0
88.0620000001,2027.0
88.0630000001,2040.0
88.0640000001,2043.0
88.0650000001,2037.0
88.0660000001,2046.0
88.0670000001,2040.0
88.0680000001,2037.0
88.0690000001,2045.0
88.0700000001,2059.0
88.0710000001,2071.0
88.0720000001,2059.0
88.0730000001,2040.0
88.0740000001,2036.0
88.0750000001,2040.0
88.0760000001,2052.0
88.0770000001,2046.0
88.0780000001,2049.0
88.0790000001,2032.0
88.0800000001,2022.0
88.0810000001,2007.0
88.0820000001,2014.0
88.0830000001,2032.0
88.0840000001,2042.0
88.0850000001,1995.0
88.0860000001,1927.0
88.0870000001,1850.0
88.0880000001,1818.0
88.0890000001,1821.0
88.0900000001,1922.0
88.0910000001,2086.0
88.0920000001,2251.0
88.0930000001,2366.0
88.0940000001,2415.0
88.0950000001,2484.0
88.0960000001,2539.0
88.0970000001,2554.0
88.0980000001,2560.0
88.0990000001,2543.0
88.1000000001,2508.0
88.1010000001,2423.0
88.1020000001,2345.0
88.1030000001,2279.0
88.1040000001,2214.0
88.1050000001,2148.0
88.1060000001,2085.0
88.1070000001,2061.0
88.1080000001,2036.0
88.1090000001,1979.0
88.1100000001,1928.0
88.1110000001,1891.0
88.1120000001,1860.0
88.1130000001,1837.0
88.1140000001,1849.0
88.1150000001,1851.0
88.1160000001,1866.0
88.1170000001,1864.0
88.1180000001,1856.0
88.1190000001,1853.0
88.1200000001,1849.0
88.1210000001,1844.0
88.1220000001,1866.0
88.1230000001,1889.0
88.1240000001,1899.0
88.1250000001,1893.0
88.1260000001,1888.0
88.1270000001,1872.0
88.1280000001,1875.0
88.1290000001,1872.0
88.1300000001,1887.0
88.1310000001,1902.0
88.1320000001,1902.0
88.1330000001,1907.0
88.1340000001,1884.0
88.1350000001,1881.0
88.1360000001,1894.0
88.1370000001,1904.0
88.1380000001,1912.0
88.1390000001,1917.0
88.1400000001,1926.0
88.1410000001,1926.0
88.1420000001,1912.0
88.1430000001,1905.0
88.1440000001,1904.0
88.1450000001,1903.0
88.1460000001,1912.0
88.1470000001,1918.0
88.1480000001,1940.0
88.1490000001,1942.0
88.1500000001,1927.0
88.1510000001,1911.0
88.1520000001,1912.0
88.1530000001,1927.0
88.1540000001,1943.0
88.1550000001,1949.0
88.1560000001,1940.0
88.1570000001,1931.0
88.1580000001,1923.0
88.1590000001,1905.0
88.1600000001,1911.0
88.1610000001,1908.0
88.1620000001,1906.0
88.1630000001,1919.0
88.1640000001,1929.0
88.1650000001,1942.0
88.1660000001,1922.0
88.1670000001,1913.0
88.1680000001,1920.0
88.1690000001,1938.0
88.1700000001,1942.0
88.1710000001,1955.0
88.1720000001,1956.0
88.1730000001,1950.0
88.1740000001,1930.0
88.1750000001,1914.0
88.1760000001,1914.0
88.1770000001,1930.0
88.1780000001,1941.0
88.1790000001,1960.0
88.1800000001,1972.0
88.1810000001,1966.0
88.1820000001,1957.0
88.1830000001,1963.0
88.1840000001,1976.0
88.1850000001,2005.0
88.1860000001,2013.0
88.1870000001,2030.0
88.1880000001,2029.0
88.1890000001,2026.0
88.1900000001,2015.0
88.1910000001,2016.0
88.1920000001,2047.0
88.1930000001,2059.0
88.1940000001,2079.0
88.1950000001,2092.0
88.1960000001,2106.0
88.1970000001,2102.0
88.1980000001,2093.0
88.1990000001,2075.0
88.2000000001,2097.0
88.2010000001,2104.0
88.2020000001,2115.0
88.2030000001,2138.0
88.2040000001,2128.0
88.2050000001,2122.0
88.2060000001,2121.0
88.2070000001,2133.0
88.2080000001,2139.0
88.2090000001,2142.0
88.2100000001,2155.0
88.2110000001,2155.0
88.2120000001,2148.0
88.2130000001,2143.0
88.2140000001,2143.0
88.2150000001,2133.0
88.2160000001,2150.0
88.2170000001,2150.0
88.2180000001,2156.0
88.2190000001,2146.0
88.2200000001,2152.0
88.2210000001,2139.0
88.2220000001,2117.0
88.2230000001,2120.0
88.2240000001,2132.0
88.2250000001,2130.0
88.2260000001,2130.0
88.2270000001,2134.0
88.2280000001,2143.0
88.2290000001,2123.0
88.2300000001,2123.0
88.2310000001,2111.0
88.2320000001,2131.0
88.2330000001,2126.0
88.2340000001,2141.0
88.2350000001,2127.0
88.2360000001,2127.0
88.2370000001,2114.0
88.2380000001,2102.0
88.2390000001,2091.0
88.2400000001,2109.0
88.2410000001,2109.0
88.2420000001,2112.0
88.2430000001,2102.0
88.2440000001,2095.0
88.2450000001,2082.0
88.2460000001,2076.0
88.2470000001,2066.0
88.2480000001,2086.0
88.2490000001,2088.0
88.2500000001,2092.0
88.2510000001,2092.0
88.2520000001,2077.0
88.2530000001,2060.0
88.2540000001,2062.0
88.2550000001,2066.0
88.2560000001,2079.0
88.2570000001,2077.0
88.2580000001,2077.0
88.2590000001,2061.0
88.2600000001,2058.0
88.2610000001,2049.0
88.2620000001,2055.0
88.2630000001,2065.0
88.2640000001,2067.0
88.2650000001,2059.0
88.2660000001,2051.0
88.2670000001,2045.0
88.2680000001,2041.0
88.2690000001,2015.0
88.2700000001,2031.0
88.2710000001,2038.0
88.2720000001,2074.0
88.2730000001,2076.0
88.2740000001,2078.0
88.2750000001,2070.0
88.2760000001,2050.0
88.2770000001,2036.0
88.2780000001,2034.0
88.2790000001,2044.0
88.2800000001,2050.0
88.2810000001,2071.0
88.2820000001,2069.0
88.2830000001,2052.0
88.2840000001,2047.0
88.2850000001,2042.0
88.2860000001,2044.0
88.2870000001,2038.0
88.2880000001,2050.0
88.2890000001,2046.0
88.2900000001,2039.0
88.2910000001,2032.0
88.2920000001,2039.0
88.2930000001,2042.0
88.2940000001,2051.0
88.2950000001,2049.0
88.2960000001,2060.0
88.2970000001,2060.0
88.2980000001,2051.0
88.2990000001,2042.0
88.3000000001,2032.0
88.3010000001,2024.0
88.3020000001,2026.0
88.3030000001,2024.0
88.3040000001,2053.0
88.3050000001,2058.0
88.3060000001,2036.0
88.3070000001,2042.0
88.3080000001,2019.0
88.3090000001,2078.0
88.3100000001,2033.0
88.3110000001,2044.0
88.3120000001,2048.0
88.3130000001,2040.0
88.3140000001,2054.0
88.3150000001,2057.0
88.3160000001,2027.0
88.3170000001,2065.0
88.3180000001,2068.0
88.3190000001,2058.0
88.3200000001,2046.0
88.3210000001,2044.0
88.3220000001,2027.0
88.3230000001,2034.0
88.3240000001,2022.0
88.3250000001,2031.0
88.3260000001,2038.0
88.3270000001,2051.0
88.3280000001,2071.0
88.3290000001,2049.0
88.3300000001,2039.0
88.3310000001,2025.0
88.3320000001,2016.0
88.3330000001,2042.0
88.3340000001,2036.0
88.3350000001,2030.0
88.3360000001,2039.0
88.3370000001,2029.0
88.3380000001,2027.0
88.3390000001,2021.0
88.3400000001,2032.0
88.3410000001,2035.0
88.3420000001,2039.0
88.3430000001,2028.0
88.3440000001,2043.0
88.3450000001,2040.0
88.3460000001,2036.0
88.3470000001,2033.0
88.3480000001,2033.0
88.3490000001,2030.0
88.3500000001,2030.0
88.3510000001,2029.0
88.3520000001,2027.0
88.3530000001,2028.0
88.3540000001,2018.0
88.3550000001,2011.0
88.3560000001,2021.0
88.3570000001,2031.0
88.3580000001,2028.0
88.3590000001,2028.0
88.3600000001,2025.0
88.3610000001,2022.0
88.3620000001,2012.0
88.3630000001,2005.0
88.3640000001,2012.0
88.3650000001,2015.0
88.3660000001,2035.0
88.3670000001,2026.0
88.3680000001,2040.0
88.3690000001,2021.0
88.3700000001,2012.0
88.3710000001,2007.0
88.3720000001,2019.0
88.3730000001,2029.0
88.3740000001,2026.0
88.3750000001,1996.0
88.3760000001,1973.0
88.3770000001,1962.0
88.3780000001,1978.0
88.3790000001,2007.0
88.3800000001,2038.0
88.3810000001,2051.0
88.3820000001,2034.0
88.3830000001,2015.0
88.3840000001,2020.0
88.3850000001,1998.0
88.3860000001,1996.0
88.3870000001,1999.0
88.3880000001,2019.0
88.3890000001,2016.0
88.3900000001,2026.0
88.3910000001,2014.0
88.3920000001,2017.0
88.3930000001,2016.0
88.3940000001,2017.0
88.3950000001,2024.0
88.3960000001,2042.0
88.3970000001,2048.0
88.3980000001,2049.0
88.3990000001,2032.0
88.4000000001,2027.0
88.4010000001,2020.0
88.4020000001,2024.0
88.4030000001,2031.0
88.4040000001,2037.0
88.4050000001,2035.0
88.4060000001,2040.0
88.4070000001,2031.0
88.4080000001,2024.0
88.4090000001,2015.0
88.4100000001,2008.0
88.4110000001,2019.0
88.4120000001,2022.0
88.4130000001,2046.0
88.4140000001,2057.0
88.4150000001,2042.0
88.4160000001,2037.0
88.4170000001,2015.0
88.4180000001,1999.0
88.4190000001,2004.0
88.4200000001,2042.0
88.4210000001,2060.0
88.4220000001,2062.0
88.4230000001,2050.0
88.4240000001,2027.0
88.4250000001,2025.0
88.4260000001,2018.0
88.4270000001,1991.0
88.4280000001,1956.0
88.4290000001,1906.0
88.4300000001,1818.0
88.4310000001,1779.0
88.4320000001,1804.0
88.4330000001,1928.0
88.4340000001,2097.0
88.4350000001,2248.0
88.4360000001,2346.0
88.4370000001,2415.0
88.4380000001,2470.0
88.4390000001,2490.0
88.4400000001,2516.0
88.4410000001,2526.0
88.4420000001,2509.0
88.4430000001,2451.0
88.4440000001,2368.0
88.4450000001,2300.0
88.4460000001,2233.0
88.4470000001,2182.0
88.4480000001,2136.0
88.4490000001,2105.0
88.4500000001,2093.0
88.4510000001,2053.0
88.4520000001,2018.0
88.4530000001,1964.0
88.4540000001,1913.0
88.4550000001,1857.0
88.4560000001,1839.0
88.4570000001,1840.0
88.4580000001,1862.0
88.4590000001,1875.0
88.4600000001,1871.0
88.4610000001,1877.0
88.4620000001,1858.0
88.4630000001,1838.0
88.4640000001,1854.0
88.4650000001,1886.0
88.4660000001,1892.0
88.4670000001,1888.0
88.4680000001,1896.0
88.4690000001,1890.0
88.4700000001,1881.0
88.4710000001,1870.0
88.4720000001,1856.0
88.4730000001,1872.0
88.4740000001,1884.0
88.4750000001,1909.0
88.4760000001,1917.0
88.4770000001,1926.0
88.4780000001,1909.0
88.4790000001,1895.0
88.4800000001,1904.0
88.4810000001,1919.0
88.4820000001,1922.0
88.4830000001,1927.0
88.4840000001,1933.0
88.4850000001,1921.0
88.4860000001,1908.0
88.4870000001,1908.0
88.4880000001,1908.0
88.4890000001,1926.0
88.4900000001,1931.0
88.4910000001,1935.0
88.4920000001,1949.0
88.4930000001,1937.0
88.4940000001,1940.0
88.4950000001,1936.0
88.4960000001,1921.0
88.4970000001,1935.0
88.4980000001,1952.0
88.4990000001,1950.0
88.5000000001,1958.0
88.5010000001,1951.0
88.5020000001,1942.0
88.5030000001,1931.0
88.5040000001,1929.0
88.5050000001,1935.0
88.5060000001,1939.0
88.5070000001,1950.0
88.5080000001,1945.0
88.5090000001,1945.0
88.5100000001,1935.0
88.5110000001,1906.0
88.5120000001,1914.0
88.5130000001,1933.0
88.5140000001,1950.0
88.5150000001,1964.0
88.5160000001,1960.0
88.5170000001,1946.0
88.5180000001,1956.0
88.5190000001,1944.0
88.5200000001,1948.0
88.5210000001,1955.0
88.5220000001,1977.0
88.5230000001,2006.0
88.5240000001,2003.0
88.5250000001,1989.0
88.5260000001,1978.0
88.5270000001,1982.0
88.5280000001,1991.0
88.5290000001,2028.0
88.5300000001,2038.0
88.5310000001,2042.0
88.5320000001,2048.0
88.5330000001,2053.0
88.5340000001,2063.0
88.5350000001,2066.0
88.5360000001,2080.0
88.5370000001,2109.0
88.5380000001,2109.0
88.5390000001,2113.0
88.5400000001,2111.0
88.5410000001,2109.0
88.5420000001,2110.0
88.5430000001,2116.0
88.5440000001,2121.0
88.5450000001,2139.0
88.5460000001,2144.0
88.5470000001,2143.0
88.5480000001,2142.0
88.5490000001,2133.0
88.5500000001,2130.0
88.5510000001,2138.0
88.5520000001,2141.0
88.5530000001,2151.0
88.5540000001,2151.0
88.5550000001,2139.0
88.5560000001,2138.0
88.5570000001,2123.0
88.5580000001,2128.0
88.5590000001,2129.0
88.5600000001,2134.0
88.5610000001,2149.0
88.5620000001,2173.0
88.5630000001,2155.0
88.5640000001,2116.0
88.5650000001,2096.0
88.5660000001,2093.0
88.5670000001,2106.0
88.5680000001,2115.0
88.5690000001,2140.0
88.5700000001,2146.0
88.5710000001,2138.0
88.5720000001,2132.0
88.5730000001,2121.0
88.5740000001,2119.0
88.5750000001,2109.0
88.5760000001,2105.0
88.5770000001,2109.0
88.5780000001,2117.0
88.5790000001,2107.0
88.5800000001,2087.0
88.5810000001,2087.0
88.5820000001,2094.0
88.5830000001,2090.0
88.5840000001,2087.0
88.5850000001,2098.0
88.5860000001,2101.0
88.5870000001,2085.0
88.5880000001,2076.0
88.5890000001,2063.0
88.5900000001,2060.0
88.5910000001,2062.0
88.5920000001,2070.0
88.5930000001,2079.0
88.5940000001,2068.0
88.5950000001,2059.0
88.5960000001,2058.0
88.5970000001,2050.0
88.5980000001,2065.0
88.5990000001,2070.0
88.6000000001,2073.0
88.6010000001,2077.0
88.6020000001,2058.0
88.6030000001,2044.0
88.6040000001,2040.0
88.6050000001,2046.0
88.6060000001,2049.0
88.6070000001,2045.0
88.6080000001,2043.0
88.6090000001,2070.0
88.6100000001,2059.0
88.6110000001,2041.0
88.6120000001,2043.0
88.6130000001,2051.0
88.6140000001,2063.0
88.6150000001,2062.0
88.6160000001,2060.0
88.6170000001,2053.0
88.6180000001,2050.0
88.6190000001,2021.0
88.6200000001,2031.0
88.6210000001,2042.0
88.6220000001,2062.0
88.6230000001,2067.0
88.6240000001,2058.0
88.6250000001,2049.0
88.6260000001,2045.0
88.6270000001,2036.0
88.6280000001,2034.0
88.6290000001,2034.0
88.6300000001,2053.0
88.6310000001,2040.0
88.6320000001,2055.0
88.6330000001,2065.0
88.6340000001,2060.0
88.6350000001,2038.0
88.6360000001,2036.0
88.6370000001,2049.0
88.6380000001,2051.0
88.6390000001,2060.0
88.6400000001,2055.0
88.6410000001,2048.0
88.6420000001,2030.0
88.6430000001,2020.0
88.6440000001,2029.0
88.6450000001,2043.0
88.6460000001,2062.0
88.6470000001,2059.0
88.6480000001,2062.0
88.6490000001,2055.0
88.6500000001,2040.0
88.6510000001,2032.0
88.6520000001,2016.0
88.6530000001,2018.0
88.6540000001,2030.0
88.6550000001,2039.0
88.6560000001,2059.0
88.6570000001,2083.0
88.6580000001,2053.0
88.6590000001,2035.0
88.6600000001,2037.0
88.6610000001,2046.0
88.6620000001,2055.0
88.6630000001,2061.0
88.6640000001,2043.0
88.6650000001,2047.0
88.6660000001,2045.0
88.6670000001,2036.0
88.6680000001,2042.0
88.6690000001,2054.0
88.6700000001,2057.0
88.6710000001,2067.0
88.6720000001,2050.0
88.6730000001,2036.0
88.6740000001,2043.0
88.6750000001,2027.0
88.6760000001,2053.0
88.6770000001,2055.0
88.6780000001,2055.0
88.6790000001,2071.0
88.6800000001,2042.0
88.6810000001,2027.0
88.6820000001,2022.0
88.6830000001,2021.0
88.6840000001,2036.0
88.6850000001,2061.0
88.6860000001,2078.0
88.6870000001,2078.0
88.6880000001,2048.0
88.6890000001,2038.0
88.6900000001,2058.0
88.6910000001,2055.0
88.6920000001,2051.0
88.6930000001,2060.0
88.6940000001,2058.0
88.6950000001,2054.0
88.6960000001,2031.0
88.6970000001,2032.0
88.6980000001,2036.0
88.6990000001,2034.0
88.7000000001,2050.0
88.7010000001,2047.0
88.7020000001,2061.0
88.7030000001,2042.0
88.7040000001,2047.0
88.7050000001,2049.0
88.7060000001,2057.0
88.7070000001,2058.0
88.7080000001,2072.0
88.7090000001,2070.0
88.7100000001,2077.0
88.7110000001,2079.0
88.7120000001,2058.0
88.7130000001,2061.0
88.7140000001,2067.0
88.7150000001,2062.0
88.7160000001,2074.0
88.7170000001,2083.0
88.7180000001,2085.0
88.7190000001,2077.0
88.7200000001,2056.0
88.7210000001,2045.0
88.7220000001,2048.0
88.7230000001,2063.0
88.7240000001,2089.0
88.7250000001,2102.0
88.7260000001,2102.0
88.7270000001,2081.0
88.7280000001,2074.0
88.7290000001,2081.0
88.7300000001,2076.0
88.7310000001,2080.0
88.7320000001,2084.0
88.7330000001,2074.0
88.7340000001,2074.0
88.7350000001,2077.0
88.7360000001,2066.0
88.7370000001,2062.0
88.7380000001,2058.0
88.7390000001,2052.0
88.7400000001,2054.0
88.7410000001,2048.0
88.7420000001,2028.0
88.7430000001,1962.0
88.7440000001,1902.0
88.7450000001,1825.0
88.7460000001,1801.0
88.7470000001,1848.0
88.7480000001,1980.0
88.7490000001,2134.0
88.7500000001,2265.0
88.7510000001,2343.0
88.7520000001,2419.0
88.7530000001,2472.0
88.7540000001,2505.0
88.7550000001,2527.0
88.7560000001,2553.0
88.7570000001,2548.0
88.7580000001,2514.0
88.7590000001,2429.0
88.7600000001,2350.0
88.7610000001,2293.0
88.7620000001,2277.0
88.7630000001,2245.0
88.7640000001,2225.0
88.7650000001,2189.0
88.7660000001,2142.0
88.7670000001,2091.0
88.7680000001,2027.0
88.7690000001,1982.0
88.7700000001,1981.0
88.7710000001,1958.0
88.7720000001,1936.0
88.7730000001,1935.0
88.7740000001,1968.0
88.7750000001,1941.0
88.7760000001,1937.0
88.7770000001,1952.0
88.7780000001,1974.0
88.7790000001,1974.0
88.7800000001,1973.0
88.7810000001,1965.0
88.7820000001,1960.0
88.7830000001,1953.0
88.7840000001,1949.0
88.7850000001,1956.0
88.7860000001,1983.0
88.7870000001,1994.0
88.7880000001,1998.0
88.7890000001,2021.0
88.7900000001,1983.0
88.7910000001,1972.0
88.7920000001,1980.0
88.7930000001,2002.0
88.7940000001,2006.0
88.7950000001,2035.0
88.7960000001,2007.0
88.7970000001,1997.0
88.7980000001,1955.0
88.7990000001,1976.0
88.8000000001,1934.0
88.8010000001,1984.0
88.8020000001,1998.0
88.8030000001,2014.0
88.8040000001,1972.0
88.8050000001,2003.0
88.8060000001,1977.0
88.8070000001,1980.0
88.8080000001,1964.0
88.8090000001,2004.0
88.8100000001,2022.0
88.8110000001,2009.0
88.8120000001,2001.0
88.8130000001,1988.0
88.8140000001,1991.0
88.8150000001,1991.0
88.8160000001,1989.0
88.8170000001,1993.0
88.8180000001,1997.0
88.8190000001,2001.0
88.8200000001,1998.0
88.8210000001,1982.0
88.8220000001,1985.0
88.8230000001,1983.0
88.8240000001,1976.0
88.8250000001,1973.0
88.8260000001,1980.0
88.8270000001,1992.0
88.8280000001,1988.0
88.8290000001,1989.0
88.8300000001,1985.0
88.8310000001,1975.0
88.8320000001,1980.0
88.8330000001,2002.0
88.8340000001,2010.0
88.8350000001,2013.0
88.8360000001,2015.0
88.8370000001,1998.0
88.8380000001,2012.0
88.8390000001,2023.0
88.8400000001,2028.0
88.8410000001,2031.0
88.8420000001,2044.0
88.8430000001,2062.0
88.8440000001,2067.0
88.8450000001,2072.0
88.8460000001,2069.0
88.8470000001,2074.0
88.8480000001,2083.0
88.8490000001,2082.0
88.8500000001,2102.0
88.8510000001,2126.0
88.8520000001,2139.0
88.8530000001,2132.0
88.8540000001,2133.0
88.8550000001,2129.0
88.8560000001,2136.0
88.8570000001,2132.0
88.8580000001,2139.0
88.8590000001,2145.0
88.8600000001,2143.0
88.8610000001,2145.0
88.8620000001,2137.0
88.8630000001,2143.0
88.8640000001,2151.0
88.8650000001,2147.0
88.8660000001,2159.0
88.8670000001,2164.0
88.8680000001,2149.0
88.8690000001,2136.0
88.8700000001,2141.0
88.8710000001,2141.0
88.8720000001,2145.0
88.8730000001,2149.0
88.8740000001,2157.0
88.8750000001,2139.0
88.8760000001,2129.0
88.8770000001,2122.0
88.8780000001,2140.0
88.8790000001,2143.0
88.8800000001,2149.0
88.8810000001,2144.0
88.8820000001,2148.0
88.8830000001,2135.0
88.8840000001,2128.0
88.8850000001,2115.0
88.8860000001,2114.0
88.8870000001,2126.0
88.8880000001,2152.0
88.8890000001,2132.0
88.8900000001,2141.0
88.8910000001,2119.0
88.8920000001,2113.0
88.8930000001,2113.0
88.8940000001,2110.0
88.8950000001,2118.0
88.8960000001,2129.0
88.8970000001,2124.0
88.8980000001,2130.0
88.8990000001,2101.0
88.9000000001,2102.0
88.9010000001,2103.0
88.9020000001,2108.0
88.9030000001,2122.0
88.9040000001,2108.0
88.9050000001,2082.0
88.9060000001,2089.0
88.9070000001,2050.0
88.9080000001,2041.0
88.9090000001,2050.0
88.9100000001,2062.0
88.9110000001,2069.0
88.9120000001,2060.0
88.9130000001,2038.0
88.9140000001,2025.0
88.9150000001,2013.0
88.9160000001,2007.0
88.9170000001,1997.0
88.9180000001,2000.0
88.9190000001,1990.0
88.9200000001,1977.0
88.9210000001,1948.0
88.9220000001,1944.0
88.9230000001,1923.0
88.9240000001,1913.0
88.9250000001,1912.0
88.9260000001,1914.0
88.9270000001,1902.0
88.9280000001,1883.0
88.9290000001,1843.0
88.9300000001,1848.0
88.9310000001,1830.0
88.9320000001,1822.0
88.9330000001,1821.0
88.9340000001,1830.0
88.9350000001,1814.0
88.9360000001,1788.0
88.9370000001,1750.0
88.9380000001,1735.0
88.9390000001,1709.0
88.9400000001,1706.0
88.9410000001,1697.0
88.9420000001,1697.0
88.9430000001,1688.0
88.9440000001,1678.0
88.9450000001,1648.0
88.9460000001,1614.0
88.9470000001,1604.0
88.9480000001,1584.0
88.9490000001,1580.0
88.9500000001,1576.0
88.9510000001,1560.0
88.9520000001,1518.0
88.9530000001,1486.0
88.9540000001,1457.0
88.9550000001,1443.0
88.9560000001,1438.0
88.9570000001,1433.0
88.9580000001,1427.0
88.9590000001,1394.0
88.9600000001,1370.0
88.9610000001,1337.0
88.9620000001,1309.0
88.9630000001,1303.0
88.9640000001,1290.0
88.9650000001,1288.0
88.9660000001,1278.0
88.9670000001,1275.0
88.9680000001,1231.0
88.9690000001,1173.0
88.9700000001,1170.0
88.9710000001,1154.0
88.9720000001,1156.0
88.9730000001,1161.0
88.9740000001,1154.0
88.9750000001,1135.0
88.9760000001,1100.0
88.9770000001,1072.0
88.9780000001,1070.0
88.9790000001,1071.0
88.9800000001,1087.0
88.9810000001,1093.0
88.9820000001,1083.0
88.9830000001,1048.0
88.9840000001,1017.0
88.9850000001,974.0
88.9860000001,974.0
88.9870000001,991.0
88.9880000001,999.0
88.9890000001,1004.0
88.9900000001,1003.0
88.9910000001,969.0
88.9920000001,941.0
88.9930000001,910.0
88.9940000001,921.0
88.9950000001,948.0
88.9960000001,948.0
88.9970000001,962.0
88.9980000001,960.0
88.9990000001,938.0
89.0000000001,896.0
89.0010000001,867.0
89.0020000001,874.0
89.0030000001,874.0
89.0040000001,912.0
89.0050000001,913.0
89.0060000001,904.0
89.0070000001,899.0
89.0080000001,894.0
89.0090000001,869.0
89.0100000001,885.0
89.0110000001,891.0
89.0120000001,903.0
89.0130000001,916.0
89.0140000001,910.0
89.0150000001,885.0
89.0160000001,867.0
89.0170000001,846.0
89.0180000001,867.0
89.0190000001,893.0
89.0200000001,923.0
89.0210000001,928.0
89.0220000001,931.0
89.0230000001,921.0
89.0240000001,903.0
89.0250000001,900.0
89.0260000001,912.0
89.0270000001,942.0
89.0280000001,952.0
89.0290000001,954.0
89.0300000001,938.0
89.0310000001,923.0
89.0320000001,940.0
89.0330000001,931.0
89.0340000001,949.0
89.0350000001,986.0
89.0360000001,1003.0
89.0370000001,986.0
89.0380000001,978.0
89.0390000001,958.0
89.0400000001,972.0
89.0410000001,977.0
89.0420000001,1003.0
89.0430000001,1019.0
89.0440000001,1038.0
89.0450000001,1042.0
89.0460000001,1037.0
89.0470000001,1024.0
89.0480000001,1010.0
89.0490000001,1007.0
89.0500000001,1033.0
89.0510000001,1072.0
89.0520000001,1091.0
89.0530000001,1093.0
89.0540000001,1074.0
89.0550000001,1043.0
89.0560000001,1007.0
89.0570000001,945.0
89.0580000001,921.0
89.0590000001,893.0
89.0600000001,902.0
89.0610000001,951.0
89.0620000001,1063.0
89.0630000001,1203.0
89.0640000001,1357.0
89.0650000001,1469.0
89.0660000001,1566.0
89.0670000001,1665.0
89.0680000001,1703.0
89.0690000001,1708.0
89.0700000001,1706.0
89.0710000001,1688.0
89.0720000001,1625.0
89.0730000001,1550.0
89.0740000001,1522.0
89.0750000001,1515.0
89.0760000001,1469.0
89.0770000001,1435.0
89.0780000001,1383.0
89.0790000001,1340.0
89.0800000001,1301.0
89.0810000001,1262.0
89.0820000001,1257.0
89.0830000001,1263.0
89.0840000001,1245.0
89.0850000001,1234.0
89.0860000001,1213.0
89.0870000001,1222.0
89.0880000001,1231.0
89.0890000001,1252.0
89.0900000001,1298.0
89.0910000001,1339.0
89.0920000001,1347.0
89.0930000001,1335.0
89.0940000001,1331.0
89.0950000001,1336.0
89.0960000001,1359.0
89.0970000001,1384.0
89.0980000001,1433.0
89.0990000001,1473.0
89.1000000001,1486.0
89.1010000001,1473.0
89.1020000001,1463.0
89.1030000001,1486.0
89.1040000001,1498.0
89.1050000001,1518.0
89.1060000001,1569.0
89.1070000001,1602.0
89.1080000001,1626.0
89.1090000001,1627.0
89.1100000001,1614.0
89.1110000001,1633.0
89.1120000001,1646.0
89.1130000001,1674.0
89.1140000001,1706.0
89.1150000001,1740.0
89.1160000001,1752.0
89.1170000001,1744.0
89.1180000001,1756.0
89.1190000001,1757.0
89.1200000001,1781.0
89.1210000001,1801.0
89.1220000001,1832.0
89.1230000001,1865.0
89.1240000001,1876.0
89.1250000001,1860.0
89.1260000001,1845.0
89.1270000001,1859.0
89.1280000001,1883.0
89.1290000001,1948.0
89.1300000001,1971.0
89.1310000001,1994.0
89.1320000001,1981.0
89.1330000001,1982.0
89.1340000001,1986.0
89.1350000001,2009.0
89.1360000001,2030.0
89.1370000001,2042.0
89.1380000001,2050.0
89.1390000001,2082.0
89.1400000001,2083.0
89.1410000001,2087.0
89.1420000001,2089.0
89.1430000001,2102.0
89.1440000001,2135.0
89.1450000001,2159.0
89.1460000001,2159.0
89.1470000001,2198.0
89.1480000001,2198.0
89.1490000001,2208.0
89.1500000001,2212.0
89.1510000001,2226.0
89.1520000001,2253.0
89.1530000001,2272.0
89.1540000001,2303.0
89.1550000001,2333.0
89.1560000001,2346.0
89.1570000001,2352.0
89.1580000001,2369.0
89.1590000001,2384.0
89.1600000001,2410.0
89.1610000001,2418.0
89.1620000001,2416.0
89.1630000001,2453.0
89.1640000001,2473.0
89.1650000001,2496.0
89.1660000001,2510.0
89.1670000001,2511.0
89.1680000001,2534.0
89.1690000001,2533.0
89.1700000001,2552.0
89.1710000001,2574.0
89.1720000001,2593.0
89.1730000001,2591.0
89.1740000001,2600.0
89.1750000001,2616.0
89.1760000001,2623.0
89.1770000001,2634.0
89.1780000001,2625.0
89.1790000001,2653.0
89.1800000001,2657.0
89.1810000001,2643.0
89.1820000001,2635.0
89.1830000001,2645.0
89.1840000001,2655.0
89.1850000001,2657.0
89.1860000001,2645.0
89.1870000001,2665.0
89.1880000001,2666.0
89.1890000001,2652.0
89.1900000001,2642.0
89.1910000001,2648.0
89.1920000001,2667.0
89.1930000001,2662.0
89.1940000001,2643.0
89.1950000001,2656.0
89.1960000001,2648.0
89.1970000001,2649.0
89.1980000001,2657.0
89.1990000001,2653.0
89.2000000001,2654.0
89.2010000001,2641.0
89.2020000001,2615.0
89.2030000001,2635.0
89.2040000001,2609.0
89.2050000001,2591.0
89.2060000001,2597.0
89.2070000001,2611.0
89.2080000001,2623.0
89.2090000001,2614.0
89.2100000001,2595.0
89.2110000001,2601.0
89.2120000001,2581.0
89.2130000001,2560.0
89.2140000001,2552.0
89.2150000001,2567.0
89.2160000001,2557.0
89.2170000001,2558.0
89.2180000001,2541.0
89.2190000001,2541.0
89.2200000001,2521.0
89.2210000001,2507.0
89.2220000001,2513.0
89.2230000001,2522.0
89.2240000001,2532.0
89.2250000001,2557.0
89.2260000001,2523.0
89.2270000001,2500.0
89.2280000001,2486.0
89.2290000001,2483.0
89.2300000001,2501.0
89.2310000001,2503.0
89.2320000001,2505.0
89.2330000001,2503.0
89.2340000001,2460.0
89.2350000001,2458.0
89.2360000001,2459.0
89.2370000001,2459.0
89.2380000001,2484.0
89.2390000001,2507.0
89.2400000001,2503.0
89.2410000001,2490.0
89.2420000001,2456.0
89.2430000001,2449.0
89.2440000001,2442.0
89.2450000001,2460.0
89.2460000001,2479.0
89.2470000001,2487.0
89.2480000001,2498.0
89.2490000001,2492.0
89.2500000001,2451.0
89.2510000001,2434.0
89.2520000001,2444.0
89.2530000001,2460.0
89.2540000001,2490.0
89.2550000001,2492.0
89.2560000001,2494.0
89.2570000001,2494.0
89.2580000001,2455.0
89.2590000001,2468.0
89.2600000001,2460.0
89.2610000001,2465.0
89.2620000001,2480.0
89.2630000001,2488.0
89.2640000001,2498.0
89.2650000001,2492.0
89.2660000001,2461.0
89.2670000001,2460.0
89.2680000001,2471.0
89.2690000001,2495.0
89.2700000001,2498.0
89.2710000001,2492.0
89.2720000001,2493.0
89.2730000001,2485.0
89.2740000001,2419.0
89.2750000001,2474.0
89.2760000001,2483.0
89.2770000001,2526.0
89.2780000001,2453.0
89.2790000001,2500.0
89.2800000001,2533.0
89.2810000001,2515.0
89.2820000001,2467.0
89.2830000001,2446.0
89.2840000001,2469.0
89.2850000001,2497.0
89.2860000001,2491.0
89.2870000001,2528.0
89.2880000001,2513.0
89.2890000001,2490.0
89.2900000001,2436.0
89.2910000001,2467.0
89.2920000001,2470.0
89.2930000001,2503.0
89.2940000001,2505.0
89.2950000001,2520.0
89.2960000001,2512.0
89.2970000001,2473.0
89.2980000001,2459.0
89.2990000001,2454.0
89.3000000001,2484.0
89.3010000001,2508.0
89.3020000001,2518.0
89.3030000001,2524.0
89.3040000001,2508.0
89.3050000001,2469.0
89.3060000001,2449.0
89.3070000001,2469.0
89.3080000001,2487.0
89.3090000001,2499.0
89.3100000001,2509.0
89.3110000001,2540.0
89.3120000001,2498.0
89.3130000001,2459.0
89.3140000001,2443.0
89.3150000001,2454.0
89.3160000001,2487.0
89.3170000001,2501.0
89.3180000001,2507.0
89.3190000001,2503.0
89.3200000001,2490.0
89.3210000001,2459.0
89.3220000001,2447.0
89.3230000001,2459.0
89.3240000001,2483.0
89.3250000001,2492.0
89.3260000001,2495.0
89.3270000001,2482.0
89.3280000001,2469.0
89.3290000001,2446.0
89.3300000001,2433.0
89.3310000001,2443.0
89.3320000001,2469.0
89.3330000001,2466.0
89.3340000001,2475.0
89.3350000001,2474.0
89.3360000001,2458.0
89.3370000001,2442.0
89.3380000001,2445.0
89.3390000001,2459.0
89.3400000001,2487.0
89.3410000001,2482.0
89.3420000001,2485.0
89.3430000001,2472.0
89.3440000001,2451.0
89.3450000001,2418.0
89.3460000001,2408.0
89.3470000001,2446.0
89.3480000001,2481.0
89.3490000001,2478.0
89.3500000001,2468.0
89.3510000001,2451.0
89.3520000001,2437.0
89.3530000001,2432.0
89.3540000001,2416.0
89.3550000001,2440.0
89.3560000001,2463.0
89.3570000001,2471.0
89.3580000001,2480.0
89.3590000001,2472.0
89.3600000001,2440.0
89.3610000001,2437.0
89.3620000001,2428.0
89.3630000001,2445.0
89.3640000001,2477.0
89.3650000001,2480.0
89.3660000001,2470.0
89.3670000001,2453.0
89.3680000001,2444.0
89.3690000001,2441.0
89.3700000001,2460.0
89.3710000001,2478.0
89.3720000001,2481.0
89.3730000001,2484.0
89.3740000001,2464.0
89.3750000001,2444.0
89.3760000001,2424.0
89.3770000001,2419.0
89.3780000001,2433.0
89.3790000001,2466.0
89.3800000001,2490.0
89.3810000001,2483.0
89.3820000001,2467.0
89.3830000001,2432.0
89.3840000001,2413.0
89.3850000001,2412.0
89.3860000001,2421.0
89.3870000001,2434.0
89.3880000001,2452.0
89.3890000001,2446.0
89.3900000001,2427.0
89.3910000001,2411.0
89.3920000001,2390.0
89.3930000001,2403.0
89.3940000001,2421.0
89.3950000001,2417.0
89.3960000001,2396.0
89.3970000001,2336.0
89.3980000001,2246.0
89.3990000001,2164.0
89.4000000001,2161.0
89.4010000001,2238.0
89.4020000001,2416.0
89.4030000001,2582.0
89.4040000001,2721.0
89.4050000001,2781.0
89.4060000001,2807.0
89.4070000001,2857.0
89.4080000001,2888.0
89.4090000001,2918.0
89.4100000001,2924.0
89.4110000001,2876.0
89.4120000001,2809.0
89.4130000001,2712.0
89.4140000001,2622.0
89.4150000001,2561.0
89.4160000001,2511.0
89.4170000001,2466.0
89.4180000001,2432.0
89.4190000001,2393.0
89.4200000001,2342.0
89.4210000001,2271.0
89.4220000001,2207.0
89.4230000001,2187.0
89.4240000001,2173.0
89.4250000001,2195.0
89.4260000001,2212.0
89.4270000001,2213.0
89.4280000001,2223.0
89.4290000001,2182.0
89.4300000001,2158.0
89.4310000001,2164.0
89.4320000001,2181.0
89.4330000001,2212.0
89.4340000001,2203.0
89.4350000001,2189.0
89.4360000001,2181.0
89.4370000001,2177.0
89.4380000001,2194.0
89.4390000001,2201.0
89.4400000001,2204.0
89.4410000001,2232.0
89.4420000001,2237.0
89.4430000001,2249.0
89.4440000001,2252.0
89.4450000001,2225.0
89.4460000001,2197.0
89.4470000001,2202.0
89.4480000001,2225.0
89.4490000001,2251.0
89.4500000001,2250.0
89.4510000001,2240.0
89.4520000001,2255.0
89.4530000001,2229.0
89.4540000001,2218.0
89.4550000001,2219.0
89.4560000001,2240.0
89.4570000001,2283.0
89.4580000001,2270.0
89.4590000001,2251.0
89.4600000001,2256.0
89.4610000001,2232.0
89.4620000001,2212.0
89.4630000001,2202.0
89.4640000001,2223.0
89.4650000001,2239.0
89.4660000001,2251.0
89.4670000001,2233.0
89.4680000001,2242.0
89.4690000001,2214.0
89.4700000001,2209.0
89.4710000001,2234.0
89.4720000001,2247.0
89.4730000001,2253.0
89.4740000001,2240.0
89.4750000001,2211.0
89.4760000001,2209.0
89.4770000001,2188.0
89.4780000001,2183.0
89.4790000001,2208.0
89.4800000001,2233.0
89.4810000001,2232.0
89.4820000001,2224.0
89.4830000001,2208.0
89.4840000001,2203.0
89.4850000001,2190.0
89.4860000001,2184.0
89.4870000001,2198.0
89.4880000001,2233.0
89.4890000001,2246.0
89.4900000001,2238.0
89.4910000001,2219.0
89.4920000001,2215.0
89.4930000001,2219.0
89.4940000001,2218.0
89.4950000001,2239.0
89.4960000001,2265.0
89.4970000001,2283.0
89.4980000001,2300.0
89.4990000001,2269.0
89.5000000001,2266.0
89.5010000001,2263.0
89.5020000001,2277.0
89.5030000001,2298.0
89.5040000001,2316.0
89.5050000001,2324.0
89.5060000001,2331.0
89.5070000001,2301.0
89.5080000001,2302.0
89.5090000001,2314.0
89.5100000001,2338.0
89.5110000001,2355.0
89.5120000001,2370.0
89.5130000001,2365.0
89.5140000001,2350.0
89.5150000001,2313.0
89.5160000001,2307.0
89.5170000001,2308.0
89.5180000001,2327.0
89.5190000001,2358.0
89.5200000001,2369.0
89.5210000001,2367.0
89.5220000001,2342.0
89.5230000001,2299.0
89.5240000001,2295.0
89.5250000001,2292.0
89.5260000001,2311.0
89.5270000001,2336.0
89.5280000001,2340.0
89.5290000001,2339.0
89.5300000001,2320.0
89.5310000001,2283.0
89.5320000001,2267.0
89.5330000001,2269.0
89.5340000001,2295.0
89.5350000001,2314.0
89.5360000001,2315.0
89.5370000001,2308.0
89.5380000001,2299.0
89.5390000001,2261.0
89.5400000001,2251.0
89.5410000001,2241.0
89.5420000001,2262.0
89.5430000001,2269.0
89.5440000001,2281.0
89.5450000001,2269.0
89.5460000001,2245.0
89.5470000001,2206.0
89.5480000001,2211.0
89.5490000001,2205.0
89.5500000001,2248.0
89.5510000001,2260.0
89.5520000001,2258.0
89.5530000001,2251.0
89.5540000001,2216.0
89.5550000001,2185.0
89.5560000001,2184.0
89.5570000001,2191.0
89.5580000001,2221.0
89.5590000001,2224.0
89.5600000001,2218.0
89.5610000001,2221.0
89.5620000001,2201.0
89.5630000001,2162.0
89.5640000001,2157.0
89.5650000001,2170.0
89.5660000001,2187.0
89.5670000001,2189.0
89.5680000001,2195.0
89.5690000001,2186.0
89.5700000001,2174.0
89.5710000001,2141.0
89.5720000001,2144.0
89.5730000001,2157.0
89.5740000001,2202.0
89.5750000001,2193.0
89.5760000001,2177.0
89.5770000001,2165.0
89.5780000001,2135.0
89.5790000001,2098.0
89.5800000001,2107.0
89.5810000001,2121.0
89.5820000001,2126.0
89.5830000001,2142.0
89.5840000001,2160.0
89.5850000001,2166.0
89.5860000001,2150.0
89.5870000001,2125.0
89.5880000001,2118.0
89.5890000001,2132.0
89.5900000001,2148.0
89.5910000001,2139.0
89.5920000001,2137.0
89.5930000001,2116.0
89.5940000001,2098.0
89.5950000001,2073.0
89.5960000001,2085.0
89.5970000001,2113.0
89.5980000001,2125.0
89.5990000001,2133.0
89.6000000001,2142.0
89.6010000001,2123.0
89.6020000001,2102.0
89.6030000001,2067.0
89.6040000001,2077.0
89.6050000001,2106.0
89.6060000001,2116.0
89.6070000001,2120.0
89.6080000001,2107.0
89.6090000001,2094.0
89.6100000001,2080.0
89.6110000001,2072.0
89.6120000001,2091.0
89.6130000001,2115.0
89.6140000001,2119.0
89.6150000001,2106.0
89.6160000001,2092.0
89.6170000001,2077.0
89.6180000001,2077.0
89.6190000001,2072.0
89.6200000001,2092.0
89.6210000001,2103.0
89.6220000001,2122.0
89.6230000001,2114.0
89.6240000001,2091.0
89.6250000001,2065.0
89.6260000001,2065.0
89.6270000001,2061.0
89.6280000001,2085.0
89.6290000001,2106.0
89.6300000001,2104.0
89.6310000001,2104.0
89.6320000001,2090.0
89.6330000001,2077.0
89.6340000001,2052.0
89.6350000001,2052.0
89.6360000001,2080.0
89.6370000001,2095.0
89.6380000001,2085.0
89.6390000001,2084.0
89.6400000001,2067.0
89.6410000001,2054.0
89.6420000001,2042.0
89.6430000001,2049.0
89.6440000001,2085.0
89.6450000001,2089.0
89.6460000001,2094.0
89.6470000001,2085.0
89.6480000001,2056.0
89.6490000001,2044.0
89.6500000001,2050.0
89.6510000001,2060.0
89.6520000001,2074.0
89.6530000001,2094.0
89.6540000001,2093.0
89.6550000001,2077.0
89.6560000001,2063.0
89.6570000001,2045.0
89.6580000001,2057.0
89.6590000001,2064.0
89.6600000001,2074.0
89.6610000001,2077.0
89.6620000001,2075.0
89.6630000001,2068.0
89.6640000001,2043.0
89.6650000001,2029.0
89.6660000001,2030.0
89.6670000001,2025.0
89.6680000001,2043.0
89.6690000001,2058.0
89.6700000001,2063.0
89.6710000001,2055.0
89.6720000001,2051.0
89.6730000001,2058.0
89.6740000001,2055.0
89.6750000001,2058.0
89.6760000001,2064.0
89.6770000001,2079.0
89.6780000001,2079.0
89.6790000001,2046.0
89.6800000001,2031.0
89.6810000001,2039.0
89.6820000001,2049.0
89.6830000001,2054.0
89.6840000001,2048.0
89.6850000001,2059.0
89.6860000001,2049.0
89.6870000001,2034.0
89.6880000001,2037.0
89.6890000001,2038.0
89.6900000001,2054.0
89.6910000001,2064.0
89.6920000001,2063.0
89.6930000001,2065.0
89.6940000001,2051.0
89.6950000001,2036.0
89.6960000001,2027.0
89.6970000001,2026.0
89.6980000001,2046.0
89.6990000001,2043.0
89.7000000001,2051.0
89.7010000001,2065.0
89.7020000001,2044.0
89.7030000001,2037.0
89.7040000001,2042.0
89.7050000001,2037.0
89.7060000001,2047.0
89.7070000001,2045.0
89.7080000001,2042.0
89.7090000001,2061.0
89.7100000001,2055.0
89.7110000001,2022.0
89.7120000001,2012.0
89.7130000001,2017.0
89.7140000001,2033.0
89.7150000001,2041.0
89.7160000001,2041.0
89.7170000001,2037.0
89.7180000001,2027.0
89.7190000001,2017.0
89.7200000001,2017.0
89.7210000001,2023.0
89.7220000001,2044.0
89.7230000001,2051.0
89.7240000001,2052.0
89.7250000001,2050.0
89.7260000001,2033.0
89.7270000001,2013.0
89.7280000001,2010.0
89.7290000001,2025.0
89.7300000001,2064.0
89.7310000001,2058.0
89.7320000001,2058.0
89.7330000001,2073.0
89.7340000001,2052.0
89.7350000001,2039.0
89.7360000001,2028.0
89.7370000001,2059.0
89.7380000001,2069.0
89.7390000001,2072.0
89.7400000001,2061.0
89.7410000001,2059.0
89.7420000001,2045.0
89.7430000001,2040.0
89.7440000001,2065.0
89.7450000001,2066.0
89.7460000001,2080.0
89.7470000001,2075.0
89.7480000001,2068.0
89.7490000001,2043.0
89.7500000001,2026.0
89.7510000001,2032.0
89.7520000001,2045.0
89.7530000001,2081.0
89.7540000001,2087.0
89.7550000001,2085.0
89.7560000001,2063.0
89.7570000001,2060.0
89.7580000001,2045.0
89.7590000001,2043.0
89.7600000001,2062.0
89.7610000001,2066.0
89.7620000001,2059.0
89.7630000001,2028.0
89.7640000001,1974.0
89.7650000001,1912.0
89.7660000001,1813.0
89.7670000001,1817.0
89.7680000001,1882.0
89.7690000001,2036.0
89.7700000001,2187.0
89.7710000001,2304.0
89.7720000001,2381.0
89.7730000001,2439.0
89.7740000001,2478.0
89.7750000001,2541.0
89.7760000001,2564.0
89.7770000001,2595.0
89.7780000001,2588.0
89.7790000001,2515.0
89.7800000001,2398.0
89.7810000001,2319.0
89.7820000001,2250.0
89.7830000001,2218.0
89.7840000001,2212.0
89.7850000001,2171.0
89.7860000001,2144.0
89.7870000001,2102.0
89.7880000001,2032.0
89.7890000001,1974.0
89.7900000001,1904.0
89.7910000001,1920.0
89.7920000001,1919.0
89.7930000001,1921.0
89.7940000001,1928.0
89.7950000001,1939.0
89.7960000001,1915.0
89.7970000001,1900.0
89.7980000001,1891.0
89.7990000001,1906.0
89.8000000001,1929.0
89.8010000001,1926.0
89.8020000001,1953.0
89.8030000001,1937.0
89.8040000001,1909.0
89.8050000001,1906.0
89.8060000001,1893.0
89.8070000001,1919.0
89.8080000001,1946.0
89.8090000001,1952.0
89.8100000001,1947.0
89.8110000001,1952.0
89.8120000001,1931.0
89.8130000001,1939.0
89.8140000001,1945.0
89.8150000001,1958.0
89.8160000001,1968.0
89.8170000001,1960.0
89.8180000001,1954.0
89.8190000001,1944.0
89.8200000001,1923.0
89.8210000001,1942.0
89.8220000001,1954.0
89.8230000001,1979.0
89.8240000001,1977.0
89.8250000001,1968.0
89.8260000001,1965.0
89.8270000001,1969.0
89.8280000001,1934.0
89.8290000001,1937.0
89.8300000001,1959.0
89.8310000001,1974.0
89.8320000001,1975.0
89.8330000001,1973.0
89.8340000001,1963.0
89.8350000001,1951.0
89.8360000001,1916.0
89.8370000001,1918.0
89.8380000001,1938.0
89.8390000001,1958.0
89.8400000001,1976.0
89.8410000001,1966.0
89.8420000001,1955.0
89.8430000001,1940.0
89.8440000001,1925.0
89.8450000001,1936.0
89.8460000001,1946.0
89.8470000001,1956.0
89.8480000001,1950.0
89.8490000001,1952.0
89.8500000001,1939.0
89.8510000001,1922.0
89.8520000001,1907.0
89.8530000001,1928.0
89.8540000001,1951.0
89.8550000001,1965.0
89.8560000001,1979.0
89.8570000001,1982.0
89.8580000001,1982.0
89.8590000001,1963.0
89.8600000001,1957.0
89.8610000001,1976.0
89.8620000001,2009.0
89.8630000001,2022.0
89.8640000001,2024.0
89.8650000001,2034.0
89.8660000001,2021.0
89.8670000001,2009.0
89.8680000001,1999.0
89.8690000001,2040.0
89.8700000001,2074.0
89.8710000001,2092.0
89.8720000001,2104.0
89.8730000001,2096.0
89.8740000001,2086.0
89.8750000001,2065.0
89.8760000001,2059.0
89.8770000001,2089.0
89.8780000001,2126.0
89.8790000001,2134.0
89.8800000001,2136.0
89.8810000001,2124.0
89.8820000001,2112.0
89.8830000001,2084.0
89.8840000001,2078.0
89.8850000001,2098.0
89.8860000001,2136.0
89.8870000001,2144.0
89.8880000001,2138.0
89.8890000001,2131.0
89.8900000001,2116.0
89.8910000001,2089.0
89.8920000001,2083.0
89.8930000001,2097.0
89.8940000001,2114.0
89.8950000001,2131.0
89.8960000001,2154.0
89.8970000001,2127.0
89.8980000001,2103.0
89.8990000001,2081.0
89.9000000001,2058.0
89.9010000001,2097.0
89.9020000001,2139.0
89.9030000001,2124.0
89.9040000001,2106.0
89.9050000001,2089.0
89.9060000001,2081.0
89.9070000001,2076.0
89.9080000001,2053.0
89.9090000001,2087.0
89.9100000001,2094.0
89.9110000001,2100.0
89.9120000001,2102.0
89.9130000001,2077.0
89.9140000001,2056.0
89.9150000001,2047.0
89.9160000001,2045.0
89.9170000001,2082.0
89.9180000001,2101.0
89.9190000001,2095.0
89.9200000001,2086.0
89.9210000001,2077.0
89.9220000001,2056.0
89.9230000001,2036.0
89.9240000001,2059.0
89.9250000001,2077.0
89.9260000001,2082.0
89.9270000001,2077.0
89.9280000001,2069.0
89.9290000001,2055.0
89.9300000001,2043.0
89.9310000001,2039.0
89.9320000001,2040.0
89.9330000001,2054.0
89.9340000001,2061.0
89.9350000001,2052.0
89.9360000001,2035.0
89.9370000001,2023.0
89.9380000001,2018.0
89.9390000001,2009.0
89.9400000001,2024.0
89.9410000001,2042.0
89.9420000001,2044.0
89.9430000001,2043.0
89.9440000001,2023.0
89.9450000001,1998.0
89.9460000001,1992.0
89.9470000001,1993.0
89.9480000001,1998.0
89.9490000001,2005.0
89.9500000001,1998.0
89.9510000001,1983.0
89.9520000001,1979.0
89.9530000001,1982.0
89.9540000001,1986.0
89.9550000001,1989.0
89.9560000001,2002.0
89.9570000001,2007.0
89.9580000001,2005.0
89.9590000001,1993.0
89.9600000001,1986.0
89.9610000001,1985.0
89.9620000001,1971.0
89.9630000001,1978.0
89.9640000001,1971.0
89.9650000001,1989.0
89.9660000001,1997.0
89.9670000001,1994.0
89.9680000001,1980.0
89.9690000001,1962.0
89.9700000001,1958.0
89.9710000001,1980.0
89.9720000001,1986.0
89.9730000001,1988.0
89.9740000001,2000.0
89.9750000001,1978.0
89.9760000001,1959.0
89.9770000001,1939.0
89.9780000001,1926.0
89.9790000001,1941.0
89.9800000001,1948.0
89.9810000001,1967.0
89.9820000001,1991.0
89.9830000001,1981.0
89.9840000001,1975.0
89.9850000001,1985.0
89.9860000001,1988.0
89.9870000001,1976.0
89.9880000001,1969.0
89.9890000001,1976.0
89.9900000001,1982.0
89.9910000001,1973.0
89.9920000001,1960.0
89.9930000001,1954.0
89.9940000001,1960.0
89.9950000001,1963.0
89.9960000001,1959.0
89.9970000001,1963.0
89.9980000001,1969.0
89.9990000001,1958.0
90.0000000001,1948.0
90.0010000001,1933.0
90.0020000001,1942.0
90.0030000001,1954.0
90.0040000001,1971.0
90.0050000001,1972.0
90.0060000001,1979.0
90.0070000001,1968.0
90.0080000001,1957.0
90.0090000001,1937.0
90.0100000001,1942.0
90.0110000001,1961.0
90.0120000001,1968.0
90.0130000001,1970.0
90.0140000001,1969.0
90.0150000001,1942.0
90.0160000001,1931.0
90.0170000001,1918.0
90.0180000001,1934.0
90.0190000001,1969.0
90.0200000001,1949.0
90.0210000001,1961.0
90.0220000001,1960.0
90.0230000001,1942.0
90.0240000001,1937.0
90.0250000001,1931.0
90.0260000001,1940.0
90.0270000001,1942.0
90.0280000001,1938.0
90.0290000001,1933.0
90.0300000001,1931.0
90.0310000001,1917.0
90.0320000001,1919.0
90.0330000001,1915.0
90.0340000001,1935.0
90.0350000001,1932.0
90.0360000001,1942.0
90.0370000001,1943.0
90.0380000001,1931.0
90.0390000001,1905.0
90.0400000001,1882.0
90.0410000001,1891.0
90.0420000001,1913.0
90.0430000001,1928.0
90.0440000001,1937.0
90.0450000001,1925.0
90.0460000001,1922.0
90.0470000001,1907.0
90.0480000001,1893.0
90.0490000001,1893.0
90.0500000001,1900.0
90.0510000001,1931.0
90.0520000001,1932.0
90.0530000001,1914.0
90.0540000001,1909.0
90.0550000001,1901.0
90.0560000001,1905.0
90.0570000001,1915.0
90.0580000001,1934.0
90.0590000001,1919.0
90.0600000001,1938.0
90.0610000001,1916.0
90.0620000001,1933.0
90.0630000001,1943.0
90.0640000001,1938.0
90.0650000001,1933.0
90.0660000001,1931.0
90.0670000001,1938.0
90.0680000001,1951.0
90.0690000001,1935.0
90.0700000001,1941.0
90.0710000001,1927.0
90.0720000001,1929.0
90.0730000001,1934.0
90.0740000001,1936.0
90.0750000001,1937.0
90.0760000001,1926.0
90.0770000001,1914.0
90.0780000001,1921.0
90.0790000001,1908.0
90.0800000001,1931.0
90.0810000001,1958.0
90.0820000001,1952.0
90.0830000001,1952.0
90.0840000001,1939.0
90.0850000001,1913.0
90.0860000001,1913.0
90.0870000001,1904.0
90.0880000001,1917.0
90.0890000001,1916.0
90.0900000001,1915.0
90.0910000001,1917.0
90.0920000001,1895.0
90.0930000001,1865.0
90.0940000001,1836.0
90.0950000001,1777.0
90.0960000001,1724.0
90.0970000001,1673.0
90.0980000001,1699.0
90.0990000001,1799.0
90.1000000001,1937.0
90.1010000001,2040.0
90.1020000001,2169.0
90.1030000001,2243.0
90.1040000001,2315.0
90.1050000001,2355.0
90.1060000001,2372.0
90.1070000001,2391.0
90.1080000001,2402.0
90.1090000001,2360.0
90.1100000001,2288.0
90.1110000001,2219.0
90.1120000001,2176.0
90.1130000001,2143.0
90.1140000001,2115.0
90.1150000001,2075.0
90.1160000001,2022.0
90.1170000001,1956.0
90.1180000001,1931.0
90.1190000001,1897.0
90.1200000001,1867.0
90.1210000001,1840.0
90.1220000001,1820.0
90.1230000001,1805.0
90.1240000001,1784.0
90.1250000001,1767.0
90.1260000001,1789.0
90.1270000001,1799.0
90.1280000001,1811.0
90.1290000001,1814.0
90.1300000001,1819.0
90.1310000001,1823.0
90.1320000001,1823.0
90.1330000001,1812.0
90.1340000001,1822.0
90.1350000001,1829.0
90.1360000001,1829.0
90.1370000001,1846.0
90.1380000001,1850.0
90.1390000001,1844.0
90.1400000001,1847.0
90.1410000001,1829.0
90.1420000001,1853.0
90.1430000001,1865.0
90.1440000001,1880.0
90.1450000001,1881.0
90.1460000001,1897.0
90.1470000001,1892.0
90.1480000001,1885.0
90.1490000001,1868.0
90.1500000001,1887.0
90.1510000001,1909.0
90.1520000001,1922.0
90.1530000001,1944.0
90.1540000001,1952.0
90.1550000001,1945.0
90.1560000001,1939.0
90.1570000001,1927.0
90.1580000001,1946.0
90.1590000001,1955.0
90.1600000001,1972.0
90.1610000001,1981.0
90.1620000001,1979.0
90.1630000001,1977.0
90.1640000001,1969.0
90.1650000001,1966.0
90.1660000001,1993.0
90.1670000001,2002.0
90.1680000001,1999.0
90.1690000001,1999.0
90.1700000001,2002.0
90.1710000001,1996.0
90.1720000001,2007.0
90.1730000001,2009.0
90.1740000001,2045.0
90.1750000001,2058.0
90.1760000001,2058.0
90.1770000001,2063.0
90.1780000001,2057.0
90.1790000001,2046.0
90.1800000001,2042.0
90.1810000001,2044.0
90.1820000001,2081.0
90.1830000001,2114.0
90.1840000001,2120.0
90.1850000001,2137.0
90.1860000001,2123.0
90.1870000001,2105.0
90.1880000001,2106.0
90.1890000001,2101.0
90.1900000001,2126.0
90.1910000001,2133.0
90.1920000001,2149.0
90.1930000001,2171.0
90.1940000001,2162.0
90.1950000001,2145.0
90.1960000001,2136.0
90.1970000001,2145.0
90.1980000001,2177.0
90.1990000001,2200.0
90.2000000001,2215.0
90.2010000001,2215.0
90.2020000001,2181.0
90.2030000001,2154.0
90.2040000001,2151.0
90.2050000001,2176.0
90.2060000001,2228.0
90.2070000001,2254.0
90.2080000001,2252.0
90.2090000001,2231.0
90.2100000001,2202.0
90.2110000001,2195.0
90.2120000001,2192.0
90.2130000001,2204.0
90.2140000001,2241.0
90.2150000001,2232.0
90.2160000001,2225.0
90.2170000001,2205.0
90.2180000001,2171.0
90.2190000001,2156.0
90.2200000001,2163.0
90.2210000001,2169.0
90.2220000001,2195.0
90.2230000001,2188.0
90.2240000001,2175.0
90.2250000001,2157.0
90.2260000001,2138.0
90.2270000001,2118.0
90.2280000001,2126.0
90.2290000001,2129.0
90.2300000001,2139.0
90.2310000001,2152.0
90.2320000001,2130.0
90.2330000001,2111.0
90.2340000001,2077.0
90.2350000001,2063.0
90.2360000001,2076.0
90.2370000001,2109.0
90.2380000001,2129.0
90.2390000001,2140.0
90.2400000001,2125.0
90.2410000001,2090.0
90.2420000001,2109.0
90.2430000001,2077.0
90.2440000001,2089.0
90.2450000001,2078.0
90.2460000001,2072.0
90.2470000001,2078.0
90.2480000001,2092.0
90.2490000001,2077.0
90.2500000001,2060.0
90.2510000001,2062.0
90.2520000001,2102.0
90.2530000001,2086.0
90.2540000001,2131.0
90.2550000001,2100.0
90.2560000001,2080.0
90.2570000001,2051.0
90.2580000001,2045.0
90.2590000001,2062.0
90.2600000001,2065.0
90.2610000001,2074.0
90.2620000001,2093.0
90.2630000001,2116.0
90.2640000001,2079.0
90.2650000001,2058.0
90.2660000001,2051.0
90.2670000001,2063.0
90.2680000001,2073.0
90.2690000001,2078.0
90.2700000001,2093.0
90.2710000001,2097.0
90.2720000001,2089.0
90.2730000001,2076.0
90.2740000001,2071.0
90.2750000001,2083.0
90.2760000001,2109.0
90.2770000001,2103.0
90.2780000001,2109.0
90.2790000001,2097.0
90.2800000001,2063.0
90.2810000001,2040.0
90.2820000001,2054.0
90.2830000001,2086.0
90.2840000001,2126.0
90.2850000001,2143.0
90.2860000001,2131.0
90.2870000001,2119.0
90.2880000001,2085.0
90.2890000001,2076.0
90.2900000001,2075.0
90.2910000001,2123.0
90.2920000001,2154.0
90.2930000001,2142.0
90.2940000001,2133.0
90.2950000001,2103.0
90.2960000001,2086.0
90.2970000001,2073.0
90.2980000001,2099.0
90.2990000001,2126.0
90.3000000001,2144.0
90.3010000001,2132.0
90.3020000001,2123.0
90.3030000001,2092.0
90.3040000001,2065.0
90.3050000001,2062.0
90.3060000001,2079.0
90.3070000001,2108.0
90.3080000001,2126.0
90.3090000001,2123.0
90.3100000001,2096.0
90.3110000001,2074.0
90.3120000001,2106.0
90.3130000001,2079.0
90.3140000001,2111.0
90.3150000001,2141.0
90.3160000001,2142.0
90.3170000001,2113.0
90.3180000001,2074.0
90.3190000001,2064.0
90.3200000001,2086.0
90.3210000001,2097.0
90.3220000001,2137.0
90.3230000001,2151.0
90.3240000001,2143.0
90.3250000001,2125.0
90.3260000001,2091.0
90.3270000001,2065.0
90.3280000001,2068.0
90.3290000001,2063.0
90.3300000001,2093.0
90.3310000001,2131.0
90.3320000001,2125.0
90.3330000001,2124.0
90.3340000001,2090.0
90.3350000001,2073.0
90.3360000001,2062.0
90.3370000001,2075.0
90.3380000001,2100.0
90.3390000001,2123.0
90.3400000001,2121.0
90.3410000001,2099.0
90.3420000001,2050.0
90.3430000001,2028.0
90.3440000001,2024.0
90.3450000001,2046.0
90.3460000001,2070.0
90.3470000001,2084.0
90.3480000001,2079.0
90.3490000001,2037.0
90.3500000001,1984.0
90.3510000001,1982.0
90.3520000001,2011.0
90.3530000001,2037.0
90.3540000001,2055.0
90.3550000001,2062.0
90.3560000001,2063.0
90.3570000001,2021.0
90.3580000001,1971.0
90.3590000001,1968.0
90.3600000001,1977.0
90.3610000001,2009.0
90.3620000001,2032.0
90.3630000001,2046.0
90.3640000001,2028.0
90.3650000001,1979.0
90.3660000001,1947.0
90.3670000001,1958.0
90.3680000001,1963.0
90.3690000001,2003.0
90.3700000001,2009.0
90.3710000001,2011.0
90.3720000001,2014.0
90.3730000001,1961.0
90.3740000001,1910.0
90.3750000001,1918.0
90.3760000001,1930.0
90.3770000001,1967.0
90.3780000001,1992.0
90.3790000001,1989.0
90.3800000001,1972.0
90.3810000001,1937.0
90.3820000001,1880.0
90.3830000001,1884.0
90.3840000001,1912.0
90.3850000001,1941.0
90.3860000001,1962.0
90.3870000001,1955.0
90.3880000001,1931.0
90.3890000001,1905.0
90.3900000001,1886.0
90.3910000001,1898.0
90.3920000001,1916.0
90.3930000001,1958.0
90.3940000001,1966.0
90.3950000001,1965.0
90.3960000001,1934.0
90.3970000001,1885.0
90.3980000001,1868.0
90.3990000001,1892.0
90.4000000001,1926.0
90.4010000001,1954.0
90.4020000001,1958.0
90.4030000001,1951.0
90.4040000001,1905.0
90.4050000001,1870.0
90.4060000001,1858.0
90.4070000001,1883.0
90.4080000001,1920.0
90.4090000001,1947.0
90.4100000001,1961.0
90.4110000001,1950.0
90.4120000001,1893.0
90.4130000001,1863.0
90.4140000001,1864.0
90.4150000001,1893.0
90.4160000001,1925.0
90.4170000001,1937.0
90.4180000001,1932.0
90.4190000001,1927.0
90.4200000001,1882.0
90.4210000001,1848.0
90.4220000001,1844.0
90.4230000001,1881.0
90.4240000001,1925.0
90.4250000001,1938.0
90.4260000001,1940.0
90.4270000001,1918.0
90.4280000001,1883.0
90.4290000001,1856.0
90.4300000001,1838.0
90.4310000001,1857.0
90.4320000001,1857.0
90.4330000001,1832.0
90.4340000001,1780.0
90.4350000001,1698.0
90.4360000001,1681.0
90.4370000001,1735.0
90.4380000001,1863.0
90.4390000001,2045.0
90.4400000001,2215.0
90.4410000001,2287.0
90.4420000001,2348.0
90.4430000001,2369.0
90.4440000001,2373.0
90.4450000001,2378.0
90.4460000001,2367.0
90.4470000001,2379.0
90.4480000001,2343.0
90.4490000001,2255.0
90.4500000001,2196.0
90.4510000001,2114.0
90.4520000001,2032.0
90.4530000001,1964.0
90.4540000001,1913.0
90.4550000001,1918.0
90.4560000001,1916.0
90.4570000001,1852.0
90.4580000001,1805.0
90.4590000001,1755.0
90.4600000001,1706.0
90.4610000001,1683.0
90.4620000001,1703.0
90.4630000001,1759.0
90.4640000001,1780.0
90.4650000001,1777.0
90.4660000001,1762.0
90.4670000001,1722.0
90.4680000001,1705.0
90.4690000001,1720.0
90.4700000001,1722.0
90.4710000001,1767.0
90.4720000001,1795.0
90.4730000001,1794.0
90.4740000001,1794.0
90.4750000001,1741.0
90.4760000001,1731.0
90.4770000001,1735.0
90.4780000001,1774.0
90.4790000001,1821.0
90.4800000001,1823.0
90.4810000001,1819.0
90.4820000001,1798.0
90.4830000001,1753.0
90.4840000001,1737.0
90.4850000001,1740.0
90.4860000001,1763.0
90.4870000001,1814.0
90.4880000001,1848.0
90.4890000001,1845.0
90.4900000001,1812.0
90.4910000001,1783.0
90.4920000001,1777.0
90.4930000001,1787.0
90.4940000001,1814.0
90.4950000001,1852.0
90.4960000001,1851.0
90.4970000001,1853.0
90.4980000001,1844.0
90.4990000001,1806.0
90.5000000001,1786.0
90.5010000001,1799.0
90.5020000001,1820.0
90.5030000001,1843.0
90.5040000001,1869.0
90.5050000001,1859.0
90.5060000001,1843.0
90.5070000001,1805.0
90.5080000001,1796.0
90.5090000001,1822.0
90.5100000001,1850.0
90.5110000001,1872.0
90.5120000001,1882.0
90.5130000001,1848.0
90.5140000001,1809.0
90.5150000001,1805.0
90.5160000001,1792.0
90.5170000001,1828.0
90.5180000001,1854.0
90.5190000001,1882.0
90.5200000001,1871.0
90.5210000001,1845.0
90.5220000001,1816.0
90.5230000001,1816.0
90.5240000001,1814.0
90.5250000001,1857.0
90.5260000001,1882.0
90.5270000001,1892.0
90.5280000001,1903.0
90.5290000001,1857.0
90.5300000001,1838.0
90.5310000001,1841.0
90.5320000001,1868.0
90.5330000001,1932.0
90.5340000001,1965.0
90.5350000001,1974.0
90.5360000001,1968.0
90.5370000001,1942.0
90.5380000001,1924.0
90.5390000001,1928.0
90.5400000001,1959.0
90.5410000001,2004.0
90.5420000001,2018.0
90.5430000001,2038.0
90.5440000001,2026.0
90.5450000001,2010.0
90.5460000001,2010.0
90.5470000001,1996.0
90.5480000001,2026.0
90.5490000001,2070.0
90.5500000001,2078.0
90.5510000001,2089.0
90.5520000001,2069.0
90.5530000001,2041.0
90.5540000001,2021.0
90.5550000001,2033.0
90.5560000001,2063.0
90.5570000001,2096.0
90.5580000001,2084.0
90.5590000001,2078.0
90.5600000001,2062.0
90.5610000001,2040.0
90.5620000001,2031.0
90.5630000001,2024.0
90.5640000001,2067.0
90.5650000001,2117.0
90.5660000001,2107.0
90.5670000001,2099.0
90.5680000001,2078.0
90.5690000001,2049.0
90.5700000001,2030.0
90.5710000001,2039.0
90.5720000001,2075.0
90.5730000001,2086.0
90.5740000001,2089.0
90.5750000001,2080.0
90.5760000001,2064.0
90.5770000001,2031.0
90.5780000001,2006.0
90.5790000001,2022.0
90.5800000001,2062.0
90.5810000001,2085.0
90.5820000001,2076.0
90.5830000001,2057.0
90.5840000001,2019.0
90.5850000001,1996.0
90.5860000001,1992.0
90.5870000001,2018.0
90.5880000001,2060.0
90.5890000001,2051.0
90.5900000001,2010.0
90.5910000001,1988.0
90.5920000001,1990.0
90.5930000001,1985.0
90.5940000001,2000.0
90.5950000001,2035.0
90.5960000001,2051.0
90.5970000001,2066.0
90.5980000001,2048.0
90.5990000001,2004.0
90.6000000001,1980.0
90.6010000001,1966.0
90.6020000001,1967.0
90.6030000001,2016.0
90.6040000001,2045.0
90.6050000001,2043.0
90.6060000001,2022.0
90.6070000001,1988.0
90.6080000001,1960.0
90.6090000001,1969.0
90.6100000001,1984.0
90.6110000001,2023.0
90.6120000001,2041.0
90.6130000001,2050.0
90.6140000001,2018.0
90.6150000001,1980.0
90.6160000001,1948.0
90.6170000001,1954.0
90.6180000001,1984.0
90.6190000001,2042.0
90.6200000001,2052.0
90.6210000001,2038.0
90.6220000001,2011.0
90.6230000001,1958.0
90.6240000001,1957.0
90.6250000001,1949.0
90.6260000001,1973.0
90.6270000001,2012.0
90.6280000001,2030.0
90.6290000001,2032.0
90.6300000001,1996.0
90.6310000001,1959.0
90.6320000001,1953.0
90.6330000001,1973.0
90.6340000001,1992.0
90.6350000001,2022.0
90.6360000001,2038.0
90.6370000001,2034.0
90.6380000001,1989.0
90.6390000001,1948.0
90.6400000001,1957.0
90.6410000001,1970.0
90.6420000001,2007.0
90.6430000001,2028.0
90.6440000001,2032.0
90.6450000001,2010.0
90.6460000001,1971.0
90.6470000001,1947.0
90.6480000001,1955.0
90.6490000001,1968.0
90.6500000001,2011.0
90.6510000001,2036.0
90.6520000001,2036.0
90.6530000001,2007.0
90.6540000001,1969.0
90.6550000001,1934.0
90.6560000001,1935.0
90.6570000001,1957.0
90.6580000001,2003.0
90.6590000001,2005.0
90.6600000001,1995.0
90.6610000001,1977.0
90.6620000001,1923.0
90.6630000001,1876.0
90.6640000001,1875.0
90.6650000001,1902.0
90.6660000001,1947.0
90.6670000001,1938.0
90.6680000001,1904.0
90.6690000001,2635.0
90.6700000001,4079.0
90.6710000001,4085.0
