20.03,3986.0
20.0325,3998.0
20.035,3994.0
20.0375,4016.0
20.04,3995.0
20.0425,4017.0
20.045,3977.0
20.0475,3987.0
20.05,4016.0
20.0525,3992.0
20.055,4069.0
20.0575,4056.0
20.06,4033.0
20.0625,4012.0
20.065,4005.0
20.0675,4025.0
20.07,4039.0
20.0725,4060.0
20.075,4068.0
20.0775,4070.0
20.08,4025.0
20.0825,4046.0
20.085,4037.0
20.0875,4029.0
20.09,4085.0
20.0925,4058.0
20.095,4090.0
20.0975,4076.0
20.1,4052.0
20.1025,4068.0
20.105,4011.0
20.1075,4057.0
20.11,4091.0
20.1125,4064.0
20.115,4054.0
20.1175,4061.0
20.12,4017.0
20.1225,4012.0
20.125,4044.0
20.1275,4049.0
20.13,4072.0
20.1325,4047.0
20.135,4041.0
20.1375,4049.0
20.14,4010.0
20.1425,4047.0
20.145,4033.0
20.1475,4047.0
20.15,4055.0
20.1525,4032.0
20.155,4018.0
20.1575,3983.0
20.16,4032.0
20.1625,4050.0
20.165,4041.0
20.1675,4034.0
20.17,4065.0
20.1725,4033.0
20.175,3996.0
20.1775,4025.0
20.18,4010.0
20.1825,4044.0
20.185,4083.0
20.1875,4102.0
20.19,4109.0
20.1925,4029.0
20.195,4009.0
20.1975,3967.0
20.2,3956.0
20.2025,3965.0
20.205,4017.0
20.2075,4034.0
20.21,4039.0
20.2125,4091.0
20.215,4173.0
20.2175,4325.0
20.22,4432.0
20.2225,4596.0
20.225,4773.0
20.2275,4870.0
20.23,4941.0
20.2325,4905.0
20.235,4723.0
20.2375,4587.0
20.24,4438.0
20.2425,4269.0
20.245,4087.0
20.2475,3968.0
20.25,3881.0
20.2525,3739.0
20.255,3670.0
20.2575,3715.0
20.26,3732.0
20.2625,3853.0
20.265,3949.0
20.2675,3937.0
20.27,3952.0
20.2725,3884.0
20.275,3874.0
20.2775,3888.0
20.28,3862.0
20.2825,3986.0
20.285,4006.0
20.2875,3989.0
20.29,3942.0
20.2925,3890.0
20.295,3867.0
20.2975,3887.0
20.3,3936.0
20.3025,4025.0
20.305,4046.0
20.3075,4038.0
20.31,3989.0
20.3125,3928.0
20.315,3901.0
20.3175,3926.0
20.32,3978.0
20.3225,4073.0
20.325,4072.0
20.3275,4065.0
20.33,4012.0
20.3325,3942.0
20.335,3952.0
20.3375,3972.0
20.34,4040.0
20.3425,4116.0
20.345,4143.0
20.3475,4081.0
20.35,4014.0
20.3525,3944.0
20.355,3953.0
20.3575,3999.0
20.36,4063.0
20.3625,4125.0
20.365,4129.0
20.3675,4017.0
20.37,4021.0
20.3725,3951.0
20.375,3951.0
20.3775,3999.0
20.38,4058.0
20.3825,4121.0
20.385,4120.0
20.3875,4096.0
20.39,4034.0
20.3925,3959.0
20.395,3961.0
20.3975,4038.0
20.4,4104.0
20.4025,4140.0
20.405,4166.0
20.4075,4117.0
20.41,4052.0
20.4125,4002.0
20.415,4001.0
20.4175,4085.0
20.42,4139.0
20.4225,4209.0
20.425,4208.0
20.4275,4154.0
20.43,4078.0
20.4325,4011.0
20.435,4012.0
20.4375,4050.0
20.44,4159.0
20.4425,4223.0
20.445,4202.0
20.4475,4130.0
20.45,4068.0
20.4525,4013.0
20.455,4023.0
20.4575,4109.0
20.46,4156.0
20.4625,4155.0
20.465,4132.0
20.4675,4046.0
20.47,3980.0
20.4725,3912.0
20.475,3934.0
20.4775,4011.0
20.48,4062.0
20.4825,4098.0
20.485,4081.0
20.4875,4005.0
20.49,3893.0
20.4925,3868.0
20.495,3892.0
20.4975,3967.0
20.5,4027.0
20.5025,4062.0
20.505,4011.0
20.5075,3902.0
20.51,3861.0
20.5125,3838.0
20.515,3891.0
20.5175,3960.0
20.52,4024.0
20.5225,4072.0
20.525,4002.0
20.5275,3939.0
20.53,3874.0
20.5325,3830.0
20.535,3887.0
20.5375,3992.0
20.54,4033.0
20.5425,4040.0
20.545,4009.0
20.5475,3906.0
20.55,3869.0
20.5525,3837.0
20.555,3902.0
20.5575,3978.0
20.56,3986.0
20.5625,4039.0
20.565,3985.0
20.5675,3906.0
20.57,3888.0
20.5725,3876.0
20.575,3939.0
20.5775,3978.0
20.58,4060.0
20.5825,4069.0
20.585,4015.0
20.5875,3946.0
20.59,3912.0
20.5925,3905.0
20.595,3953.0
20.5975,4061.0
20.6,4105.0
20.6025,4109.0
20.605,4032.0
20.6075,3981.0
20.61,3946.0
20.6125,3909.0
20.615,4013.0
20.6175,4075.0
20.62,4135.0
20.6225,4087.0
20.625,4014.0
20.6275,3973.0
20.63,3897.0
20.6325,3936.0
20.635,4020.0
20.6375,4109.0
20.64,4109.0
20.6425,4122.0
20.645,4047.0
20.6475,3972.0
20.65,3950.0
20.6525,3963.0
20.655,4006.0
20.6575,4066.0
20.66,4116.0
20.6625,4090.0
20.665,3999.0
20.6675,3966.0
20.67,3949.0
20.6725,3999.0
20.675,4071.0
20.6775,4106.0
20.68,4123.0
20.6825,4044.0
20.685,4035.0
20.6875,3970.0
20.69,3954.0
20.6925,3993.0
20.695,4068.0
20.6975,4117.0
20.7,4119.0
20.7025,4110.0
20.705,4076.0
20.7075,4020.0
20.71,4026.0
20.7125,4072.0
20.715,4115.0
20.7175,4100.0
20.72,4141.0
20.7225,4099.0
20.725,4068.0
20.7275,4003.0
20.73,4007.0
20.7325,4038.0
20.735,4053.0
20.7375,4137.0
20.74,4097.0
20.7425,4062.0
20.745,4011.0
20.7475,3966.0
20.75,3996.0
20.7525,4019.0
20.755,4069.0
20.7575,4106.0
20.76,4067.0
20.7625,4055.0
20.765,3996.0
20.7675,3965.0
20.77,3980.0
20.7725,4026.0
20.775,4082.0
20.7775,4097.0
20.78,4086.0
20.7825,4074.0
20.785,4007.0
20.7875,3957.0
20.79,4026.0
20.7925,4057.0
20.795,4079.0
20.7975,4101.0
20.8,4084.0
20.8025,4074.0
20.805,3990.0
20.8075,3996.0
20.81,4030.0
20.8125,4043.0
20.815,4117.0
20.8175,4109.0
20.82,4078.0
20.8225,4053.0
20.825,4026.0
20.8275,4017.0
20.83,4031.0
20.8325,4081.0
20.835,4124.0
20.8375,4101.0
20.84,4064.0
20.8425,4075.0
20.845,4018.0
20.8475,4019.0
20.85,4055.0
20.8525,4073.0
20.855,4099.0
20.8575,4073.0
20.86,4066.0
20.8625,4053.0
20.865,3997.0
20.8675,4008.0
20.87,4014.0
20.8725,4053.0
20.875,4074.0
20.8775,4070.0
20.88,4054.0
20.8825,4061.0
20.885,4046.0
20.8875,4069.0
20.89,4115.0
20.8925,4088.0
20.895,4145.0
20.8975,4126.0
20.9,4095.0
20.9025,4066.0
20.905,4065.0
20.9075,4133.0
20.91,4107.0
20.9125,4114.0
20.915,4118.0
20.9175,4077.0
20.92,4060.0
20.9225,4052.0
20.925,4064.0
20.9275,4061.0
20.93,4065.0
20.9325,4076.0
20.935,4100.0
20.9375,4064.0
20.94,4056.0
20.9425,4040.0
20.945,4021.0
20.9475,4055.0
20.95,4074.0
20.9525,4069.0
20.955,4074.0
20.9575,4062.0
20.96,4068.0
20.9625,4034.0
20.965,4092.0
20.9675,4108.0
20.97,4082.0
20.9725,4083.0
20.975,4063.0
20.9775,4049.0
20.98,4025.0
20.9825,4038.0
20.985,4031.0
20.9875,4019.0
20.99,4015.0
20.9925,3977.0
20.995,3969.0
20.9975,3967.0
21.0,4084.0
21.0025,4217.0
21.005,4394.0
21.0075,4503.0
21.01,4626.0
21.0125,4729.0
21.015,4809.0
21.0175,4867.0
21.02,4841.0
21.0225,4710.0
21.025,4555.0
21.0275,4410.0
21.03,4154.0
21.0325,3944.0
21.035,3842.0
21.0375,3769.0
21.04,3750.0
21.0425,3761.0
21.045,3779.0
21.0475,3847.0
21.05,3865.0
21.0525,3879.0
21.055,3873.0
21.0575,3900.0
21.06,3944.0
21.0625,4002.0
21.065,4002.0
21.0675,3983.0
21.07,3992.0
21.0725,3910.0
21.075,3895.0
21.0775,3901.0
21.08,3929.0
21.0825,4022.0
21.085,4017.0
21.0875,4037.0
21.09,3995.0
21.0925,3918.0
21.095,3954.0
21.0975,3948.0
21.1,3974.0
21.1025,4071.0
21.105,4126.0
21.1075,4126.0
21.11,4077.0
21.1125,3980.0
21.115,3987.0
21.1175,4007.0
21.12,4036.0
21.1225,4124.0
21.125,4125.0
21.1275,4096.0
21.13,4056.0
21.1325,4015.0
21.135,4031.0
21.1375,3995.0
21.14,4057.0
21.1425,4120.0
21.145,4116.0
21.1475,4093.0
21.15,4046.0
21.1525,3988.0
21.155,3953.0
21.1575,3985.0
21.16,4058.0
21.1625,4120.0
21.165,4111.0
21.1675,4075.0
21.17,4022.0
21.1725,3942.0
21.175,3987.0
21.1775,4018.0
21.18,4077.0
21.1825,4129.0
21.185,4140.0
21.1875,4098.0
21.19,4001.0
21.1925,3983.0
21.195,4034.0
21.1975,4046.0
21.2,4138.0
21.2025,4200.0
21.205,4185.0
21.2075,4125.0
21.21,4076.0
21.2125,4025.0
21.215,4071.0
21.2175,4141.0
21.22,4204.0
21.2225,4224.0
21.225,4137.0
21.2275,4123.0
21.23,4049.0
21.2325,4002.0
21.235,4042.0
21.2375,4097.0
21.24,4156.0
21.2425,4160.0
21.245,4151.0
21.2475,4087.0
21.25,3982.0
21.2525,3963.0
21.255,3987.0
21.2575,4030.0
21.26,4071.0
21.2625,4101.0
21.265,4084.0
21.2675,3985.0
21.27,3884.0
21.2725,3866.0
21.275,3882.0
21.2775,3945.0
21.28,4024.0
21.2825,4026.0
21.285,3980.0
21.2875,3883.0
21.29,3806.0
21.2925,3795.0
21.295,3832.0
21.2975,3927.0
21.3,3951.0
21.3025,3972.0
21.305,3921.0
21.3075,3846.0
21.31,3803.0
21.3125,3756.0
21.315,3846.0
21.3175,3936.0
21.32,3971.0
21.3225,3986.0
21.325,3929.0
21.3275,3851.0
21.33,3773.0
21.3325,3784.0
21.335,3872.0
21.3375,3944.0
21.34,4004.0
21.3425,4029.0
21.345,3953.0
21.3475,3864.0
21.35,3831.0
21.3525,3846.0
21.355,3931.0
21.3575,3997.0
21.36,4065.0
21.3625,4066.0
21.365,3899.0
21.3675,3892.0
21.37,3849.0
21.3725,3815.0
21.375,3919.0
21.3775,4002.0
21.38,4042.0
21.3825,4030.0
21.385,3975.0
21.3875,3899.0
21.39,3863.0
21.3925,3874.0
21.395,3961.0
21.3975,4061.0
21.4,4095.0
21.4025,4059.0
21.405,3994.0
21.4075,3941.0
21.41,3899.0
21.4125,3910.0
21.415,4021.0
21.4175,4034.0
21.42,4117.0
21.4225,4082.0
21.425,3969.0
21.4275,3945.0
21.43,3894.0
21.4325,3936.0
21.435,3991.0
21.4375,4061.0
21.44,4120.0
21.4425,4068.0
21.445,3992.0
21.4475,3956.0
21.45,3919.0
21.4525,3914.0
21.455,4027.0
21.4575,4088.0
21.46,4095.0
21.4625,4065.0
21.465,3985.0
21.4675,3957.0
21.47,3870.0
21.4725,3962.0
21.475,4040.0
21.4775,4090.0
21.48,4094.0
21.4825,4049.0
21.485,3969.0
21.4875,3911.0
21.49,3912.0
21.4925,3961.0
21.495,4047.0
21.4975,4087.0
21.5,4106.0
21.5025,4059.0
21.505,3952.0
21.5075,3947.0
21.51,3902.0
21.5125,3968.0
21.515,4066.0
21.5175,4107.0
21.52,4093.0
21.5225,3999.0
21.525,3987.0
21.5275,3961.0
21.53,3939.0
21.5325,3981.0
21.535,4083.0
21.5375,4123.0
21.54,4095.0
21.5425,4069.0
21.545,4007.0
21.5475,3995.0
21.55,3996.0
21.5525,4038.0
21.555,4075.0
21.5575,4061.0
21.56,4116.0
21.5625,4064.0
21.565,4005.0
21.5675,3973.0
21.57,3995.0
21.5725,4075.0
21.575,4100.0
21.5775,4132.0
21.58,4119.0
21.5825,4045.0
21.585,3985.0
21.5875,3948.0
21.59,3975.0
21.5925,4024.0
21.595,4115.0
21.5975,4132.0
21.6,4105.0
21.6025,4050.0
21.605,3979.0
21.6075,3989.0
21.61,3982.0
21.6125,4076.0
21.615,4129.0
21.6175,4117.0
21.62,4098.0
21.6225,4032.0
21.625,3982.0
21.6275,3972.0
21.63,4006.0
21.6325,4050.0
21.635,4092.0
21.6375,4088.0
21.64,4077.0
21.6425,4045.0
21.645,3956.0
21.6475,3992.0
21.65,4018.0
21.6525,4054.0
21.655,4120.0
21.6575,4082.0
21.66,4059.0
21.6625,4006.0
21.665,3960.0
21.6675,4000.0
21.67,3995.0
21.6725,4027.0
21.675,4098.0
21.6775,4061.0
21.68,4033.0
21.6825,4001.0
21.685,3960.0
21.6875,4002.0
21.69,4006.0
21.6925,4056.0
21.695,4072.0
21.6975,4022.0
21.7,4043.0
21.7025,4021.0
21.705,3992.0
21.7075,4018.0
21.71,4011.0
21.7125,4043.0
21.715,4042.0
21.7175,4031.0
21.72,4053.0
21.7225,4009.0
21.725,4009.0
21.7275,4055.0
21.73,4023.0
21.7325,4035.0
21.735,4071.0
21.7375,4035.0
21.74,4059.0
21.7425,4037.0
21.745,4054.0
21.7475,4076.0
21.75,4034.0
21.7525,4091.0
21.755,4090.0
21.7575,4054.0
21.76,4063.0
21.7625,4041.0
21.765,4061.0
21.7675,4060.0
21.77,4062.0
21.7725,4073.0
21.775,4064.0
21.7775,4041.0
21.78,4079.0
21.7825,4057.0
21.785,4029.0
21.7875,4077.0
21.79,4073.0
21.7925,4072.0
21.795,4052.0
21.7975,4032.0
21.8,4020.0
21.8025,3982.0
21.805,4026.0
21.8075,4038.0
21.81,3998.0
21.8125,4024.0
21.815,4007.0
21.8175,3971.0
21.82,3984.0
21.8225,4030.0
21.825,4043.0
21.8275,4059.0
21.83,3968.0
21.8325,3937.0
21.835,3940.0
21.8375,3883.0
21.84,3910.0
21.8425,3908.0
21.845,3945.0
21.8475,3971.0
21.85,4009.0
21.8525,4091.0
21.855,4187.0
21.8575,4354.0
21.86,4503.0
21.8625,4628.0
21.865,4759.0
21.8675,4857.0
21.87,4858.0
21.8725,4756.0
21.875,4565.0
21.8775,4344.0
21.88,4234.0
21.8825,4084.0
21.885,3966.0
21.8875,3892.0
21.89,3760.0
21.8925,3734.0
21.895,3726.0
21.8975,3734.0
21.9,3813.0
21.9025,3913.0
21.905,3956.0
21.9075,3943.0
21.91,3956.0
21.9125,3960.0
21.915,3960.0
21.9175,3944.0
21.92,4005.0
21.9225,4032.0
21.925,3998.0
21.9275,4016.0
21.93,3970.0
21.9325,3942.0
21.935,3931.0
21.9375,3968.0
21.94,4015.0
21.9425,4000.0
21.945,4015.0
21.9475,3993.0
21.95,3910.0
21.9525,3893.0
21.955,3952.0
21.9575,3953.0
21.96,4023.0
21.9625,4047.0
21.965,4031.0
21.9675,4020.0
21.97,3917.0
21.9725,3919.0
21.975,3936.0
21.9775,3929.0
21.98,4059.0
21.9825,4075.0
21.985,4058.0
21.9875,4066.0
21.99,3986.0
21.9925,3951.0
21.995,3955.0
21.9975,3992.0
22.0,4082.0
22.0025,4122.0
22.005,4072.0
22.0075,4032.0
22.01,3944.0
22.0125,3902.0
22.015,3978.0
22.0175,4042.0
22.02,4150.0
22.0225,4173.0
22.025,4190.0
22.0275,4159.0
22.03,4000.0
22.0325,4020.0
22.035,4051.0
22.0375,4095.0
22.04,4154.0
22.0425,4172.0
22.045,4168.0
22.0475,4102.0
22.05,4023.0
22.0525,4030.0
22.055,4083.0
22.0575,4131.0
22.06,4258.0
22.0625,4263.0
22.065,4184.0
22.0675,4136.0
22.07,4061.0
22.0725,4036.0
22.075,4082.0
22.0775,4136.0
22.08,4240.0
22.0825,4194.0
22.085,4165.0
22.0875,4108.0
22.09,4028.0
22.0925,4046.0
22.095,4071.0
22.0975,4151.0
22.1,4184.0
22.1025,4198.0
22.105,4143.0
22.1075,4057.0
22.11,3961.0
22.1125,3981.0
22.115,4039.0
22.1175,4070.0
22.12,4121.0
22.1225,4107.0
22.125,4039.0
22.1275,3986.0
22.13,3892.0
22.1325,3918.0
22.135,3930.0
22.1375,3990.0
22.14,4064.0
22.1425,4056.0
22.145,3977.0
22.1475,3910.0
22.15,3829.0
22.1525,3808.0
22.155,3910.0
22.1575,3977.0
22.16,4056.0
22.1625,4041.0
22.165,3940.0
22.1675,3890.0
22.17,3795.0
22.1725,3842.0
22.175,3924.0
22.1775,4026.0
22.18,4092.0
22.1825,4059.0
22.185,3959.0
22.1875,3879.0
22.19,3849.0
22.1925,3884.0
22.195,3977.0
22.1975,4041.0
22.2,4101.0
22.2025,4085.0
22.205,3975.0
22.2075,3952.0
22.21,3909.0
22.2125,3915.0
22.215,4011.0
22.2175,4049.0
22.22,4125.0
22.2225,4078.0
22.225,4008.0
22.2275,3971.0
22.23,3891.0
22.2325,3946.0
22.235,4040.0
22.2375,4084.0
22.24,4110.0
22.2425,4109.0
22.245,4013.0
22.2475,3972.0
22.25,3926.0
22.2525,3994.0
22.255,4071.0
22.2575,4108.0
22.26,4188.0
22.2625,4117.0
22.265,4046.0
22.2675,4014.0
22.27,3960.0
22.2725,4052.0
22.275,4123.0
22.2775,4207.0
22.28,4241.0
22.2825,4163.0
22.285,4068.0
22.2875,4033.0
22.29,3971.0
22.2925,4062.0
22.295,4131.0
22.2975,4165.0
22.3,4195.0
22.3025,4136.0
22.305,4070.0
22.3075,4031.0
22.31,3948.0
22.3125,4029.0
22.315,4105.0
22.3175,4150.0
22.32,4198.0
22.3225,4126.0
22.325,4075.0
22.3275,3997.0
22.33,4002.0
22.3325,4079.0
22.335,4145.0
22.3375,4143.0
22.34,4175.0
22.3425,4111.0
22.345,4026.0
22.3475,4039.0
22.35,4021.0
22.3525,4108.0
22.355,4148.0
22.3575,4180.0
22.36,4176.0
22.3625,4080.0
22.365,4031.0
22.3675,4022.0
22.37,4024.0
22.3725,4089.0
22.375,4147.0
22.3775,4182.0
22.38,4138.0
22.3825,4090.0
22.385,4032.0
22.3875,4029.0
22.39,4027.0
22.3925,4091.0
22.395,4169.0
22.3975,4135.0
22.4,4145.0
22.4025,4106.0
22.405,4026.0
22.4075,4032.0
22.41,4056.0
22.4125,4107.0
22.415,4146.0
22.4175,4180.0
22.42,4190.0
22.4225,4130.0
22.425,4082.0
22.4275,4082.0
22.43,4065.0
22.4325,4074.0
22.435,4163.0
22.4375,4151.0
22.44,4135.0
22.4425,4068.0
22.445,4029.0
22.4475,4034.0
22.45,4018.0
22.4525,4089.0
22.455,4137.0
22.4575,4118.0
22.46,4098.0
22.4625,4089.0
22.465,4042.0
22.4675,4050.0
22.47,4080.0
22.4725,4106.0
22.475,4165.0
22.4775,4115.0
22.48,4123.0
22.4825,4085.0
22.485,4015.0
22.4875,4074.0
22.49,4099.0
22.4925,4124.0
22.495,4157.0
22.4975,4129.0
22.5,4132.0
22.5025,4081.0
22.505,4069.0
22.5075,4098.0
22.51,4081.0
22.5125,4127.0
22.515,4120.0
22.5175,4084.0
22.52,4083.0
22.5225,4050.0
22.525,4034.0
22.5275,4079.0
22.53,4061.0
22.5325,4109.0
22.535,4125.0
22.5375,4059.0
22.54,4113.0
22.5425,4080.0
22.545,4064.0
22.5475,4058.0
22.55,4038.0
22.5525,4096.0
22.555,4061.0
22.5575,4102.0
22.56,4102.0
22.5625,4020.0
22.565,3998.0
22.5675,4033.0
22.57,3975.0
22.5725,3934.0
22.575,3950.0
22.5775,3943.0
22.58,3997.0
22.5825,4025.0
22.585,4110.0
22.5875,4235.0
22.59,4330.0
22.5925,4502.0
22.595,4582.0
22.5975,4681.0
22.6,4824.0
22.6025,4868.0
22.605,4856.0
22.6075,4715.0
22.61,4490.0
22.6125,4321.0
22.615,4147.0
22.6175,3976.0
22.62,3895.0
22.6225,3826.0
22.625,3787.0
22.6275,3795.0
22.63,3755.0
22.6325,3774.0
22.635,3820.0
22.6375,3874.0
22.64,3912.0
22.6425,3933.0
22.645,3965.0
22.6475,3983.0
22.65,3958.0
22.6525,3954.0
22.655,3975.0
22.6575,3971.0
22.66,3970.0
22.6625,4009.0
22.665,4044.0
22.6675,4055.0
22.67,3978.0
22.6725,3991.0
22.675,3995.0
22.6775,3967.0
22.68,4025.0
22.6825,4054.0
22.685,4043.0
22.6875,4039.0
22.69,4020.0
22.6925,3996.0
22.695,3983.0
22.6975,3996.0
22.7,4034.0
22.7025,4056.0
22.705,4041.0
22.7075,4052.0
22.71,3982.0
22.7125,3947.0
22.715,3980.0
22.7175,3991.0
22.72,4050.0
22.7225,4065.0
22.725,4047.0
22.7275,4057.0
22.73,3971.0
22.7325,3995.0
22.735,3999.0
22.7375,4008.0
22.74,4106.0
22.7425,4125.0
22.745,4098.0
22.7475,4082.0
22.75,4051.0
22.7525,4031.0
22.755,4059.0
22.7575,4070.0
22.76,4160.0
22.7625,4168.0
22.765,4127.0
22.7675,4115.0
22.77,4045.0
22.7725,4035.0
22.775,4055.0
22.7775,4085.0
22.78,4188.0
22.7825,4147.0
22.785,4145.0
22.7875,4137.0
22.79,4040.0
22.7925,4011.0
22.795,4051.0
22.7975,4118.0
22.8,4205.0
22.8025,4216.0
22.805,4197.0
22.8075,4177.0
22.81,4070.0
22.8125,4065.0
22.815,4093.0
22.8175,4120.0
22.82,4248.0
22.8225,4235.0
22.825,4215.0
22.8275,4174.0
22.83,4079.0
22.8325,4048.0
22.835,4033.0
22.8375,4080.0
22.84,4171.0
22.8425,4169.0
22.845,4117.0
22.8475,4074.0
22.85,3972.0
22.8525,3955.0
22.855,4003.0
22.8575,4016.0
22.86,4066.0
22.8625,4060.0
22.865,4024.0
22.8675,3969.0
22.87,3866.0
22.8725,3886.0
22.875,3906.0
22.8775,3972.0
22.88,4061.0
22.8825,4037.0
22.885,3991.0
22.8875,3885.0
22.89,3858.0
22.8925,3874.0
22.895,3919.0
22.8975,3979.0
22.9,4059.0
22.9025,4050.0
22.905,3957.0
22.9075,3919.0
22.91,3847.0
22.9125,3856.0
22.915,3932.0
22.9175,3975.0
22.92,4042.0
22.9225,4011.0
22.925,3979.0
22.9275,3908.0
22.93,3840.0
22.9325,3859.0
22.935,3924.0
22.9375,3991.0
22.94,4031.0
22.9425,4031.0
22.945,3983.0
22.9475,3932.0
22.95,3879.0
22.9525,3903.0
22.955,3975.0
22.9575,4011.0
22.96,4096.0
22.9625,4082.0
22.965,3996.0
22.9675,3918.0
22.97,3880.0
22.9725,3891.0
22.975,3976.0
22.9775,4054.0
22.98,4118.0
22.9825,4089.0
22.985,4009.0
22.9875,3958.0
22.99,3886.0
22.9925,3896.0
22.995,4016.0
22.9975,4091.0
23.0,4159.0
23.0025,4088.0
23.005,3994.0
23.0075,3967.0
23.01,3906.0
23.0125,3967.0
23.015,4054.0
23.0175,4108.0
23.02,4137.0
23.0225,4096.0
23.025,4019.0
23.0275,3935.0
23.03,3903.0
23.0325,3964.0
23.035,4072.0
23.0375,4125.0
23.04,4150.0
23.0425,4108.0
23.045,3989.0
23.0475,3999.0
23.05,3946.0
23.0525,3989.0
23.055,4077.0
23.0575,4124.0
23.06,4173.0
23.0625,4097.0
23.065,4032.0
23.0675,3992.0
23.07,3951.0
23.0725,4017.0
23.075,4096.0
23.0775,4123.0
23.08,4115.0
23.0825,4061.0
23.085,3990.0
23.0875,3946.0
23.09,3923.0
23.0925,4020.0
23.095,4119.0
23.0975,4123.0
23.1,4154.0
23.1025,4085.0
23.105,4001.0
23.1075,3986.0
23.11,3949.0
23.1125,4051.0
23.115,4106.0
23.1175,4170.0
23.12,4191.0
23.1225,4111.0
23.125,4036.0
23.1275,4022.0
23.13,4000.0
23.1325,4037.0
23.135,4146.0
23.1375,4176.0
23.14,4152.0
23.1425,4071.0
23.145,4040.0
23.1475,4007.0
23.15,3970.0
23.1525,4052.0
23.155,4111.0
23.1575,4133.0
23.16,4113.0
23.1625,4067.0
23.165,4018.0
23.1675,3957.0
23.17,4004.0
23.1725,4101.0
23.175,4150.0
23.1775,4151.0
23.18,4124.0
23.1825,4060.0
23.185,3959.0
23.1875,3984.0
23.19,3988.0
23.1925,4074.0
23.195,4124.0
23.1975,4134.0
23.2,4123.0
23.2025,4021.0
23.205,3983.0
23.2075,3975.0
23.21,4012.0
23.2125,4034.0
23.215,4111.0
23.2175,4087.0
23.22,4024.0
23.2225,3996.0
23.225,3965.0
23.2275,3959.0
23.23,3982.0
23.2325,4036.0
23.235,4113.0
23.2375,4066.0
23.24,4085.0
23.2425,4045.0
23.245,3991.0
23.2475,4023.0
23.25,4023.0
23.2525,4060.0
23.255,4123.0
23.2575,4087.0
23.26,4056.0
23.2625,3995.0
23.265,3990.0
23.2675,3990.0
23.27,3998.0
23.2725,4016.0
23.275,4081.0
23.2775,4030.0
23.28,4037.0
23.2825,3988.0
23.285,3968.0
23.2875,4006.0
23.29,3975.0
23.2925,4057.0
23.295,4081.0
23.2975,4021.0
23.3,4046.0
23.3025,3995.0
23.305,3985.0
23.3075,3988.0
23.31,4022.0
23.3125,4062.0
23.315,4102.0
23.3175,4063.0
23.32,4066.0
23.3225,4017.0
23.325,3996.0
23.3275,4048.0
23.33,4012.0
23.3325,4007.0
23.335,4015.0
23.3375,3983.0
23.34,3998.0
23.3425,3943.0
23.345,4003.0
23.3475,4113.0
23.35,4194.0
23.3525,4393.0
23.355,4528.0
23.3575,4596.0
23.36,4742.0
23.3625,4828.0
23.365,4875.0
23.3675,4908.0
23.37,4748.0
23.3725,4612.0
23.375,4468.0
23.3775,4200.0
23.38,4035.0
23.3825,3903.0
23.385,3839.0
23.3875,3831.0
23.39,3770.0
23.3925,3817.0
23.395,3796.0
23.3975,3820.0
23.4,3893.0
23.4025,3925.0
23.405,3958.0
23.4075,3981.0
23.41,3979.0
23.4125,3955.0
23.415,3952.0
23.4175,3950.0
23.42,3959.0
23.4225,3935.0
23.425,3957.0
23.4275,3992.0
23.43,3935.0
23.4325,3962.0
23.435,3966.0
23.4375,3972.0
23.44,3959.0
23.4425,3986.0
23.445,4004.0
23.4475,3998.0
23.45,3994.0
23.4525,3985.0
23.455,3960.0
23.4575,3990.0
23.46,3984.0
23.4625,4014.0
23.465,4045.0
23.4675,4058.0
23.47,4028.0
23.4725,4020.0
23.475,4024.0
23.4775,4013.0
23.48,4029.0
23.4825,4011.0
23.485,4062.0
23.4875,4061.0
23.49,4024.0
23.4925,4007.0
23.495,4025.0
23.4975,4018.0
23.5,4042.0
23.5025,4069.0
23.505,4099.0
23.5075,4088.0
23.51,4033.0
23.5125,4022.0
23.515,4026.0
23.5175,3995.0
23.52,4080.0
23.5225,4096.0
23.525,4093.0
23.5275,4095.0
23.53,4073.0
23.5325,4044.0
23.535,4054.0
23.5375,4058.0
23.54,4093.0
23.5425,4145.0
23.545,4172.0
23.5475,4172.0
23.55,4115.0
23.5525,4050.0
23.555,4079.0
23.5575,4095.0
23.56,4169.0
23.5625,4195.0
23.565,4161.0
23.5675,4139.0
23.57,4069.0
23.5725,4116.0
23.575,4123.0
23.5775,4131.0
23.58,4213.0
23.5825,4227.0
23.585,4200.0
23.5875,4153.0
23.59,4115.0
23.5925,4070.0
23.595,4076.0
23.5975,4089.0
23.6,4156.0
23.6025,4160.0
23.605,4087.0
23.6075,4078.0
23.61,4030.0
23.6125,3977.0
23.615,4002.0
23.6175,4019.0
23.62,4062.0
23.6225,4061.0
23.625,4043.0
23.6275,4022.0
23.63,3923.0
23.6325,3934.0
23.635,3966.0
23.6375,4008.0
23.64,4030.0
23.6425,4075.0
23.645,4044.0
23.6475,3953.0
23.65,3880.0
23.6525,3865.0
23.655,3887.0
23.6575,3929.0
23.66,4002.0
23.6625,4021.0
23.665,3980.0
23.6675,3904.0
23.67,3834.0
23.6725,3841.0
23.675,3869.0
23.6775,3962.0
23.68,4020.0
23.6825,4032.0
23.685,3993.0
23.6875,3926.0
23.69,3874.0
23.6925,3826.0
23.695,3894.0
23.6975,3955.0
23.7,4054.0
23.7025,4019.0
23.705,3992.0
23.7075,3925.0
23.71,3820.0
23.7125,3832.0
23.715,3914.0
23.7175,3984.0
23.72,4042.0
23.7225,4068.0
23.725,4014.0
23.7275,3917.0
23.73,3861.0
23.7325,3885.0
23.735,3960.0
23.7375,4015.0
23.74,4085.0
23.7425,4077.0
23.745,3993.0
23.7475,3949.0
23.75,3895.0
23.7525,3925.0
23.755,3998.0
23.7575,4042.0
23.76,4094.0
23.7625,4070.0
23.765,4005.0
23.7675,3924.0
23.77,3911.0
23.7725,3890.0
23.775,4009.0
23.7775,4055.0
23.78,4085.0
23.7825,4072.0
23.785,3988.0
23.7875,3943.0
23.79,3897.0
23.7925,3913.0
23.795,4009.0
23.7975,4048.0
23.8,4128.0
23.8025,4083.0
23.805,4005.0
23.8075,3930.0
23.81,3920.0
23.8125,3956.0
23.815,3993.0
23.8175,4100.0
23.82,4118.0
23.8225,4075.0
23.825,3988.0
23.8275,3943.0
23.83,3886.0
23.8325,3918.0
23.835,4014.0
23.8375,4064.0
23.84,4098.0
23.8425,4051.0
23.845,3989.0
23.8475,3931.0
23.85,3886.0
23.8525,3967.0
23.855,4045.0
23.8575,4087.0
23.86,4132.0
23.8625,4066.0
23.865,3991.0
23.8675,3927.0
23.87,3918.0
23.8725,3979.0
23.875,4086.0
23.8775,4094.0
23.88,4144.0
23.8825,4088.0
23.885,3968.0
23.8875,3976.0
23.89,3945.0
23.8925,3994.0
23.895,4087.0
23.8975,4110.0
23.9,4131.0
23.9025,4039.0
23.905,4002.0
23.9075,3964.0
23.91,3949.0
23.9125,4024.0
23.915,4118.0
23.9175,4145.0
23.92,4107.0
23.9225,4062.0
23.925,3990.0
23.9275,3984.0
23.93,3957.0
23.9325,4017.0
23.935,4079.0
23.9375,4068.0
23.94,4082.0
23.9425,4024.0
23.945,3956.0
23.9475,3932.0
23.95,3955.0
23.9525,4045.0
23.955,4099.0
23.9575,4143.0
23.96,4096.0
23.9625,4019.0
23.965,3951.0
23.9675,3947.0
23.97,3950.0
23.9725,3988.0
23.975,4092.0
23.9775,4092.0
23.98,4087.0
23.9825,4025.0
23.985,3984.0
23.9875,3975.0
23.99,4000.0
23.9925,4055.0
23.995,4100.0
23.9975,4106.0
24.0,4091.0
24.0025,4021.0
24.005,3957.0
24.0075,3943.0
24.01,4002.0
24.0125,4041.0
24.015,4092.0
24.0175,4092.0
24.02,4079.0
24.0225,4051.0
24.025,3998.0
24.0275,4026.0
24.03,4012.0
24.0325,4085.0
24.035,4140.0
24.0375,4109.0
24.04,4088.0
24.0425,3998.0
24.045,3974.0
24.0475,4026.0
24.05,4055.0
24.0525,4097.0
24.055,4145.0
24.0575,4117.0
24.06,4049.0
24.0625,4050.0
24.065,3972.0
24.0675,3998.0
24.07,4017.0
24.0725,4079.0
24.075,4077.0
24.0775,4028.0
24.08,4033.0
24.0825,4004.0
24.085,3964.0
24.0875,3989.0
24.09,4011.0
24.0925,4046.0
24.095,4073.0
24.0975,4059.0
24.1,4046.0
24.1025,4030.0
24.105,3992.0
24.1075,4015.0
24.11,4014.0
24.1125,4046.0
24.115,4072.0
24.1175,4015.0
24.12,4001.0
24.1225,3964.0
24.125,3927.0
24.1275,3947.0
24.13,3920.0
24.1325,3964.0
24.135,3997.0
24.1375,3999.0
24.14,4072.0
24.1425,4181.0
24.145,4313.0
24.1475,4440.0
24.15,4574.0
24.1525,4748.0
24.155,4862.0
24.1575,4864.0
24.16,4828.0
24.1625,4637.0
24.165,4472.0
24.1675,4354.0
24.17,4138.0
24.1725,4012.0
24.175,3886.0
24.1775,3762.0
24.18,3722.0
24.1825,3662.0
24.185,3728.0
24.1875,3785.0
24.19,3845.0
24.1925,3894.0
24.195,3942.0
24.1975,3940.0
24.2,3922.0
24.2025,3944.0
24.205,3959.0
24.2075,3968.0
24.21,3944.0
24.2125,3966.0
24.215,3950.0
24.2175,3922.0
24.22,3940.0
24.2225,3975.0
24.225,4016.0
24.2275,4009.0
24.23,3996.0
24.2325,3999.0
24.235,3962.0
24.2375,3970.0
24.24,3956.0
24.2425,3983.0
24.245,4029.0
24.2475,4028.0
24.25,4034.0
24.2525,3993.0
24.255,4014.0
24.2575,3994.0
24.26,4021.0
24.2625,4046.0
24.265,4048.0
24.2675,4047.0
24.27,4031.0
24.2725,4021.0
24.275,4018.0
24.2775,4026.0
24.28,4040.0
24.2825,4070.0
24.285,4118.0
24.2875,4118.0
24.29,4081.0
24.2925,4058.0
24.295,4062.0
24.2975,4062.0
24.3,4099.0
24.3025,4124.0
24.305,4093.0
24.3075,4080.0
24.31,4059.0
24.3125,4012.0
24.315,3998.0
24.3175,4045.0
24.32,4078.0
24.3225,4094.0
24.325,4108.0
24.3275,4129.0
24.33,4092.0
24.3325,4054.0
24.335,4092.0
24.3375,4093.0
24.34,4124.0
24.3425,4182.0
24.345,4184.0
24.3475,4209.0
24.35,4153.0
24.3525,4132.0
24.355,4155.0
24.3575,4118.0
24.36,4199.0
24.3625,4203.0
24.365,4214.0
24.3675,4213.0
24.37,4143.0
24.3725,4116.0
24.375,4095.0
24.3775,4158.0
24.38,4207.0
24.3825,4207.0
24.385,4197.0
24.3875,4171.0
24.39,4070.0
24.3925,4021.0
24.395,4037.0
24.3975,4061.0
24.4,4133.0
24.4025,4113.0
24.405,4066.0
24.4075,4024.0
24.41,3931.0
24.4125,3941.0
24.415,3950.0
24.4175,3997.0
24.42,4046.0
24.4225,4026.0
24.425,3988.0
24.4275,3928.0
24.43,3884.0
24.4325,3865.0
24.435,3853.0
24.4375,3893.0
24.44,3972.0
24.4425,3957.0
24.445,3907.0
24.4475,3880.0
24.45,3851.0
24.4525,3840.0
24.455,3850.0
24.4575,3927.0
24.46,3982.0
24.4625,3962.0
24.465,3965.0
24.4675,3895.0
24.47,3824.0
24.4725,3824.0
24.475,3880.0
24.4775,3916.0
24.48,3962.0
24.4825,3959.0
24.485,3952.0
24.4875,3877.0
24.49,3844.0
24.4925,3850.0
24.495,3919.0
24.4975,3921.0
24.5,4020.0
24.5025,3998.0
24.505,3963.0
24.5075,3856.0
24.51,3851.0
24.5125,3852.0
24.515,3882.0
24.5175,4005.0
24.52,4034.0
24.5225,4044.0
24.525,3976.0
24.5275,3920.0
24.53,3886.0
24.5325,3854.0
24.535,3955.0
24.5375,4037.0
24.54,4090.0
24.5425,4072.0
24.545,3999.0
24.5475,3924.0
24.55,3879.0
24.5525,3941.0
24.555,3992.0
24.5575,4048.0
24.56,4083.0
24.5625,4057.0
24.565,4004.0
24.5675,3913.0
24.57,3918.0
24.5725,3931.0
24.575,4019.0
24.5775,4078.0
24.58,4118.0
24.5825,4086.0
24.585,3956.0
24.5875,3946.0
24.59,3930.0
24.5925,3968.0
24.595,4019.0
24.5975,4102.0
24.6,4148.0
24.6025,4053.0
24.605,4007.0
24.6075,3932.0
24.61,3910.0
24.6125,3967.0
24.615,4020.0
24.6175,4105.0
24.62,4097.0
24.6225,4061.0
24.625,4005.0
24.6275,3950.0
24.63,3905.0
24.6325,4008.0
24.635,4085.0
24.6375,4108.0
24.64,4148.0
24.6425,4061.0
24.645,3996.0
24.6475,3952.0
24.65,3927.0
24.6525,4011.0
24.655,4041.0
24.6575,4121.0
24.66,4147.0
24.6625,4033.0
24.665,3985.0
24.6675,3970.0
24.67,3962.0
24.6725,3980.0
24.675,4070.0
24.6775,4127.0
24.68,4128.0
24.6825,4044.0
24.685,4022.0
24.6875,3980.0
24.69,3957.0
24.6925,4066.0
24.695,4124.0
24.6975,4152.0
24.7,4135.0
24.7025,4073.0
24.705,3982.0
24.7075,3928.0
24.71,3970.0
24.7125,4048.0
24.715,4112.0
24.7175,4139.0
24.72,4143.0
24.7225,4055.0
24.725,3967.0
24.7275,3956.0
24.73,3968.0
24.7325,4066.0
24.735,4092.0
24.7375,4130.0
24.74,4092.0
24.7425,3995.0
24.745,3990.0
24.7475,3963.0
24.75,3977.0
24.7525,4048.0
24.755,4104.0
24.7575,4134.0
24.76,4072.0
24.7625,4003.0
24.765,3968.0
24.7675,3955.0
24.77,3993.0
24.7725,4068.0
24.775,4124.0
24.7775,4106.0
24.78,4060.0
24.7825,3989.0
24.785,3958.0
24.7875,3961.0
24.79,4021.0
24.7925,4081.0
24.795,4094.0
24.7975,4130.0
24.8,4081.0
24.8025,4027.0
24.805,3986.0
24.8075,3969.0
24.81,4031.0
24.8125,4032.0
24.815,4114.0
24.8175,4124.0
24.82,4097.0
24.8225,4013.0
24.825,4021.0
24.8275,4022.0
24.83,4027.0
24.8325,4116.0
24.835,4129.0
24.8375,4125.0
24.84,4085.0
24.8425,4021.0
24.845,4022.0
24.8475,3999.0
24.85,4045.0
24.8525,4097.0
24.855,4132.0
24.8575,4122.0
24.86,4089.0
24.8625,4052.0
24.865,4001.0
24.8675,4055.0
24.87,4085.0
24.8725,4150.0
24.875,4164.0
24.8775,4154.0
24.88,4132.0
24.8825,4042.0
24.885,4041.0
24.8875,4089.0
24.89,4086.0
24.8925,4145.0
24.895,4134.0
24.8975,4102.0
24.9,4054.0
24.9025,4005.0
24.905,3990.0
24.9075,3997.0
24.91,4042.0
24.9125,4106.0
24.915,4097.0
24.9175,4060.0
24.92,4051.0
24.9225,3994.0
24.925,3991.0
24.9275,4045.0
24.93,4062.0
24.9325,4118.0
24.935,4072.0
24.9375,4089.0
24.94,4075.0
24.9425,3989.0
24.945,4015.0
24.9475,4045.0
24.95,4057.0
24.9525,4075.0
24.955,4065.0
24.9575,4037.0
24.96,3994.0
24.9625,3939.0
24.965,3934.0
24.9675,3931.0
24.97,3927.0
24.9725,3958.0
24.975,3964.0
24.9775,4000.0
24.98,4090.0
24.9825,4194.0
24.985,4356.0
24.9875,4474.0
24.99,4641.0
24.9925,4818.0
24.995,4867.0
24.9975,4868.0
25.0,4776.0
25.0025,4557.0
25.005,4421.0
25.0075,4277.0
25.01,4080.0
25.0125,3961.0
25.015,3843.0
25.0175,3804.0
25.02,3754.0
25.0225,3703.0
25.025,3760.0
25.0275,3808.0
25.03,3850.0
25.0325,3912.0
25.035,3924.0
25.0375,3958.0
25.04,3939.0
25.0425,3976.0
25.045,4000.0
25.0475,3991.0
25.05,3997.0
25.0525,3997.0
25.055,3951.0
25.0575,3941.0
25.06,3946.0
25.0625,3964.0
25.065,3994.0
25.0675,4005.0
25.07,3989.0
25.0725,3966.0
25.075,3945.0
25.0775,3966.0
25.08,3959.0
25.0825,3985.0
25.085,4006.0
25.0875,3994.0
25.09,3965.0
25.0925,3939.0
25.095,3954.0
25.0975,3983.0
25.1,4033.0
25.1025,4060.0
25.105,4083.0
25.1075,4028.0
25.11,3988.0
25.1125,4002.0
25.115,3979.0
25.1175,4030.0
25.12,4037.0
25.1225,4081.0
25.125,4086.0
25.1275,4036.0
25.13,4022.0
25.1325,4027.0
25.135,4021.0
25.1375,4035.0
25.14,4072.0
25.1425,4085.0
25.145,4088.0
25.1475,4095.0
25.15,4050.0
25.1525,4047.0
25.155,4059.0
25.1575,4091.0
25.16,4127.0
25.1625,4114.0
25.165,4118.0
25.1675,4110.0
25.17,4081.0
25.1725,4083.0
25.175,4115.0
25.1775,4139.0
25.18,4161.0
25.1825,4188.0
25.185,4179.0
25.1875,4160.0
25.19,4126.0
25.1925,4146.0
25.195,4137.0
25.1975,4147.0
25.2,4208.0
25.2025,4216.0
25.205,4216.0
25.2075,4168.0
25.21,4110.0
25.2125,4121.0
25.215,4099.0
25.2175,4186.0
25.22,4221.0
25.2225,4205.0
25.225,4178.0
25.2275,4110.0
25.23,4069.0
25.2325,4030.0
25.235,4071.0
25.2375,4099.0
25.24,4155.0
25.2425,4062.0
25.245,4069.0
25.2475,3981.0
25.25,3930.0
25.2525,3944.0
25.255,3959.0
25.2575,4026.0
25.26,4071.0
25.2625,4039.0
25.265,3998.0
25.2675,3900.0
25.27,3862.0
25.2725,3873.0
25.275,3917.0
25.2775,3996.0
25.28,4018.0
25.2825,3982.0
25.285,3953.0
25.2875,3888.0
25.29,3872.0
25.2925,3883.0
25.295,3896.0
25.2975,3989.0
25.3,3998.0
25.3025,3973.0
25.305,3982.0
25.3075,3890.0
25.31,3877.0
25.3125,3895.0
25.315,3927.0
25.3175,4022.0
25.32,4035.0
25.3225,4061.0
25.325,4022.0
25.3275,3906.0
25.33,3867.0
25.3325,3918.0
25.335,3963.0
25.3375,4044.0
25.34,4085.0
25.3425,4058.0
25.345,4019.0
25.3475,3922.0
25.35,3902.0
25.3525,3950.0
25.355,3980.0
25.3575,4098.0
25.36,4077.0
25.3625,4055.0
25.365,4011.0
25.3675,3928.0
25.37,3922.0
25.3725,3943.0
25.375,4013.0
25.3775,4085.0
25.38,4113.0
25.3825,4075.0
25.385,4010.0
25.3875,3932.0
25.39,3924.0
25.3925,4001.0
25.395,4059.0
25.3975,4129.0
25.4,4127.0
25.4025,4082.0
25.405,4001.0
25.4075,3909.0
25.41,3944.0
25.4125,3996.0
25.415,4031.0
25.4175,4097.0
25.42,4116.0
25.4225,4058.0
25.425,3984.0
25.4275,3932.0
25.43,3938.0
25.4325,4002.0
25.435,4035.0
25.4375,4108.0
25.44,4130.0
25.4425,4032.0
25.445,3979.0
25.4475,3917.0
25.45,3920.0
25.4525,3996.0
25.455,4049.0
25.4575,4100.0
25.46,4095.0
25.4625,4030.0
25.465,3990.0
25.4675,3937.0
25.47,3931.0
25.4725,4048.0
25.475,4088.0
25.4775,4111.0
25.48,4114.0
25.4825,4033.0
25.485,3988.0
25.4875,3891.0
25.49,3932.0
25.4925,4011.0
25.495,4057.0
25.4975,4143.0
25.5,4114.0
25.5025,4011.0
25.505,3974.0
25.5075,3952.0
25.51,3972.0
25.5125,4036.0
25.515,4095.0
25.5175,4134.0
25.52,4103.0
25.5225,4004.0
25.525,3977.0
25.5275,3926.0
25.53,3959.0
25.5325,4065.0
25.535,4098.0
25.5375,4142.0
25.54,4097.0
25.5425,4001.0
25.545,3959.0
25.5475,3903.0
25.55,4001.0
25.5525,4091.0
25.555,4139.0
25.5575,4184.0
25.56,4101.0
25.5625,4028.0
25.565,3963.0
25.5675,3945.0
25.57,3979.0
25.5725,4093.0
25.575,4124.0
25.5775,4165.0
25.58,4102.0
25.5825,3993.0
25.585,3964.0
25.5875,3939.0
25.59,4012.0
25.5925,4089.0
25.595,4125.0
25.5975,4151.0
25.6,4067.0
25.6025,4026.0
25.605,4001.0
25.6075,3949.0
25.61,4019.0
25.6125,4103.0
25.615,4117.0
25.6175,4099.0
25.62,4066.0
25.6225,3997.0
25.625,3982.0
25.6275,3969.0
25.63,4059.0
25.6325,4099.0
25.635,4102.0
25.6375,4137.0
25.64,4081.0
25.6425,4003.0
25.645,4006.0
25.6475,3993.0
25.65,4036.0
25.6525,4104.0
25.655,4156.0
25.6575,4145.0
25.66,4053.0
25.6625,4003.0
25.665,4008.0
25.6675,4010.0
25.67,4040.0
25.6725,4110.0
25.675,4136.0
25.6775,4137.0
25.68,4076.0
25.6825,4021.0
25.685,4033.0
25.6875,4004.0
25.69,4091.0
25.6925,4150.0
25.695,4137.0
25.6975,4126.0
25.7,4086.0
25.7025,4039.0
25.705,4013.0
25.7075,4038.0
25.71,4069.0
25.7125,4130.0
25.715,4141.0
25.7175,4122.0
25.72,4093.0
25.7225,4014.0
25.725,4051.0
25.7275,4073.0
25.73,4134.0
25.7325,4188.0
25.735,4148.0
25.7375,4100.0
25.74,4013.0
25.7425,3998.0
25.745,4041.0
25.7475,4063.0
25.75,4107.0
25.7525,4094.0
25.755,4042.0
25.7575,4062.0
25.76,4049.0
25.7625,3989.0
25.765,4010.0
25.7675,4027.0
25.77,4094.0
25.7725,4113.0
25.775,4040.0
25.7775,4080.0
25.78,4033.0
25.7825,3997.0
25.785,4038.0
25.7875,4030.0
25.79,4064.0
25.7925,4057.0
25.795,4013.0
25.7975,3997.0
25.8,3957.0
25.8025,3955.0
25.805,4031.0
25.8075,4082.0
25.81,4224.0
25.8125,4412.0
25.815,4509.0
25.8175,4592.0
25.82,4668.0
25.8225,4791.0
25.825,4864.0
25.8275,4809.0
25.83,4685.0
25.8325,4470.0
25.835,4244.0
25.8375,4119.0
25.84,3946.0
25.8425,3844.0
25.845,3819.0
25.8475,3785.0
25.85,3794.0
25.8525,3807.0
25.855,3781.0
25.8575,3827.0
25.86,3852.0
25.8625,3844.0
25.865,3925.0
25.8675,3922.0
25.87,3976.0
25.8725,3988.0
25.875,3947.0
25.8775,3975.0
25.88,3950.0
25.8825,3991.0
25.885,3987.0
25.8875,3977.0
25.89,4010.0
25.8925,4029.0
25.895,3989.0
25.8975,3997.0
25.9,3997.0
25.9025,3989.0
25.905,4030.0
25.9075,4006.0
25.91,4006.0
25.9125,3989.0
25.915,3964.0
25.9175,4009.0
25.92,4026.0
25.9225,4061.0
25.925,4060.0
25.9275,4035.0
25.93,4022.0
25.9325,3978.0
25.935,4035.0
25.9375,4039.0
25.94,4080.0
25.9425,4090.0
25.945,4082.0
25.9475,4053.0
25.95,4025.0
25.9525,4044.0
25.955,4034.0
25.9575,4062.0
25.96,4086.0
25.9625,4094.0
25.965,4115.0
25.9675,4059.0
25.97,4047.0
25.9725,4037.0
25.975,4031.0
25.9775,4095.0
25.98,4154.0
25.9825,4138.0
25.985,4099.0
25.9875,4093.0
25.99,4083.0
25.9925,4089.0
25.995,4095.0
25.9975,4178.0
26.0,4192.0
26.0025,4155.0
26.005,4183.0
26.0075,4112.0
26.01,4102.0
26.0125,4119.0
26.015,4112.0
26.0175,4196.0
26.02,4231.0
26.0225,4232.0
26.025,4221.0
26.0275,4134.0
26.03,4116.0
26.0325,4120.0
26.035,4117.0
26.0375,4160.0
26.04,4230.0
26.0425,4220.0
26.045,4193.0
26.0475,4080.0
26.05,4067.0
26.0525,4075.0
26.055,4053.0
26.0575,4147.0
26.06,4205.0
26.0625,4179.0
26.065,4124.0
26.0675,3995.0
26.07,3980.0
26.0725,3961.0
26.075,3985.0
26.0775,4055.0
26.08,4060.0
26.0825,4033.0
26.085,3996.0
26.0875,3889.0
26.09,3856.0
26.0925,3912.0
26.095,3906.0
26.0975,3982.0
26.1,4007.0
26.1025,3999.0
26.105,3952.0
26.1075,3833.0
26.11,3853.0
26.1125,3896.0
26.115,3920.0
26.1175,3995.0
26.12,4026.0
26.1225,3983.0
26.125,3889.0
26.1275,3839.0
26.13,3829.0
26.1325,3871.0
26.135,3906.0
26.1375,3993.0
26.14,3992.0
26.1425,3933.0
26.145,3943.0
26.1475,3831.0
26.15,3841.0
26.1525,3896.0
26.155,3947.0
26.1575,4047.0
26.16,4015.0
26.1625,4021.0
26.165,3974.0
26.1675,3855.0
26.17,3874.0
26.1725,3916.0
26.175,3993.0
26.1775,4033.0
26.18,4067.0
26.1825,4041.0
26.185,3960.0
26.1875,3888.0
26.19,3907.0
26.1925,3940.0
26.195,3994.0
26.1975,4095.0
26.2,4104.0
26.2025,4032.0
26.205,3970.0
26.2075,3898.0
26.21,3925.0
26.2125,3957.0
26.215,4063.0
26.2175,4134.0
26.22,4132.0
26.2225,4027.0
26.225,3978.0
26.2275,3916.0
26.23,3919.0
26.2325,4024.0
26.235,4071.0
26.2375,4133.0
26.24,4122.0
26.2425,4044.0
26.245,3974.0
26.2475,3894.0
26.25,3944.0
26.2525,4036.0
26.255,4094.0
26.2575,4152.0
26.26,4125.0
26.2625,4052.0
26.265,3965.0
26.2675,3944.0
26.27,3957.0
26.2725,4047.0
26.275,4117.0
26.2775,4181.0
26.28,4163.0
26.2825,4034.0
26.285,3990.0
26.2875,3934.0
26.29,3979.0
26.2925,4078.0
26.295,4118.0
26.2975,4173.0
26.3,4112.0
26.3025,4041.0
26.305,3978.0
26.3075,3934.0
26.31,3990.0
26.3125,4083.0
26.315,4122.0
26.3175,4158.0
26.32,4121.0
26.3225,4035.0
26.325,3995.0
26.3275,3972.0
26.33,4009.0
26.3325,4121.0
26.335,4135.0
26.3375,4233.0
26.34,4166.0
26.3425,4066.0
26.345,4025.0
26.3475,3968.0
26.35,4008.0
26.3525,4085.0
26.355,4146.0
26.3575,4159.0
26.36,4109.0
26.3625,4002.0
26.365,3980.0
26.3675,3942.0
26.37,3994.0
26.3725,4088.0
26.375,4137.0
26.3775,4173.0
26.38,4102.0
26.3825,4003.0
26.385,3976.0
26.3875,3936.0
26.39,4036.0
26.3925,4091.0
26.395,4106.0
26.3975,4143.0
26.4,4076.0
26.4025,3992.0
26.405,3962.0
26.4075,3961.0
26.41,4021.0
26.4125,4087.0
26.415,4077.0
26.4175,4128.0
26.42,4038.0
26.4225,3925.0
26.425,3967.0
26.4275,3963.0
26.43,4043.0
26.4325,4094.0
26.435,4120.0
26.4375,4128.0
26.44,4045.0
26.4425,4013.0
26.445,3975.0
26.4475,3967.0
26.45,4038.0
26.4525,4119.0
26.455,4153.0
26.4575,4131.0
26.46,4082.0
26.4625,4014.0
26.465,4005.0
26.4675,4007.0
26.47,4079.0
26.4725,4123.0
26.475,4123.0
26.4775,4141.0
26.48,4083.0
26.4825,4014.0
26.485,4015.0
26.4875,4034.0
26.49,4085.0
26.4925,4122.0
26.495,4151.0
26.4975,4122.0
26.5,4060.0
26.5025,3985.0
26.505,3985.0
26.5075,3983.0
26.51,4004.0
26.5125,4094.0
26.515,4090.0
26.5175,4069.0
26.52,4023.0
26.5225,3980.0
26.525,4019.0
26.5275,3990.0
26.53,4050.0
26.5325,4093.0
26.535,4093.0
26.5375,4077.0
26.54,4048.0
26.5425,4007.0
26.545,3968.0
26.5475,3986.0
26.55,4051.0
26.5525,4092.0
26.555,4013.0
26.5575,3974.0
26.56,3923.0
26.5625,3838.0
26.565,3918.0
26.5675,3989.0
26.57,4139.0
26.5725,4306.0
26.575,4429.0
26.5775,4542.0
26.58,4564.0
26.5825,4704.0
26.585,4850.0
26.5875,4851.0
26.59,4832.0
26.5925,4712.0
26.595,4481.0
26.5975,4304.0
26.6,4080.0
26.6025,3913.0
26.605,3873.0
26.6075,3801.0
26.61,3805.0
26.6125,3790.0
26.615,3744.0
26.6175,3829.0
26.62,3846.0
26.6225,3882.0
26.625,3938.0
26.6275,3922.0
26.63,3999.0
26.6325,3996.0
26.635,4006.0
26.6375,4023.0
26.64,3986.0
26.6425,3957.0
26.645,3983.0
26.6475,3971.0
26.65,3980.0
26.6525,4004.0
26.655,3979.0
26.6575,4001.0
26.66,3989.0
26.6625,4000.0
26.665,4031.0
26.6675,3992.0
26.67,4023.0
26.6725,3992.0
26.675,3967.0
26.6775,4009.0
26.68,3997.0
26.6825,4005.0
26.685,4013.0
26.6875,4012.0
26.69,4025.0
26.6925,3999.0
26.695,4002.0
26.6975,4028.0
26.7,4039.0
26.7025,4001.0
26.705,4062.0
26.7075,4033.0
26.71,4031.0
26.7125,4027.0
26.715,4023.0
26.7175,4030.0
26.72,4006.0
26.7225,4041.0
26.725,4086.0
26.7275,4069.0
26.73,4046.0
26.7325,4028.0
26.735,4036.0
26.7375,4067.0
26.74,4099.0
26.7425,4091.0
26.745,4085.0
26.7475,4058.0
26.75,4028.0
26.7525,4047.0
26.755,4017.0
26.7575,4114.0
26.76,4136.0
26.7625,4142.0
26.765,4153.0
26.7675,4093.0
26.77,4087.0
26.7725,4075.0
26.775,4085.0
26.7775,4146.0
26.78,4156.0
26.7825,4159.0
26.785,4171.0
26.7875,4136.0
26.79,4108.0
26.7925,4110.0
26.795,4121.0
26.7975,4178.0
26.8,4169.0
26.8025,4147.0
26.805,4166.0
26.8075,4115.0
26.81,4105.0
26.8125,4104.0
26.815,4111.0
26.8175,4153.0
26.82,4141.0
26.8225,4120.0
26.825,4066.0
26.8275,4005.0
26.83,3960.0
26.8325,3995.0
26.835,3993.0
26.8375,4060.0
26.84,4070.0
26.8425,4006.0
26.845,3998.0
26.8475,3941.0
26.85,3908.0
26.8525,3906.0
26.855,3946.0
26.8575,4001.0
26.86,3967.0
26.8625,3965.0
26.865,3966.0
26.8675,3907.0
26.87,3875.0
26.8725,3884.0
26.875,3900.0
26.8775,3957.0
26.88,4000.0
26.8825,3965.0
26.885,3939.0
26.8875,3869.0
26.89,3879.0
26.8925,3886.0
26.895,3885.0
26.8975,3970.0
26.9,4001.0
26.9025,3978.0
26.905,3940.0
26.9075,3870.0
26.91,3861.0
26.9125,3868.0
26.915,3927.0
26.9175,3986.0
26.92,3996.0
26.9225,3982.0
26.925,3954.0
26.9275,3864.0
26.93,3854.0
26.9325,3921.0
26.935,3958.0
26.9375,4073.0
26.94,4073.0
26.9425,4026.0
26.945,3998.0
26.9475,3873.0
26.95,3889.0
26.9525,3926.0
26.955,3999.0
26.9575,4064.0
26.96,4074.0
26.9625,4036.0
26.965,3966.0
26.9675,3916.0
26.97,3911.0
26.9725,3921.0
26.975,3995.0
26.9775,4090.0
26.98,4047.0
26.9825,4004.0
26.985,3985.0
26.9875,3916.0
26.99,3928.0
26.9925,3971.0
26.995,4046.0
26.9975,4100.0
27.0,4081.0
27.0025,4046.0
27.005,3969.0
27.0075,3923.0
27.01,3922.0
27.0125,3975.0
27.015,4036.0
27.0175,4084.0
27.02,4115.0
27.0225,4021.0
27.025,3985.0
27.0275,3933.0
27.03,3963.0
27.0325,4019.0
27.035,4029.0
27.0375,4133.0
27.04,4101.0
27.0425,4015.0
27.045,3963.0
27.0475,3920.0
27.05,3913.0
27.0525,3977.0
27.055,4089.0
27.0575,4173.0
27.06,4139.0
27.0625,4035.0
27.065,3988.0
27.0675,3915.0
27.07,3908.0
27.0725,4047.0
27.075,4091.0
27.0775,4169.0
27.08,4113.0
27.0825,4015.0
27.085,3983.0
27.0875,3897.0
27.09,3939.0
27.0925,4047.0
27.095,4097.0
27.0975,4132.0
27.1,4091.0
27.1025,4016.0
27.105,3932.0
27.1075,3905.0
27.11,3947.0
27.1125,4020.0
27.115,4082.0
27.1175,4135.0
27.12,4095.0
27.1225,3984.0
27.125,3935.0
27.1275,3889.0
27.13,3938.0
27.1325,4032.0
27.135,4078.0
27.1375,4157.0
27.14,4077.0
27.1425,4030.0
27.145,3978.0
27.1475,3943.0
27.15,3998.0
27.1525,4095.0
27.155,4129.0
27.1575,4152.0
27.16,4105.0
27.1625,4007.0
27.165,3990.0
27.1675,3930.0
27.17,4025.0
27.1725,4101.0
27.175,4117.0
27.1775,4204.0
27.18,4124.0
27.1825,4032.0
27.185,3989.0
27.1875,3971.0
27.19,4028.0
27.1925,4100.0
27.195,4143.0
27.1975,4153.0
27.2,4072.0
27.2025,3987.0
27.205,3960.0
27.2075,3947.0
27.21,3995.0
27.2125,4105.0
27.215,4112.0
27.2175,4137.0
27.22,4067.0
27.2225,4000.0
27.225,3980.0
27.2275,3968.0
27.23,4069.0
27.2325,4128.0
27.235,4144.0
27.2375,4149.0
27.24,4112.0
27.2425,4065.0
27.245,3999.0
27.2475,4005.0
27.25,4058.0
27.2525,4154.0
27.255,4167.0
27.2575,4167.0
27.26,4086.0
27.2625,3994.0
27.265,3983.0
27.2675,3983.0
27.27,4029.0
27.2725,4093.0
27.275,4114.0
27.2775,4089.0
27.28,4007.0
27.2825,3980.0
27.285,3986.0
27.2875,4009.0
27.29,4052.0
27.2925,4085.0
27.295,4090.0
27.2975,4048.0
27.3,4006.0
27.3025,3931.0
27.305,3959.0
27.3075,3991.0
27.31,4013.0
27.3125,4068.0
27.315,4027.0
27.3175,4038.0
27.32,3992.0
27.3225,3882.0
27.325,3863.0
27.3275,3885.0
27.33,3959.0
27.3325,4035.0
27.335,4128.0
27.3375,4182.0
27.34,4271.0
27.3425,4337.0
27.345,4490.0
27.3475,4619.0
27.35,4773.0
27.3525,4921.0
27.355,4886.0
27.3575,4772.0
27.36,4546.0
27.3625,4390.0
27.365,4222.0
27.3675,4013.0
27.37,3937.0
27.3725,3897.0
27.375,3792.0
27.3775,3760.0
27.38,3714.0
27.3825,3727.0
27.385,3759.0
27.3875,3833.0
27.39,3907.0
27.3925,4001.0
27.395,3958.0
27.3975,3959.0
27.4,3945.0
27.4025,3903.0
27.405,3971.0
27.4075,3982.0
27.41,4037.0
27.4125,4030.0
27.415,3980.0
27.4175,4014.0
27.42,3988.0
27.4225,3945.0
27.425,4015.0
27.4275,4020.0
27.43,4060.0
27.4325,4071.0
27.435,4050.0
27.4375,4049.0
27.44,4015.0
27.4425,4004.0
27.445,4039.0
27.4475,4018.0
27.45,4028.0
27.4525,4032.0
27.455,3981.0
27.4575,4014.0
27.46,3987.0
27.4625,4008.0
27.465,4034.0
27.4675,4043.0
27.47,4050.0
27.4725,4011.0
27.475,4012.0
27.4775,4022.0
27.48,4007.0
27.4825,4017.0
27.485,4072.0
27.4875,4060.0
27.49,4077.0
27.4925,4094.0
27.495,4082.0
27.4975,4076.0
27.5,4042.0
27.5025,4078.0
27.505,4091.0
27.5075,4078.0
27.51,4113.0
27.5125,4124.0
27.515,4093.0
27.5175,4100.0
27.52,4097.0
27.5225,4119.0
27.525,4119.0
27.5275,4131.0
27.53,4099.0
27.5325,4098.0
27.535,4103.0
27.5375,4100.0
27.54,4114.0
27.5425,4112.0
27.545,4178.0
27.5475,4158.0
27.55,4161.0
27.5525,4159.0
27.555,4142.0
27.5575,4159.0
27.56,4169.0
27.5625,4188.0
27.565,4207.0
27.5675,4175.0
27.57,4154.0
27.5725,4161.0
27.575,4167.0
27.5775,4167.0
27.58,4233.0
27.5825,4221.0
27.585,4199.0
27.5875,4126.0
27.59,4100.0
27.5925,4076.0
27.595,4020.0
27.5975,4077.0
27.6,4087.0
27.6025,4071.0
27.605,4064.0
27.6075,4025.0
27.61,3977.0
27.6125,3961.0
27.615,3991.0
27.6175,4016.0
27.62,3989.0
27.6225,3980.0
27.625,3989.0
27.6275,3931.0
27.63,3890.0
27.6325,3910.0
27.635,3909.0
27.6375,3929.0
27.64,3957.0
27.6425,3945.0
27.645,3953.0
27.6475,3859.0
27.65,3879.0
27.6525,3916.0
27.655,3900.0
27.6575,3945.0
27.66,3971.0
27.6625,3950.0
27.665,3961.0
27.6675,3906.0
27.67,3886.0
27.6725,3925.0
27.675,3903.0
27.6775,3970.0
27.68,3966.0
27.6825,3981.0
27.685,3991.0
27.6875,3932.0
27.69,3884.0
27.6925,3905.0
27.695,3935.0
27.6975,3993.0
27.7,3986.0
27.7025,4015.0
27.705,3998.0
27.7075,3938.0
27.71,3940.0
27.7125,3969.0
27.715,3951.0
27.7175,3987.0
27.72,4032.0
27.7225,3991.0
27.725,3976.0
27.7275,3918.0
27.73,3884.0
27.7325,3939.0
27.735,3963.0
27.7375,4048.0
27.74,4053.0
27.7425,4066.0
27.745,4020.0
27.7475,3947.0
27.75,3933.0
27.7525,3905.0
27.755,3999.0
27.7575,4062.0
27.76,4061.0
27.7625,4067.0
27.765,4009.0
27.7675,3938.0
27.77,3897.0
27.7725,3973.0
27.775,4001.0
27.7775,4071.0
27.78,4105.0
27.7825,4073.0
27.785,4013.0
27.7875,3909.0
27.79,3926.0
27.7925,3952.0
27.795,4015.0
27.7975,4084.0
27.8,4102.0
27.8025,4072.0
27.805,4004.0
27.8075,3982.0
27.81,3948.0
27.8125,4022.0
27.815,4045.0
27.8175,4122.0
27.82,4112.0
27.8225,4068.0
27.825,4059.0
27.8275,4025.0
27.83,3998.0
27.8325,4024.0
27.835,4085.0
27.8375,4110.0
27.84,4097.0
27.8425,4067.0
27.845,4005.0
27.8475,3962.0
27.85,3953.0
27.8525,4010.0
27.855,4058.0
27.8575,4082.0
27.86,4154.0
27.8625,4101.0
27.865,4025.0
27.8675,3989.0
27.87,4010.0
27.8725,4086.0
27.875,4090.0
27.8775,4157.0
27.88,4146.0
27.8825,4100.0
27.885,4054.0
27.8875,3995.0
27.89,3998.0
27.8925,4038.0
27.895,4092.0
27.8975,4136.0
27.9,4118.0
27.9025,4039.0
27.905,3987.0
27.9075,3974.0
27.91,3986.0
27.9125,4066.0
27.915,4089.0
27.9175,4159.0
27.92,4111.0
27.9225,4051.0
27.925,3993.0
27.9275,3948.0
27.93,4003.0
27.9325,4055.0
27.935,4090.0
27.9375,4115.0
27.94,4088.0
27.9425,4029.0
27.945,3981.0
27.9475,3964.0
27.95,4020.0
27.9525,4118.0
27.955,4123.0
27.9575,4161.0
27.96,4086.0
27.9625,4018.0
27.965,4010.0
27.9675,4007.0
27.97,4055.0
27.9725,4115.0
27.975,4147.0
27.9775,4179.0
27.98,4113.0
27.9825,4077.0
27.985,4042.0
27.9875,4006.0
27.99,4069.0
27.9925,4147.0
27.995,4196.0
27.9975,4168.0
28.0,4101.0
28.0025,4048.0
28.005,4005.0
28.0075,3970.0
28.01,4031.0
28.0125,4088.0
28.015,4082.0
28.0175,4113.0
28.02,4060.0
28.0225,4024.0
28.025,3976.0
28.0275,3977.0
28.03,4034.0
28.0325,4099.0
28.035,4132.0
28.0375,4107.0
28.04,4081.0
28.0425,4018.0
28.045,4003.0
28.0475,4020.0
28.05,4026.0
28.0525,4087.0
28.055,4096.0
28.0575,4067.0
28.06,3998.0
28.0625,3936.0
28.065,3913.0
28.0675,3920.0
28.07,3999.0
28.0725,4065.0
28.075,4079.0
28.0775,4051.0
28.08,4009.0
28.0825,3989.0
28.085,3945.0
28.0875,3956.0
28.09,4022.0
28.0925,4058.0
28.095,4070.0
28.0975,4070.0
28.1,4004.0
28.1025,3919.0
28.105,3941.0
28.1075,4002.0
28.11,4019.0
28.1125,4081.0
28.115,4063.0
28.1175,4039.0
28.12,3984.0
28.1225,3924.0
28.125,3869.0
28.1275,3931.0
28.13,3963.0
28.1325,3992.0
28.135,4013.0
28.1375,4071.0
28.14,4133.0
28.1425,4261.0
28.145,4383.0
28.1475,4537.0
28.15,4712.0
28.1525,4879.0
28.155,4881.0
28.1575,4861.0
28.16,4682.0
28.1625,4440.0
28.165,4285.0
28.1675,4113.0
28.17,3980.0
28.1725,3891.0
28.175,3822.0
28.1775,3768.0
28.18,3735.0
28.1825,3725.0
28.185,3774.0
28.1875,3819.0
28.19,3885.0
28.1925,3975.0
28.195,3956.0
28.1975,3961.0
28.2,3947.0
28.2025,3923.0
28.205,3969.0
28.2075,3958.0
28.21,4001.0
28.2125,4015.0
28.215,3973.0
28.2175,3967.0
28.22,3936.0
28.2225,3935.0
28.225,3934.0
28.2275,3968.0
28.23,4014.0
28.2325,4043.0
28.235,3981.0
28.2375,3988.0
28.24,3964.0
28.2425,3952.0
28.245,3995.0
28.2475,4015.0
28.25,4034.0
28.2525,4057.0
28.255,4012.0
28.2575,3999.0
28.26,3988.0
28.2625,4006.0
28.265,4023.0
28.2675,4041.0
28.27,4073.0
28.2725,4075.0
28.275,4057.0
28.2775,4019.0
28.28,4012.0
28.2825,4028.0
28.285,4065.0
28.2875,4070.0
28.29,4102.0
28.2925,4075.0
28.295,4078.0
28.2975,4101.0
28.3,4093.0
28.3025,4082.0
28.305,4096.0
28.3075,4118.0
28.31,4139.0
28.3125,4112.0
28.315,4108.0
28.3175,4119.0
28.32,4119.0
28.3225,4132.0
28.325,4155.0
28.3275,4176.0
28.33,4168.0
28.3325,4170.0
28.335,4147.0
28.3375,4135.0
28.34,4147.0
28.3425,4143.0
28.345,4171.0
28.3475,4153.0
28.35,4184.0
28.3525,4179.0
28.355,4181.0
28.3575,4166.0
28.36,4164.0
28.3625,4177.0
28.365,4141.0
28.3675,4185.0
28.37,4184.0
28.3725,4163.0
28.375,4139.0
28.3775,4154.0
28.38,4150.0
28.3825,4126.0
28.385,4181.0
28.3875,4152.0
28.39,4121.0
28.3925,4102.0
28.395,4085.0
28.3975,4050.0
28.4,4038.0
28.4025,4065.0
28.405,4064.0
28.4075,4026.0
28.41,3988.0
28.4125,3976.0
28.415,3958.0
28.4175,3929.0
28.42,3983.0
28.4225,3973.0
28.425,3976.0
28.4275,3966.0
28.43,3927.0
28.4325,3918.0
28.435,3865.0
28.4375,3907.0
28.44,3926.0
28.4425,3929.0
28.445,3936.0
28.4475,3899.0
28.45,3889.0
28.4525,3910.0
28.455,3918.0
28.4575,3940.0
28.46,3956.0
28.4625,3949.0
28.465,3935.0
28.4675,3930.0
28.47,3917.0
28.4725,3960.0
28.475,3939.0
28.4775,3949.0
28.48,3934.0
28.4825,3955.0
28.485,3942.0
28.4875,3927.0
28.49,3949.0
28.4925,3955.0
28.495,3953.0
28.4975,3965.0
28.5,3990.0
28.5025,4000.0
28.505,3978.0
28.5075,3983.0
28.51,3962.0
28.5125,3974.0
28.515,3984.0
28.5175,4011.0
28.52,3993.0
28.5225,4019.0
28.525,4026.0
28.5275,4002.0
28.53,3987.0
28.5325,3998.0
28.535,4030.0
28.5375,4040.0
28.54,4010.0
28.5425,4020.0
28.545,4007.0
28.5475,4002.0
28.55,4003.0
28.5525,4025.0
28.555,4042.0
28.5575,4024.0
28.56,4053.0
28.5625,4051.0
28.565,4023.0
28.5675,3995.0
28.57,3972.0
28.5725,3991.0
28.575,3999.0
28.5775,4044.0
28.58,4030.0
28.5825,4012.0
28.585,4006.0
28.5875,4015.0
28.59,4016.0
28.5925,4024.0
28.595,4076.0
28.5975,4081.0
28.6,4069.0
28.6025,4037.0
28.605,4028.0
28.6075,4006.0
28.61,3985.0
28.6125,4085.0
28.615,4093.0
28.6175,4067.0
28.62,4081.0
28.6225,3988.0
28.625,3991.0
28.6275,3971.0
28.63,4007.0
28.6325,4021.0
28.635,4054.0
28.6375,4049.0
28.64,4026.0
28.6425,3982.0
28.645,3971.0
28.6475,4005.0
28.65,4008.0
28.6525,4036.0
28.655,4064.0
28.6575,4048.0
28.66,4021.0
28.6625,3961.0
28.665,3952.0
28.6675,3964.0
28.67,4004.0
28.6725,4056.0
28.675,4066.0
28.6775,4081.0
28.68,4011.0
28.6825,3989.0
28.685,3998.0
28.6875,4001.0
28.69,4042.0
28.6925,4081.0
28.695,4070.0
28.6975,4037.0
28.7,4049.0
28.7025,4024.0
28.705,4008.0
28.7075,4015.0
28.71,4050.0
28.7125,4080.0
28.715,4067.0
28.7175,4083.0
28.72,4051.0
28.7225,4013.0
28.725,3987.0
28.7275,4054.0
28.73,4059.0
28.7325,4029.0
28.735,4061.0
28.7375,4042.0
28.74,4020.0
28.7425,4002.0
28.745,4010.0
28.7475,4054.0
28.75,4043.0
28.7525,4072.0
28.755,4084.0
28.7575,4068.0
28.76,4026.0
28.7625,4008.0
28.765,4021.0
28.7675,4034.0
28.77,4070.0
28.7725,4102.0
28.775,4097.0
28.7775,4094.0
28.78,4036.0
28.7825,4021.0
28.785,4012.0
28.7875,4062.0
28.79,4088.0
28.7925,4110.0
28.795,4094.0
28.7975,4097.0
28.8,4028.0
28.8025,4012.0
28.805,4056.0
28.8075,4106.0
28.81,4130.0
28.8125,4114.0
28.815,4119.0
28.8175,4083.0
28.82,4035.0
28.8225,4048.0
28.825,4045.0
28.8275,4102.0
28.83,4124.0
28.8325,4131.0
28.835,4090.0
28.8375,4045.0
28.84,4080.0
28.8425,4059.0
28.845,4037.0
28.8475,4063.0
28.85,4110.0
28.8525,4121.0
28.855,4048.0
28.8575,4054.0
28.86,4021.0
28.8625,4012.0
28.865,4054.0
28.8675,4080.0
28.87,4096.0
28.8725,4065.0
28.875,4079.0
28.8775,4022.0
28.88,4004.0
28.8825,3998.0
28.885,4021.0
28.8875,4041.0
28.89,4032.0
28.8925,4086.0
28.895,4032.0
28.8975,3983.0
28.9,3954.0
28.9025,3947.0
28.905,3953.0
28.9075,3923.0
28.91,3964.0
28.9125,3999.0
28.915,3990.0
28.9175,4024.0
28.92,4128.0
28.9225,4304.0
28.925,4414.0
28.9275,4564.0
28.93,4685.0
28.9325,4809.0
28.935,4843.0
28.9375,4843.0
28.94,4731.0
28.9425,4482.0
28.945,4346.0
28.9475,4201.0
28.95,4034.0
28.9525,3913.0
28.955,3812.0
28.9575,3763.0
28.96,3702.0
28.9625,3718.0
28.965,3757.0
28.9675,3810.0
28.97,3864.0
28.9725,3925.0
28.975,3926.0
28.9775,3884.0
28.98,3940.0
28.9825,3968.0
28.985,3981.0
28.9875,3979.0
28.99,3970.0
28.9925,3972.0
28.995,3948.0
28.9975,3989.0
29.0,3965.0
29.0025,3992.0
29.005,3986.0
29.0075,4002.0
29.01,4002.0
29.0125,3968.0
29.015,3966.0
29.0175,3943.0
29.02,3987.0
29.0225,4021.0
29.025,4032.0
29.0275,4044.0
29.03,4026.0
29.0325,4008.0
29.035,4027.0
29.0375,4031.0
29.04,4015.0
29.0425,4059.0
29.045,4094.0
29.0475,4059.0
29.05,4083.0
29.0525,4081.0
29.055,4074.0
29.0575,4068.0
29.06,4062.0
29.0625,4087.0
29.065,4067.0
29.0675,4087.0
29.07,4077.0
29.0725,4081.0
29.075,4065.0
29.0775,4053.0
29.08,4062.0
29.0825,4055.0
29.085,4123.0
29.0875,4133.0
29.09,4104.0
29.0925,4094.0
29.095,4099.0
29.0975,4100.0
29.1,4078.0
29.1025,4124.0
29.105,4146.0
29.1075,4148.0
29.11,4121.0
29.1125,4130.0
29.115,4133.0
29.1175,4111.0
29.12,4166.0
29.1225,4171.0
29.125,4174.0
29.1275,4167.0
29.13,4162.0
29.1325,4159.0
29.135,4119.0
29.1375,4149.0
29.14,4182.0
29.1425,4218.0
29.145,4208.0
29.1475,4182.0
29.15,4142.0
29.1525,4136.0
29.155,4151.0
29.1575,4176.0
29.16,4203.0
29.1625,4191.0
29.165,4174.0
29.1675,4134.0
29.17,4071.0
29.1725,4086.0
29.175,4058.0
29.1775,4084.0
29.18,4104.0
29.1825,4072.0
29.185,4041.0
29.1875,4019.0
29.19,4013.0
29.1925,4006.0
29.195,3980.0
29.1975,3989.0
29.2,3991.0
29.2025,3978.0
29.205,3950.0
29.2075,3937.0
29.21,3896.0
29.2125,3926.0
29.215,3937.0
29.2175,3964.0
29.22,3962.0
29.2225,3932.0
29.225,3932.0
29.2275,3904.0
29.23,3897.0
29.2325,3905.0
29.235,3925.0
29.2375,3939.0
29.24,3923.0
29.2425,3921.0
29.245,3906.0
29.2475,3894.0
29.25,3901.0
29.2525,3919.0
29.255,3948.0
29.2575,3953.0
29.26,3981.0
29.2625,3971.0
29.265,3976.0
29.2675,3949.0
29.27,3960.0
29.2725,3954.0
29.275,3937.0
29.2775,3995.0
29.28,3989.0
29.2825,3981.0
29.285,3966.0
29.2875,3943.0
29.29,3974.0
29.2925,3960.0
29.295,4015.0
29.2975,4041.0
29.3,4036.0
29.3025,4026.0
29.305,3998.0
29.3075,3963.0
29.31,3962.0
29.3125,4008.0
29.315,4061.0
29.3175,4077.0
29.32,4070.0
29.3225,4050.0
29.325,4009.0
29.3275,4001.0
29.33,4007.0
29.3325,4033.0
29.335,4060.0
29.3375,4045.0
29.34,4067.0
29.3425,4051.0
29.345,4000.0
29.3475,4037.0
29.35,4021.0
29.3525,4032.0
29.355,4051.0
29.3575,4077.0
29.36,4050.0
29.3625,4011.0
29.365,4008.0
29.3675,3998.0
29.37,4029.0
29.3725,4033.0
29.375,4068.0
29.3775,4054.0
29.38,4023.0
29.3825,4017.0
29.385,4013.0
29.3875,4012.0
29.39,4030.0
29.3925,4061.0
29.395,4070.0
29.3975,4046.0
29.4,4065.0
29.4025,3998.0
29.405,3990.0
29.4075,3990.0
29.41,4026.0
29.4125,4063.0
29.415,4034.0
29.4175,4061.0
29.42,4047.0
29.4225,4037.0
29.425,3996.0
29.4275,4002.0
29.43,4029.0
29.4325,4027.0
29.435,4097.0
29.4375,4067.0
29.44,4044.0
29.4425,3986.0
29.445,3989.0
29.4475,4007.0
29.45,4021.0
29.4525,4053.0
29.455,4048.0
29.4575,4053.0
29.46,4009.0
29.4625,4019.0
29.465,4006.0
29.4675,3983.0
29.47,4035.0
29.4725,4055.0
29.475,4048.0
29.4775,4071.0
29.48,4039.0
29.4825,4007.0
29.485,3966.0
29.4875,4019.0
29.49,4049.0
29.4925,4075.0
29.495,4087.0
29.4975,4084.0
29.5,4028.0
29.5025,3988.0
29.505,4020.0
29.5075,4031.0
29.51,4080.0
29.5125,4095.0
29.515,4076.0
29.5175,4060.0
29.52,3999.0
29.5225,3990.0
29.525,3995.0
29.5275,4014.0
29.53,4035.0
29.5325,4064.0
29.535,4066.0
29.5375,4025.0
29.54,3996.0
29.5425,3999.0
29.545,3992.0
29.5475,4004.0
29.55,4046.0
29.5525,4088.0
29.555,4051.0
29.5575,4053.0
29.56,4015.0
29.5625,3974.0
29.565,3975.0
29.5675,3997.0
29.57,4066.0
29.5725,4061.0
29.575,4085.0
29.5775,4051.0
29.58,4003.0
29.5825,4001.0
29.585,4007.0
29.5875,4044.0
29.59,4047.0
29.5925,4097.0
29.595,4085.0
29.5975,4042.0
29.6,3987.0
29.6025,3975.0
29.605,4008.0
29.6075,4020.0
29.61,4064.0
29.6125,4074.0
29.615,4083.0
29.6175,4044.0
29.62,4007.0
29.6225,4010.0
29.625,4014.0
29.6275,4064.0
29.63,4082.0
29.6325,4093.0
29.635,4084.0
29.6375,4051.0
29.64,4017.0
29.6425,3977.0
29.645,4013.0
29.6475,4029.0
29.65,4046.0
29.6525,4053.0
29.655,4033.0
29.6575,4008.0
29.66,3944.0
29.6625,3960.0
29.665,3989.0
29.6675,4036.0
29.67,4036.0
29.6725,4054.0
29.675,4022.0
29.6775,3966.0
29.68,3971.0
29.6825,3979.0
29.685,3982.0
29.6875,4022.0
29.69,4023.0
29.6925,4036.0
29.695,3993.0
29.6975,3979.0
29.7,3979.0
29.7025,3950.0
29.705,3990.0
29.7075,3990.0
29.71,3983.0
29.7125,3915.0
29.715,3888.0
29.7175,3874.0
29.72,3891.0
29.7225,3906.0
29.725,4020.0
29.7275,4135.0
29.73,4252.0
29.7325,4407.0
29.735,4494.0
29.7375,4614.0
29.74,4744.0
29.7425,4813.0
29.745,4835.0
29.7475,4718.0
29.75,4591.0
29.7525,4423.0
29.755,4200.0
29.7575,3986.0
29.76,3850.0
29.7625,3790.0
29.765,3748.0
29.7675,3744.0
29.77,3760.0
29.7725,3779.0
29.775,3799.0
29.7775,3824.0
29.78,3850.0
29.7825,3866.0
29.785,3946.0
29.7875,3963.0
29.79,3962.0
29.7925,3941.0
29.795,3934.0
29.7975,3916.0
29.8,3897.0
29.8025,3919.0
29.805,3962.0
29.8075,3962.0
29.81,3981.0
29.8125,3938.0
29.815,3914.0
29.8175,3874.0
29.82,3899.0
29.8225,3937.0
29.825,3950.0
29.8275,3975.0
29.83,3974.0
29.8325,3953.0
29.835,3915.0
29.8375,3942.0
29.84,3954.0
29.8425,3977.0
29.845,3990.0
29.8475,3992.0
29.85,4001.0
29.8525,3964.0
29.855,3979.0
29.8575,3970.0
29.86,3992.0
29.8625,4024.0
29.865,4022.0
29.8675,4027.0
29.87,3992.0
29.8725,4003.0
29.875,3995.0
29.8775,4007.0
29.88,4028.0
29.8825,4080.0
29.885,4059.0
29.8875,4012.0
29.89,4025.0
29.8925,4020.0
29.895,4029.0
29.8975,4016.0
29.9,4061.0
29.9025,4079.0
29.905,4058.0
29.9075,4103.0
29.91,4105.0
29.9125,4067.0
29.915,4075.0
29.9175,4091.0
29.92,4118.0
29.9225,4129.0
29.925,4129.0
29.9275,4123.0
29.93,4098.0
29.9325,4104.0
29.935,4118.0
29.9375,4112.0
29.94,4137.0
29.9425,4179.0
29.945,4178.0
29.9475,4165.0
29.95,4120.0
29.9525,4106.0
29.955,4105.0
29.9575,4103.0
29.96,4160.0
29.9625,4159.0
29.965,4136.0
29.9675,4132.0
29.97,4093.0
29.9725,4094.0
29.975,4082.0
29.9775,4115.0
29.98,4117.0
29.9825,4109.0
29.985,4079.0
29.9875,4040.0
29.99,4022.0
29.9925,4005.0
29.995,4032.0
29.9975,4045.0
30.0,4004.0
30.0025,4027.0
30.005,4029.0
30.0075,3966.0
30.01,3940.0
30.0125,3934.0
30.015,3940.0
30.0175,3932.0
30.02,3903.0
30.0225,3921.0
30.025,3954.0
30.0275,3900.0
