329.03,3981.0
329.0325,3995.0
329.035,4006.0
329.0375,4009.0
329.04,4005.0
329.0425,3994.0
329.045,3938.0
329.0475,3982.0
329.05,3991.0
329.0525,4031.0
329.055,4001.0
329.0575,4037.0
329.06,4008.0
329.0625,3957.0
329.065,3978.0
329.0675,3964.0
329.07,3962.0
329.0725,3984.0
329.075,4020.0
329.0775,4048.0
329.08,3992.0
329.0825,3982.0
329.085,3948.0
329.0875,3910.0
329.09,3865.0
329.0925,3895.0
329.095,3913.0
329.0975,3929.0
329.1,3976.0
329.1025,3986.0
329.105,4089.0
329.1075,4185.0
329.11,4440.0
329.1125,4566.0
329.115,4719.0
329.1175,4926.0
329.12,4978.0
329.1225,4975.0
329.125,4826.0
329.1275,4609.0
329.13,4454.0
329.1325,4251.0
329.135,4049.0
329.1375,3886.0
329.14,3789.0
329.1425,3711.0
329.145,3676.0
329.1475,3669.0
329.15,3707.0
329.1525,3814.0
329.155,3874.0
329.1575,3923.0
329.16,3933.0
329.1625,3939.0
329.165,3935.0
329.1675,3924.0
329.17,3997.0
329.1725,4033.0
329.175,4009.0
329.1775,3969.0
329.18,3977.0
329.1825,3938.0
329.185,3928.0
329.1875,3966.0
329.19,3971.0
329.1925,3992.0
329.195,3970.0
329.1975,3999.0
329.2,3990.0
329.2025,3926.0
329.205,3938.0
329.2075,3953.0
329.21,3963.0
329.2125,3962.0
329.215,3975.0
329.2175,4002.0
329.22,3982.0
329.2225,3977.0
329.225,3992.0
329.2275,4010.0
329.23,4013.0
329.2325,4057.0
329.235,4034.0
329.2375,3995.0
329.24,3997.0
329.2425,3991.0
329.245,3999.0
329.2475,3990.0
329.25,4030.0
329.2525,4071.0
329.255,4043.0
329.2575,4070.0
329.26,4026.0
329.2625,3983.0
329.265,3993.0
329.2675,4005.0
329.27,4029.0
329.2725,4053.0
329.275,4100.0
329.2775,4106.0
329.28,4098.0
329.2825,4053.0
329.285,4041.0
329.2875,4064.0
329.29,4086.0
329.2925,4116.0
329.295,4142.0
329.2975,4136.0
329.3,4103.0
329.3025,4119.0
329.305,4126.0
329.3075,4113.0
329.31,4143.0
329.3125,4164.0
329.315,4162.0
329.3175,4136.0
329.32,4122.0
329.3225,4101.0
329.325,4120.0
329.3275,4136.0
329.33,4162.0
329.3325,4163.0
329.335,4135.0
329.3375,4142.0
329.34,4135.0
329.3425,4097.0
329.345,4123.0
329.3475,4110.0
329.35,4109.0
329.3525,4110.0
329.355,4100.0
329.3575,4083.0
329.36,4032.0
329.3625,3998.0
329.365,3986.0
329.3675,4011.0
329.37,4019.0
329.3725,4019.0
329.375,4017.0
329.3775,3988.0
329.38,3973.0
329.3825,3966.0
329.385,3969.0
329.3875,3939.0
329.39,3946.0
329.3925,3967.0
329.395,3934.0
329.3975,3948.0
329.4,3948.0
329.4025,3927.0
329.405,3923.0
329.4075,3948.0
329.41,3964.0
329.4125,3921.0
329.415,3942.0
329.4175,3932.0
329.42,3952.0
329.4225,3925.0
329.425,3937.0
329.4275,3943.0
329.43,3963.0
329.4325,3986.0
329.435,3972.0
329.4375,3950.0
329.44,3944.0
329.4425,3943.0
329.445,3959.0
329.4475,3919.0
329.45,3938.0
329.4525,3975.0
329.455,3949.0
329.4575,3949.0
329.46,3961.0
329.4625,3943.0
329.465,3924.0
329.4675,3949.0
329.47,3948.0
329.4725,3954.0
329.475,3930.0
329.4775,3935.0
329.48,3949.0
329.4825,3940.0
329.485,3983.0
329.4875,3985.0
329.49,3994.0
329.4925,3981.0
329.495,3985.0
329.4975,4000.0
329.5,3991.0
329.5025,4012.0
329.505,4005.0
329.5075,3998.0
329.51,3992.0
329.5125,4001.0
329.515,3997.0
329.5175,3978.0
329.52,4018.0
329.5225,4024.0
329.525,4046.0
329.5275,4015.0
329.53,4023.0
329.5325,4036.0
329.535,4002.0
329.5375,4023.0
329.54,4023.0
329.5425,4025.0
329.545,3995.0
329.5475,4020.0
329.55,4037.0
329.5525,4016.0
329.555,4025.0
329.5575,4042.0
329.56,4043.0
329.5625,4034.0
329.565,4049.0
329.5675,4035.0
329.57,4011.0
329.5725,4041.0
329.575,4016.0
329.5775,4040.0
329.58,4029.0
329.5825,4042.0
329.585,4044.0
329.5875,4028.0
329.59,4053.0
329.5925,4057.0
329.595,4045.0
329.5975,4031.0
329.6,4034.0
329.6025,4038.0
329.605,4040.0
329.6075,4049.0
329.61,4059.0
329.6125,4041.0
329.615,4021.0
329.6175,4040.0
329.62,4018.0
329.6225,4013.0
329.625,4038.0
329.6275,4032.0
329.63,4043.0
329.6325,4012.0
329.635,4050.0
329.6375,4029.0
329.64,4014.0
329.6425,4017.0
329.645,4028.0
329.6475,4008.0
329.65,3993.0
329.6525,4012.0
329.655,4042.0
329.6575,4030.0
329.66,4027.0
329.6625,4020.0
329.665,3980.0
329.6675,3934.0
329.67,3992.0
329.6725,3995.0
329.675,3989.0
329.6775,4004.0
329.68,4037.0
329.6825,4029.0
329.685,4040.0
329.6875,4014.0
329.69,4017.0
329.6925,4009.0
329.695,4035.0
329.6975,4059.0
329.7,4061.0
329.7025,4042.0
329.705,4027.0
329.7075,4024.0
329.71,3995.0
329.7125,4036.0
329.715,4061.0
329.7175,4049.0
329.72,4050.0
329.7225,4039.0
329.725,4061.0
329.7275,3995.0
329.73,4002.0
329.7325,4019.0
329.735,4017.0
329.7375,4040.0
329.74,4043.0
329.7425,4021.0
329.745,3991.0
329.7475,4021.0
329.75,4026.0
329.7525,4039.0
329.755,4060.0
329.7575,4080.0
329.76,4060.0
329.7625,4024.0
329.765,4033.0
329.7675,4042.0
329.77,4044.0
329.7725,4040.0
329.775,4052.0
329.7775,4043.0
329.78,4016.0
329.7825,4036.0
329.785,3999.0
329.7875,3961.0
329.79,3950.0
329.7925,3961.0
329.795,3971.0
329.7975,4004.0
329.8,4084.0
329.8025,4160.0
329.805,4288.0
329.8075,4440.0
329.81,4580.0
329.8125,4731.0
329.815,4878.0
329.8175,5005.0
329.82,4978.0
329.8225,4890.0
329.825,4660.0
329.8275,4487.0
329.83,4305.0
329.8325,4053.0
329.835,3919.0
329.8375,3835.0
329.84,3720.0
329.8425,3661.0
329.845,3677.0
329.8475,3711.0
329.85,3752.0
329.8525,3847.0
329.855,3896.0
329.8575,3960.0
329.86,3930.0
329.8625,3957.0
329.865,3937.0
329.8675,3924.0
329.87,3977.0
329.8725,3959.0
329.875,4009.0
329.8775,3996.0
329.88,3972.0
329.8825,3965.0
329.885,3941.0
329.8875,3984.0
329.89,4003.0
329.8925,4019.0
329.895,4031.0
329.8975,4014.0
329.9,4010.0
329.9025,3972.0
329.905,3974.0
329.9075,4002.0
329.91,4011.0
329.9125,4020.0
329.915,4042.0
329.9175,4048.0
329.92,3984.0
329.9225,3986.0
329.925,3976.0
329.9275,3994.0
329.93,3995.0
329.9325,4039.0
329.935,4066.0
329.9375,4032.0
329.94,4033.0
329.9425,3996.0
329.945,3985.0
329.9475,3963.0
329.95,4032.0
329.9525,4039.0
329.955,4043.0
329.9575,4046.0
329.96,4032.0
329.9625,4013.0
329.965,4010.0
329.9675,4023.0
329.97,4035.0
329.9725,4029.0
329.975,4067.0
329.9775,4068.0
329.98,4055.0
329.9825,4052.0
329.985,4044.0
329.9875,4068.0
329.99,4060.0
329.9925,4103.0
329.995,4140.0
329.9975,4118.0
330.0,4102.0
330.0025,4126.0
330.005,4086.0
330.0075,4086.0
330.01,4134.0
330.0125,4162.0
330.015,4144.0
330.0175,4095.0
330.02,4114.0
330.0225,4067.0
330.025,4049.0
330.0275,4093.0
330.03,4095.0
330.0325,4116.0
330.035,4088.0
330.0375,4124.0
330.04,4086.0
330.0425,4032.0
330.045,4048.0
330.0475,4064.0
330.05,4082.0
330.0525,4068.0
330.055,4074.0
330.0575,4028.0
330.06,3980.0
330.0625,3970.0
330.065,3968.0
330.0675,3986.0
330.07,4002.0
330.0725,3994.0
330.075,3973.0
330.0775,3921.0
330.08,3881.0
330.0825,3869.0
330.085,3872.0
330.0875,3899.0
330.09,3925.0
330.0925,3932.0
330.095,3902.0
330.0975,3898.0
330.1,3902.0
330.1025,3874.0
330.105,3869.0
330.1075,3882.0
330.11,3909.0
330.1125,3874.0
330.115,3899.0
330.1175,3876.0
330.12,3828.0
330.1225,3814.0
330.125,3876.0
330.1275,3909.0
330.13,3903.0
330.1325,3923.0
330.135,3919.0
330.1375,3922.0
330.14,3885.0
330.1425,3891.0
330.145,3881.0
330.1475,3910.0
330.15,3959.0
330.1525,3961.0
330.155,3935.0
330.1575,3931.0
330.16,3926.0
330.1625,3940.0
330.165,3912.0
330.1675,3950.0
330.17,4022.0
330.1725,4021.0
330.175,4007.0
330.1775,4003.0
330.18,3971.0
330.1825,3942.0
330.185,3965.0
330.1875,4000.0
330.19,4011.0
330.1925,4005.0
330.195,4009.0
330.1975,3972.0
330.2,3933.0
330.2025,3975.0
330.205,4026.0
330.2075,4043.0
330.21,3993.0
330.2125,4024.0
330.215,4049.0
330.2175,4030.0
330.22,4019.0
330.2225,4025.0
330.225,4010.0
330.2275,4053.0
330.23,4069.0
330.2325,4060.0
330.235,4051.0
330.2375,4072.0
330.24,4042.0
330.2425,4019.0
330.245,4028.0
330.2475,4077.0
330.25,4089.0
330.2525,4040.0
330.255,4049.0
330.2575,4050.0
330.26,4042.0
330.2625,4064.0
330.265,4084.0
330.2675,4078.0
330.27,4075.0
330.2725,4092.0
330.275,4082.0
330.2775,4052.0
330.28,4060.0
330.2825,4074.0
330.285,4092.0
330.2875,4068.0
330.29,4086.0
330.2925,4080.0
330.295,4059.0
330.2975,4050.0
330.3,4051.0
330.3025,4053.0
330.305,4034.0
330.3075,4053.0
330.31,4085.0
330.3125,4092.0
330.315,4049.0
330.3175,4082.0
330.32,4084.0
330.3225,4069.0
330.325,4096.0
330.3275,4086.0
330.33,4113.0
330.3325,4098.0
330.335,4101.0
330.3375,4095.0
330.34,4067.0
330.3425,4100.0
330.345,4108.0
330.3475,4055.0
330.35,4086.0
330.3525,4070.0
330.355,4068.0
330.3575,4063.0
330.36,4046.0
330.3625,4067.0
330.365,4082.0
330.3675,4061.0
330.37,4091.0
330.3725,4074.0
330.375,4049.0
330.3775,4073.0
330.38,4070.0
330.3825,4118.0
330.385,4054.0
330.3875,4081.0
330.39,4084.0
330.3925,4075.0
330.395,4097.0
330.3975,4099.0
330.4,4086.0
330.4025,4093.0
330.405,4103.0
330.4075,4104.0
330.41,4126.0
330.4125,4132.0
330.415,4139.0
330.4175,4108.0
330.42,4077.0
330.4225,4094.0
330.425,4093.0
330.4275,4074.0
330.43,4139.0
330.4325,4121.0
330.435,4108.0
330.4375,4102.0
330.44,4098.0
330.4425,4110.0
330.445,4057.0
330.4475,4046.0
330.45,4085.0
330.4525,4068.0
330.455,4066.0
330.4575,4061.0
330.46,4060.0
330.4625,4044.0
330.465,4060.0
330.4675,4070.0
330.47,4056.0
330.4725,3990.0
330.475,4058.0
330.4775,4054.0
330.48,4024.0
330.4825,4059.0
330.485,4049.0
330.4875,4072.0
330.49,4054.0
330.4925,4074.0
330.495,4077.0
330.4975,4018.0
330.5,3984.0
330.5025,3966.0
330.505,3929.0
330.5075,3917.0
330.51,3950.0
330.5125,3993.0
330.515,4039.0
330.5175,4146.0
330.52,4308.0
330.5225,4459.0
330.525,4574.0
330.5275,4708.0
330.53,4858.0
330.5325,4921.0
330.535,4958.0
330.5375,4831.0
330.54,4595.0
330.5425,4347.0
330.545,4194.0
330.5475,3978.0
330.55,3819.0
330.5525,3802.0
330.555,3763.0
330.5575,3721.0
330.56,3721.0
330.5625,3741.0
330.565,3773.0
330.5675,3790.0
330.57,3866.0
330.5725,3927.0
330.575,3968.0
330.5775,3973.0
330.58,3960.0
330.5825,3954.0
330.585,3942.0
330.5875,3958.0
330.59,3963.0
330.5925,3982.0
330.595,3938.0
330.5975,4005.0
330.6,3993.0
330.6025,3962.0
330.605,3979.0
330.6075,3967.0
330.61,3975.0
330.6125,3980.0
330.615,3992.0
330.6175,4008.0
330.62,3986.0
330.6225,3998.0
330.625,3993.0
330.6275,3990.0
330.63,4034.0
330.6325,4033.0
330.635,4018.0
330.6375,3998.0
330.64,4011.0
330.6425,4005.0
330.645,4012.0
330.6475,3993.0
330.65,3994.0
330.6525,4011.0
330.655,4014.0
330.6575,4034.0
330.66,4039.0
330.6625,4054.0
330.665,4012.0
330.6675,4041.0
330.67,4077.0
330.6725,4036.0
330.675,4073.0
330.6775,4054.0
330.68,4050.0
330.6825,4042.0
330.685,4042.0
330.6875,4058.0
330.69,4082.0
330.6925,4118.0
330.695,4101.0
330.6975,4092.0
330.7,4082.0
330.7025,4108.0
330.705,4087.0
330.7075,4081.0
330.71,4121.0
330.7125,4124.0
330.715,4149.0
330.7175,4123.0
330.72,4109.0
330.7225,4110.0
330.725,4066.0
330.7275,4091.0
330.73,4136.0
330.7325,4150.0
330.735,4138.0
330.7375,4130.0
330.74,4112.0
330.7425,4076.0
330.745,4064.0
330.7475,4095.0
330.75,4102.0
330.7525,4098.0
330.755,4140.0
330.7575,4108.0
330.76,4064.0
330.7625,4054.0
330.765,4052.0
330.7675,4043.0
330.77,4030.0
330.7725,4089.0
330.775,4092.0
330.7775,4007.0
330.78,3997.0
330.7825,3970.0
330.785,3962.0
330.7875,3972.0
330.79,3969.0
330.7925,3976.0
330.795,3941.0
330.7975,3925.0
330.8,3932.0
330.8025,3907.0
330.805,3907.0
330.8075,3924.0
330.81,3933.0
330.8125,3924.0
330.815,3947.0
330.8175,3920.0
330.82,3914.0
330.8225,3867.0
330.825,3897.0
330.8275,3914.0
330.83,3903.0
330.8325,3943.0
330.835,3935.0
330.8375,3917.0
330.84,3846.0
330.8425,3880.0
330.845,3887.0
330.8475,3904.0
330.85,3942.0
330.8525,3931.0
330.855,3921.0
330.8575,3922.0
330.86,3923.0
330.8625,3897.0
330.865,3903.0
330.8675,3962.0
330.87,3971.0
330.8725,3976.0
330.875,3972.0
330.8775,3939.0
330.88,3938.0
330.8825,3891.0
330.885,3926.0
330.8875,3982.0
330.89,3968.0
330.8925,3986.0
330.895,3967.0
330.8975,3944.0
330.9,3883.0
330.9025,3945.0
330.905,3950.0
330.9075,3978.0
330.91,3976.0
330.9125,4004.0
330.915,3994.0
330.9175,3947.0
330.92,3962.0
330.9225,3962.0
330.925,3987.0
330.9275,4026.0
330.93,4030.0
330.9325,4037.0
330.935,3981.0
330.9375,3984.0
330.94,3969.0
330.9425,3960.0
330.945,3947.0
330.9475,4019.0
330.95,4053.0
330.9525,4028.0
330.955,4031.0
330.9575,4006.0
330.96,3988.0
330.9625,3947.0
330.965,4049.0
330.9675,4078.0
330.97,4067.0
330.9725,4071.0
330.975,4055.0
330.9775,4007.0
330.98,3984.0
330.9825,3983.0
330.985,4011.0
330.9875,3995.0
330.99,4026.0
330.9925,4061.0
330.995,4018.0
330.9975,3982.0
331.0,3987.0
331.0025,3978.0
331.005,3999.0
331.0075,4044.0
331.01,4042.0
331.0125,4073.0
331.015,4045.0
331.0175,4006.0
331.02,4019.0
331.0225,3997.0
331.025,4044.0
331.0275,4086.0
331.03,4066.0
331.0325,4037.0
331.035,4022.0
331.0375,3986.0
331.04,3979.0
331.0425,3984.0
331.045,4013.0
331.0475,4051.0
331.05,4018.0
331.0525,4069.0
331.055,4062.0
331.0575,3999.0
331.06,4031.0
331.0625,4024.0
331.065,4060.0
331.0675,4056.0
331.07,4076.0
331.0725,4054.0
331.075,4030.0
331.0775,4026.0
331.08,4068.0
331.0825,4047.0
331.085,4042.0
331.0875,4068.0
331.09,4075.0
331.0925,4057.0
331.095,4054.0
331.0975,4027.0
331.1,4053.0
331.1025,4036.0
331.105,4080.0
331.1075,4078.0
331.11,4034.0
331.1125,4046.0
331.115,4015.0
331.1175,4013.0
331.12,4027.0
331.1225,4026.0
331.125,4075.0
331.1275,4054.0
331.13,4051.0
331.1325,4051.0
331.135,4043.0
331.1375,4008.0
331.14,4003.0
331.1425,4039.0
331.145,4049.0
331.1475,4063.0
331.15,4045.0
331.1525,4032.0
331.155,3969.0
331.1575,3995.0
331.16,4000.0
331.1625,3997.0
331.165,4073.0
331.1675,4082.0
331.17,4045.0
331.1725,4015.0
331.175,3998.0
331.1775,4011.0
331.18,3960.0
331.1825,3997.0
331.185,4008.0
331.1875,3967.0
331.19,3935.0
331.1925,3917.0
331.195,3897.0
331.1975,3907.0
331.2,3976.0
331.2025,4092.0
331.205,4245.0
331.2075,4443.0
331.21,4599.0
331.2125,4685.0
331.215,4792.0
331.2175,4933.0
331.22,4984.0
331.2225,4925.0
331.225,4685.0
331.2275,4474.0
331.23,4246.0
331.2325,4017.0
331.235,3841.0
331.2375,3763.0
331.24,3740.0
331.2425,3695.0
331.245,3720.0
331.2475,3764.0
331.25,3769.0
331.2525,3859.0
331.255,3888.0
331.2575,3931.0
331.26,3947.0
331.2625,3985.0
331.265,3999.0
331.2675,3970.0
331.27,3965.0
331.2725,3963.0
331.275,3947.0
331.2775,3932.0
331.28,3956.0
331.2825,3971.0
331.285,3957.0
331.2875,3988.0
331.29,3985.0
331.2925,3980.0
331.295,3985.0
331.2975,3997.0
331.3,4010.0
331.3025,3981.0
331.305,4003.0
331.3075,3988.0
331.31,3959.0
331.3125,3982.0
331.315,3996.0
331.3175,3998.0
331.32,3988.0
331.3225,4000.0
331.325,3987.0
331.3275,4018.0
331.33,3973.0
331.3325,4045.0
331.335,4039.0
331.3375,4014.0
331.34,4054.0
331.3425,4066.0
331.345,4051.0
331.3475,4056.0
331.35,4059.0
331.3525,4056.0
331.355,4044.0
331.3575,4090.0
331.36,4108.0
331.3625,4101.0
331.365,4110.0
331.3675,4098.0
331.37,4097.0
331.3725,4108.0
331.375,4146.0
331.3775,4144.0
331.38,4149.0
331.3825,4121.0
331.385,4150.0
331.3875,4157.0
331.39,4152.0
331.3925,4188.0
331.395,4192.0
331.3975,4185.0
331.4,4153.0
331.4025,4175.0
331.405,4162.0
331.4075,4154.0
331.41,4164.0
331.4125,4214.0
331.415,4204.0
331.4175,4152.0
331.42,4205.0
331.4225,4196.0
331.425,4178.0
331.4275,4193.0
331.43,4181.0
331.4325,4180.0
331.435,4160.0
331.4375,4156.0
331.44,4169.0
331.4425,4150.0
331.445,4123.0
331.4475,4112.0
331.45,4120.0
331.4525,4103.0
331.455,4108.0
331.4575,4076.0
331.46,4055.0
331.4625,4055.0
331.465,4042.0
331.4675,4055.0
331.47,4039.0
331.4725,4028.0
331.475,4025.0
331.4775,3999.0
331.48,3999.0
331.4825,3986.0
331.485,3956.0
331.4875,3936.0
331.49,3950.0
331.4925,3970.0
331.495,3953.0
331.4975,3975.0
331.5,3963.0
331.5025,3924.0
331.505,3915.0
331.5075,3962.0
331.51,3932.0
331.5125,3944.0
331.515,4009.0
331.5175,4000.0
331.52,3981.0
331.5225,3995.0
331.525,4004.0
331.5275,4015.0
331.53,3979.0
331.5325,4008.0
331.535,4005.0
331.5375,4006.0
331.54,4005.0
331.5425,4023.0
331.545,4002.0
331.5475,4005.0
331.55,4025.0
331.5525,3984.0
331.555,4000.0
331.5575,4007.0
331.56,4012.0
331.5625,3993.0
331.565,3998.0
331.5675,4043.0
331.57,4045.0
331.5725,4057.0
331.575,4043.0
331.5775,4022.0
331.58,3998.0
331.5825,3943.0
331.585,3978.0
331.5875,3977.0
331.59,3991.0
331.5925,3974.0
331.595,4012.0
331.5975,3961.0
331.6,3949.0
331.6025,3967.0
331.605,4002.0
331.6075,4037.0
331.61,4020.0
331.6125,4080.0
331.615,4065.0
331.6175,4039.0
331.62,4055.0
331.6225,4038.0
331.625,4066.0
331.6275,4070.0
331.63,4075.0
331.6325,4087.0
331.635,4051.0
331.6375,4045.0
331.64,4075.0
331.6425,4084.0
331.645,4092.0
331.6475,4077.0
331.65,4098.0
331.6525,4116.0
331.655,4129.0
331.6575,4140.0
331.66,4136.0
331.6625,4153.0
331.665,4174.0
331.6675,4214.0
331.67,4220.0
331.6725,4271.0
331.675,4241.0
331.6775,4259.0
331.68,4204.0
331.6825,4252.0
331.685,4279.0
331.6875,4299.0
331.69,4322.0
331.6925,4310.0
331.695,4296.0
331.6975,4279.0
331.7,4302.0
331.7025,4294.0
331.705,4311.0
331.7075,4348.0
331.71,4368.0
331.7125,4336.0
331.715,4266.0
331.7175,4207.0
331.72,4210.0
331.7225,4204.0
331.725,4254.0
331.7275,4239.0
331.73,4248.0
331.7325,4186.0
331.735,4176.0
331.7375,4130.0
331.74,4046.0
331.7425,4053.0
331.745,4080.0
331.7475,4062.0
331.75,4047.0
331.7525,4047.0
331.755,4014.0
331.7575,3975.0
331.76,3977.0
331.7625,3945.0
331.765,3940.0
331.7675,3923.0
331.77,3966.0
331.7725,3965.0
331.775,3905.0
331.7775,3886.0
331.78,3868.0
331.7825,3857.0
331.785,3829.0
331.7875,3848.0
331.79,3848.0
331.7925,3808.0
331.795,3782.0
331.7975,3747.0
331.8,3722.0
331.8025,3718.0
331.805,3733.0
331.8075,3737.0
331.81,3728.0
331.8125,3736.0
331.815,3741.0
331.8175,3715.0
331.82,3659.0
331.8225,3686.0
331.825,3728.0
331.8275,3744.0
331.83,3781.0
331.8325,3769.0
331.835,3737.0
331.8375,3740.0
331.84,3769.0
331.8425,3770.0
331.845,3781.0
331.8475,3751.0
331.85,3787.0
331.8525,3806.0
331.855,3766.0
331.8575,3761.0
331.86,3757.0
331.8625,3750.0
331.865,3820.0
331.8675,3821.0
331.87,3837.0
331.8725,3791.0
331.875,3781.0
331.8775,3781.0
331.88,3777.0
331.8825,3832.0
331.885,3854.0
331.8875,3874.0
331.89,3880.0
331.8925,3862.0
331.895,3836.0
331.8975,3826.0
331.9,3848.0
331.9025,3860.0
331.905,3920.0
331.9075,3898.0
331.91,3927.0
331.9125,3882.0
331.915,3866.0
331.9175,3872.0
331.92,3865.0
331.9225,3934.0
331.925,3950.0
331.9275,3958.0
331.93,3907.0
331.9325,3833.0
331.935,3819.0
331.9375,3866.0
331.94,3883.0
331.9425,3971.0
331.945,4095.0
331.9475,4239.0
331.95,4400.0
331.9525,4507.0
331.955,4607.0
331.9575,4809.0
331.96,4891.0
331.9625,4981.0
331.965,4919.0
331.9675,4682.0
331.97,4509.0
331.9725,4281.0
331.975,4037.0
331.9775,3848.0
331.98,3758.0
331.9825,3738.0
331.985,3720.0
331.9875,3734.0
331.99,3772.0
331.9925,3792.0
331.995,3828.0
331.9975,3914.0
332.0,3946.0
332.0025,3964.0
332.005,4005.0
332.0075,4018.0
332.01,4023.0
332.0125,3976.0
332.015,3955.0
332.0175,3989.0
332.02,3993.0
332.0225,4057.0
332.025,4072.0
332.0275,4050.0
332.03,4028.0
332.0325,4033.0
332.035,4024.0
332.0375,4020.0
332.04,4041.0
332.0425,4025.0
332.045,4045.0
332.0475,4033.0
332.05,4048.0
332.0525,4010.0
332.055,4004.0
332.0575,4038.0
332.06,4035.0
332.0625,4061.0
332.065,4084.0
332.0675,4100.0
332.07,4084.0
332.0725,4085.0
332.075,4072.0
332.0775,4089.0
332.08,4100.0
332.0825,4097.0
332.085,4117.0
332.0875,4128.0
332.09,4084.0
332.0925,4113.0
332.095,4121.0
332.0975,4131.0
332.1,4114.0
332.1025,4140.0
332.105,4142.0
332.1075,4139.0
332.11,4123.0
332.1125,4116.0
332.115,4129.0
332.1175,4162.0
332.12,4194.0
332.1225,4180.0
332.125,4189.0
332.1275,4210.0
332.13,4207.0
332.1325,4216.0
332.135,4204.0
332.1375,4214.0
332.14,4209.0
332.1425,4205.0
332.145,4238.0
332.1475,4236.0
332.15,4244.0
332.1525,4237.0
332.155,4220.0
332.1575,4223.0
332.16,4215.0
332.1625,4230.0
332.165,4255.0
332.1675,4225.0
332.17,4209.0
332.1725,4208.0
332.175,4165.0
332.1775,4166.0
332.18,4176.0
332.1825,4172.0
332.185,4170.0
332.1875,4151.0
332.19,4126.0
332.1925,4132.0
332.195,4105.0
332.1975,4114.0
332.2,4074.0
332.2025,4048.0
332.205,4037.0
332.2075,4032.0
332.21,4018.0
332.2125,3976.0
332.215,3996.0
332.2175,3990.0
332.22,3975.0
332.2225,3968.0
332.225,3981.0
332.2275,3912.0
332.23,3876.0
332.2325,3924.0
332.235,3895.0
332.2375,3892.0
332.24,3900.0
332.2425,3927.0
332.245,3967.0
332.2475,3946.0
332.25,3912.0
332.2525,3894.0
332.255,3865.0
332.2575,3867.0
332.26,3897.0
332.2625,3894.0
332.265,3853.0
332.2675,3877.0
332.27,3878.0
332.2725,3908.0
332.275,3890.0
332.2775,3901.0
332.28,3898.0
332.2825,3897.0
332.285,3936.0
332.2875,3932.0
332.29,3961.0
332.2925,3975.0
332.295,3955.0
332.2975,3954.0
332.3,3910.0
332.3025,3915.0
332.305,3906.0
332.3075,3903.0
332.31,3937.0
332.3125,3931.0
332.315,3918.0
332.3175,3917.0
332.32,3936.0
332.3225,3919.0
332.325,3970.0
332.3275,3921.0
332.33,3958.0
332.3325,3962.0
332.335,3959.0
332.3375,3949.0
332.34,3937.0
332.3425,3966.0
332.345,3922.0
332.3475,3969.0
332.35,3989.0
332.3525,3951.0
332.355,3962.0
332.3575,3940.0
332.36,3955.0
332.3625,3951.0
332.365,3973.0
332.3675,3937.0
332.37,3951.0
332.3725,4046.0
332.375,4036.0
332.3775,4007.0
332.38,3962.0
332.3825,3953.0
332.385,3984.0
332.3875,3971.0
332.39,4004.0
332.3925,4027.0
332.395,4007.0
332.3975,3979.0
332.4,4005.0
332.4025,3986.0
332.405,3950.0
332.4075,3990.0
332.41,4010.0
332.4125,3996.0
332.415,3973.0
332.4175,3972.0
332.42,3980.0
332.4225,3946.0
332.425,3995.0
332.4275,4015.0
332.43,4009.0
332.4325,3996.0
332.435,3966.0
332.4375,3970.0
332.44,3942.0
332.4425,3976.0
332.445,4015.0
332.4475,3991.0
332.45,3995.0
332.4525,4017.0
332.455,4010.0
332.4575,3976.0
332.46,3966.0
332.4625,3965.0
332.465,3987.0
332.4675,3989.0
332.47,3989.0
332.4725,4006.0
332.475,3964.0
332.4775,3971.0
332.48,3947.0
332.4825,3939.0
332.485,3976.0
332.4875,3990.0
332.49,4000.0
332.4925,3985.0
332.495,3992.0
332.4975,4008.0
332.5,3973.0
332.5025,3972.0
332.505,3997.0
332.5075,3986.0
332.51,4002.0
332.5125,4004.0
332.515,3966.0
332.5175,3943.0
332.52,3928.0
332.5225,3970.0
332.525,3980.0
332.5275,4001.0
332.53,4045.0
332.5325,4022.0
332.535,4009.0
332.5375,3988.0
332.54,3977.0
332.5425,3986.0
332.545,4006.0
332.5475,4042.0
332.55,4059.0
332.5525,4044.0
332.555,3995.0
332.5575,3994.0
332.56,4003.0
332.5625,4013.0
332.565,4056.0
332.5675,4063.0
332.57,4053.0
332.5725,4029.0
332.575,4019.0
332.5775,4002.0
332.58,3988.0
332.5825,4043.0
332.585,4078.0
332.5875,4074.0
332.59,4042.0
332.5925,4020.0
332.595,4007.0
332.5975,3992.0
332.6,4011.0
332.6025,4017.0
332.605,4059.0
332.6075,4054.0
332.61,4086.0
332.6125,4067.0
332.615,4033.0
332.6175,4037.0
332.62,4055.0
332.6225,4084.0
332.625,4099.0
332.6275,4102.0
332.63,4122.0
332.6325,4080.0
332.635,4060.0
332.6375,4071.0
332.64,4065.0
332.6425,4041.0
332.645,4071.0
332.6475,4077.0
332.65,4059.0
332.6525,4045.0
332.655,3980.0
332.6575,3986.0
332.66,3998.0
332.6625,4054.0
332.665,4060.0
332.6675,4042.0
332.67,4071.0
332.6725,4043.0
332.675,4031.0
332.6775,4027.0
332.68,4031.0
332.6825,4058.0
332.685,4043.0
332.6875,4080.0
332.69,4069.0
332.6925,4023.0
332.695,3968.0
332.6975,4005.0
332.7,4009.0
332.7025,4000.0
332.705,4055.0
332.7075,4045.0
332.71,3988.0
332.7125,3940.0
332.715,3918.0
332.7175,3938.0
332.72,3929.0
332.7225,4052.0
332.725,4190.0
332.7275,4343.0
332.73,4480.0
332.7325,4585.0
332.735,4711.0
332.7375,4825.0
332.74,4945.0
332.7425,4976.0
332.745,4863.0
332.7475,4649.0
332.75,4467.0
332.7525,4202.0
332.755,3951.0
332.7575,3843.0
332.76,3791.0
332.7625,3763.0
332.765,3743.0
332.7675,3755.0
332.77,3757.0
332.7725,3759.0
332.775,3821.0
332.7775,3864.0
332.78,3904.0
332.7825,3974.0
332.785,3999.0
332.7875,4001.0
332.79,3977.0
332.7925,3981.0
332.795,3939.0
332.7975,3946.0
332.8,3954.0
332.8025,4008.0
332.805,4018.0
332.8075,4003.0
332.81,4031.0
332.8125,3996.0
332.815,3995.0
332.8175,3966.0
332.82,3997.0
332.8225,4004.0
332.825,4010.0
332.8275,4025.0
332.83,4012.0
332.8325,3988.0
332.835,3963.0
332.8375,3981.0
332.84,3997.0
332.8425,3995.0
332.845,4021.0
332.8475,4037.0
332.85,3994.0
332.8525,3975.0
332.855,4005.0
332.8575,4005.0
332.86,4020.0
332.8625,4037.0
332.865,4032.0
332.8675,4054.0
332.87,4009.0
332.8725,4010.0
332.875,4016.0
332.8775,4021.0
332.88,4035.0
332.8825,4046.0
332.885,4055.0
332.8875,4065.0
332.89,4040.0
332.8925,4009.0
332.895,4035.0
332.8975,4057.0
332.9,4092.0
332.9025,4081.0
332.905,4062.0
332.9075,4113.0
332.91,4072.0
332.9125,4057.0
332.915,4095.0
332.9175,4104.0
332.92,4137.0
332.9225,4153.0
332.925,4170.0
332.9275,4145.0
332.93,4123.0
332.9325,4124.0
332.935,4150.0
332.9375,4129.0
332.94,4166.0
332.9425,4172.0
332.945,4178.0
332.9475,4165.0
332.95,4149.0
332.9525,4148.0
332.955,4164.0
332.9575,4154.0
332.96,4194.0
332.9625,4149.0
332.965,4132.0
332.9675,4153.0
332.97,4099.0
332.9725,4062.0
332.975,4029.0
332.9775,4063.0
332.98,4062.0
332.9825,4040.0
332.985,4058.0
332.9875,4047.0
332.99,4020.0
332.9925,3977.0
332.995,4008.0
332.9975,4004.0
333.0,3975.0
333.0025,3998.0
333.005,3967.0
333.0075,3975.0
333.01,3966.0
333.0125,3950.0
333.015,3940.0
333.0175,3942.0
333.02,3964.0
333.0225,3965.0
333.025,3951.0
333.0275,3961.0
333.03,3956.0
333.0325,3958.0
333.035,3918.0
333.0375,3938.0
333.04,3929.0
333.0425,3928.0
333.045,3871.0
333.0475,3934.0
333.05,3935.0
333.0525,3889.0
333.055,3933.0
333.0575,3938.0
333.06,3950.0
333.0625,3945.0
333.065,3926.0
333.0675,3928.0
333.07,3917.0
333.0725,3958.0
333.075,3965.0
333.0775,3970.0
333.08,3926.0
333.0825,3998.0
333.085,3934.0
333.0875,3937.0
333.09,3963.0
333.0925,3972.0
333.095,3981.0
333.0975,3989.0
333.1,3987.0
333.1025,3979.0
333.105,3952.0
333.1075,3994.0
333.11,4015.0
333.1125,3988.0
333.115,3954.0
333.1175,4004.0
333.12,4027.0
333.1225,3996.0
333.125,4008.0
333.1275,4034.0
333.13,4019.0
333.1325,4002.0
333.135,4020.0
333.1375,4015.0
333.14,4014.0
333.1425,4060.0
333.145,4028.0
333.1475,4034.0
333.15,3977.0
333.1525,4026.0
333.155,4039.0
333.1575,4020.0
333.16,4013.0
333.1625,4004.0
333.165,4011.0
333.1675,4015.0
333.17,4032.0
333.1725,4045.0
333.175,4024.0
333.1775,4038.0
333.18,4045.0
333.1825,4033.0
333.185,4035.0
333.1875,4054.0
333.19,4061.0
333.1925,4032.0
333.195,4065.0
333.1975,4046.0
333.2,4024.0
333.2025,4031.0
333.205,4019.0
333.2075,4026.0
333.21,4004.0
333.2125,4018.0
333.215,4018.0
333.2175,4000.0
333.22,3986.0
333.2225,3986.0
333.225,3998.0
333.2275,3975.0
333.23,3985.0
333.2325,3991.0
333.235,3993.0
333.2375,3971.0
333.24,3998.0
333.2425,3992.0
333.245,3976.0
333.2475,4015.0
333.25,4023.0
333.2525,3997.0
333.255,3993.0
333.2575,3991.0
333.26,4000.0
333.2625,3988.0
333.265,4006.0
333.2675,3997.0
333.27,3993.0
333.2725,3968.0
333.275,4008.0
333.2775,3983.0
333.28,3958.0
333.2825,4020.0
333.285,4032.0
333.2875,4027.0
333.29,4026.0
333.2925,4014.0
333.295,3996.0
333.2975,3964.0
333.3,3984.0
333.3025,3993.0
333.305,4004.0
333.3075,4027.0
333.31,4056.0
333.3125,4035.0
333.315,3998.0
333.3175,4001.0
333.32,4009.0
333.3225,4011.0
333.325,4000.0
333.3275,4063.0
333.33,4066.0
333.3325,4049.0
333.335,4062.0
333.3375,4026.0
333.34,4018.0
333.3425,4065.0
333.345,4084.0
333.3475,4075.0
333.35,4041.0
333.3525,4039.0
333.355,4026.0
333.3575,4019.0
333.36,4036.0
333.3625,4070.0
333.365,4074.0
333.3675,4071.0
333.37,4078.0
333.3725,4083.0
333.375,4064.0
333.3775,4047.0
333.38,4039.0
333.3825,4083.0
333.385,4053.0
333.3875,4096.0
333.39,4090.0
333.3925,4071.0
333.395,4017.0
333.3975,4013.0
333.4,4011.0
333.4025,4028.0
333.405,4065.0
333.4075,4062.0
333.41,4044.0
333.4125,4009.0
333.415,4043.0
333.4175,4049.0
333.42,4011.0
333.4225,4062.0
333.425,4075.0
333.4275,4066.0
333.43,4031.0
333.4325,4074.0
333.435,4056.0
333.4375,4040.0
333.44,4049.0
333.4425,4096.0
333.445,4089.0
333.4475,4075.0
333.45,4058.0
333.4525,4059.0
333.455,4036.0
333.4575,4023.0
333.46,4023.0
333.4625,4049.0
333.465,4061.0
333.4675,4061.0
333.47,4067.0
333.4725,3990.0
333.475,3991.0
333.4775,3988.0
333.48,3998.0
333.4825,4017.0
333.485,4032.0
333.4875,4034.0
333.49,3993.0
333.4925,3997.0
333.495,3996.0
333.4975,3975.0
333.5,3988.0
333.5025,4012.0
333.505,4048.0
333.5075,4008.0
333.51,4011.0
333.5125,4005.0
333.515,3997.0
333.5175,3999.0
333.52,4021.0
333.5225,4024.0
333.525,3981.0
333.5275,3978.0
333.53,3929.0
333.5325,3883.0
333.535,3852.0
333.5375,3915.0
333.54,3972.0
333.5425,4070.0
333.545,4203.0
333.5475,4378.0
333.55,4483.0
333.5525,4604.0
333.555,4735.0
333.5575,4867.0
333.56,4904.0
333.5625,4954.0
333.565,4830.0
333.5675,4538.0
333.57,4329.0
333.5725,4136.0
333.575,3936.0
333.5775,3816.0
333.58,3785.0
333.5825,3784.0
333.585,3778.0
333.5875,3771.0
333.59,3788.0
333.5925,3802.0
333.595,3816.0
333.5975,3867.0
333.6,3926.0
333.6025,3965.0
333.605,3982.0
333.6075,4002.0
333.61,3972.0
333.6125,3934.0
333.615,3931.0
333.6175,3953.0
333.62,3996.0
333.6225,4012.0
333.625,4006.0
333.6275,3996.0
333.63,3965.0
333.6325,3956.0
333.635,3976.0
333.6375,4006.0
333.64,4011.0
333.6425,4021.0
333.645,4039.0
333.6475,4003.0
333.65,4007.0
333.6525,3992.0
333.655,4012.0
333.6575,4012.0
333.66,4045.0
333.6625,4064.0
333.665,4051.0
333.6675,4056.0
333.67,4022.0
333.6725,4010.0
333.675,3986.0
333.6775,4008.0
333.68,4055.0
333.6825,4034.0
333.685,4067.0
333.6875,4063.0
333.69,4024.0
333.6925,4029.0
333.695,4026.0
333.6975,4026.0
333.7,4062.0
333.7025,4102.0
333.705,4118.0
333.7075,4113.0
333.71,4076.0
333.7125,4079.0
333.715,4082.0
333.7175,4106.0
333.72,4156.0
333.7225,4171.0
333.725,4161.0
333.7275,4163.0
333.73,4122.0
333.7325,4107.0
333.735,4086.0
333.7375,4128.0
333.74,4209.0
333.7425,4198.0
333.745,4186.0
333.7475,4165.0
333.75,4158.0
333.7525,4141.0
333.755,4166.0
333.7575,4194.0
333.76,4222.0
333.7625,4210.0
333.765,4201.0
333.7675,4159.0
333.77,4129.0
333.7725,4148.0
333.775,4138.0
333.7775,4174.0
333.78,4186.0
333.7825,4182.0
333.785,4168.0
333.7875,4090.0
333.79,4085.0
333.7925,4090.0
333.795,4053.0
333.7975,4084.0
333.8,4094.0
333.8025,4069.0
333.805,4033.0
333.8075,4030.0
333.81,4011.0
333.8125,4005.0
333.815,3996.0
333.8175,4008.0
333.82,4005.0
333.8225,3966.0
333.825,3966.0
333.8275,3925.0
333.83,3903.0
333.8325,3875.0
333.835,3954.0
333.8375,3966.0
333.84,3945.0
333.8425,3959.0
333.845,3962.0
333.8475,3947.0
333.85,3925.0
333.8525,3944.0
333.855,3938.0
333.8575,3918.0
333.86,3946.0
333.8625,3972.0
333.865,3962.0
333.8675,3954.0
333.87,3955.0
333.8725,3942.0
333.875,3916.0
333.8775,3948.0
333.88,3972.0
333.8825,3964.0
333.885,3971.0
333.8875,3968.0
333.89,3957.0
333.8925,3938.0
333.895,3981.0
333.8975,3994.0
333.9,3997.0
333.9025,3998.0
333.905,3979.0
333.9075,3968.0
333.91,3935.0
333.9125,3972.0
333.915,3957.0
333.9175,3988.0
333.92,3968.0
333.9225,4017.0
333.925,4018.0
333.9275,4026.0
333.93,4062.0
333.9325,4063.0
333.935,4058.0
333.9375,4042.0
333.94,4037.0
333.9425,4022.0
333.945,3995.0
333.9475,4021.0
333.95,4014.0
333.9525,4021.0
333.955,4029.0
333.9575,4033.0
333.96,4063.0
333.9625,4052.0
333.965,4074.0
333.9675,4046.0
333.97,4014.0
333.9725,4037.0
333.975,4032.0
333.9775,4035.0
333.98,4016.0
333.9825,4019.0
333.985,4038.0
333.9875,4035.0
333.99,4000.0
333.9925,4036.0
333.995,4022.0
333.9975,4020.0
334.0,4023.0
334.0025,4010.0
334.005,4029.0
334.0075,4019.0
334.01,4017.0
334.0125,4034.0
334.015,3997.0
334.0175,4025.0
334.02,4022.0
334.0225,4025.0
334.025,4042.0
334.0275,4040.0
334.03,4018.0
334.0325,4044.0
334.035,4030.0
334.0375,4026.0
334.04,4018.0
334.0425,3995.0
334.045,4022.0
334.0475,4005.0
334.05,3984.0
334.0525,4031.0
334.055,4011.0
334.0575,3994.0
334.06,3976.0
334.0625,4020.0
334.065,4037.0
334.0675,4001.0
334.07,4031.0
334.0725,4005.0
334.075,4005.0
334.0775,4009.0
334.08,4040.0
334.0825,4018.0
334.085,4010.0
334.0875,4057.0
334.09,4055.0
334.0925,4069.0
334.095,4021.0
334.0975,4061.0
334.1,4063.0
334.1025,4035.0
334.105,4079.0
334.1075,4077.0
334.11,4072.0
334.1125,4057.0
334.115,4042.0
334.1175,4053.0
334.12,4034.0
334.1225,4055.0
334.125,4059.0
334.1275,4066.0
334.13,4048.0
334.1325,4035.0
334.135,4043.0
334.1375,4047.0
334.14,4061.0
334.1425,4023.0
334.145,4049.0
334.1475,4041.0
334.15,4030.0
334.1525,4029.0
334.155,3996.0
334.1575,3990.0
334.16,4010.0
334.1625,4016.0
334.165,4029.0
334.1675,4045.0
334.17,4052.0
334.1725,4012.0
334.175,4024.0
334.1775,4040.0
334.18,4031.0
334.1825,4025.0
334.185,4051.0
334.1875,4048.0
334.19,4049.0
334.1925,4056.0
334.195,4055.0
334.1975,4073.0
334.2,4031.0
334.2025,4072.0
334.205,4081.0
334.2075,4045.0
334.21,4052.0
334.2125,4036.0
334.215,4047.0
334.2175,4021.0
334.22,4038.0
334.2225,4063.0
334.225,4074.0
334.2275,4085.0
334.23,4038.0
334.2325,4019.0
334.235,4012.0
334.2375,4016.0
334.24,4007.0
334.2425,4010.0
334.245,4050.0
334.2475,4040.0
334.25,4022.0
334.2525,3998.0
334.255,3987.0
334.2575,3974.0
334.26,3977.0
334.2625,3993.0
334.265,4009.0
334.2675,4022.0
334.27,3968.0
334.2725,4005.0
334.275,3963.0
334.2775,3953.0
334.28,4027.0
334.2825,4046.0
334.285,4056.0
334.2875,4030.0
334.29,4005.0
334.2925,3975.0
334.295,3904.0
334.2975,3924.0
334.3,3942.0
334.3025,4005.0
334.305,4037.0
334.3075,4130.0
334.31,4232.0
334.3125,4372.0
334.315,4528.0
334.3175,4666.0
334.32,4809.0
334.3225,4968.0
334.325,5039.0
334.3275,4997.0
334.33,4736.0
334.3325,4452.0
334.335,4296.0
334.3375,4116.0
334.34,3961.0
334.3425,3889.0
334.345,3836.0
334.3475,3732.0
334.35,3724.0
334.3525,3751.0
334.355,3772.0
334.3575,3823.0
334.36,3900.0
334.3625,3946.0
334.365,3982.0
334.3675,4010.0
334.37,3991.0
334.3725,3994.0
334.375,3984.0
334.3775,4003.0
334.38,4040.0
334.3825,4039.0
334.385,4080.0
334.3875,4034.0
334.39,4003.0
334.3925,3991.0
334.395,3998.0
334.3975,4040.0
334.4,4048.0
334.4025,4066.0
334.405,4086.0
334.4075,4066.0
334.41,4033.0
334.4125,4023.0
334.415,4007.0
334.4175,4026.0
334.42,4089.0
334.4225,4104.0
334.425,4113.0
334.4275,4097.0
334.43,4068.0
334.4325,4081.0
334.435,4072.0
334.4375,4131.0
334.44,4178.0
334.4425,4215.0
334.445,4149.0
334.4475,4115.0
334.45,4140.0
334.4525,4096.0
334.455,4113.0
334.4575,4147.0
334.46,4174.0
334.4625,4167.0
334.465,4181.0
334.4675,4155.0
334.47,4139.0
334.4725,4142.0
334.475,4152.0
334.4775,4180.0
334.48,4223.0
334.4825,4254.0
334.485,4283.0
334.4875,4235.0
334.49,4228.0
334.4925,4269.0
334.495,4277.0
334.4975,4278.0
334.5,4317.0
334.5025,4327.0
334.505,4266.0
334.5075,4276.0
334.51,4285.0
334.5125,4302.0
334.515,4249.0
334.5175,4306.0
334.52,4300.0
334.5225,4270.0
334.525,4280.0
334.5275,4243.0
334.53,4211.0
334.5325,4229.0
334.535,4260.0
334.5375,4239.0
334.54,4216.0
334.5425,4224.0
334.545,4196.0
334.5475,4147.0
334.55,4101.0
334.5525,4098.0
334.555,4102.0
334.5575,4093.0
334.56,4097.0
334.5625,4077.0
334.565,4074.0
334.5675,4015.0
334.57,4003.0
334.5725,3998.0
334.575,3963.0
334.5775,3992.0
334.58,4006.0
334.5825,3991.0
334.585,4013.0
334.5875,3968.0
334.59,3964.0
334.5925,3971.0
334.595,4022.0
334.5975,4100.0
334.6,4059.0
334.6025,4046.0
334.605,4082.0
334.6075,4051.0
334.61,3995.0
334.6125,3978.0
334.615,3974.0
334.6175,3978.0
334.62,4009.0
334.6225,3990.0
334.625,3980.0
334.6275,3882.0
334.63,3860.0
334.6325,3814.0
334.635,3819.0
334.6375,3834.0
334.64,3812.0
334.6425,3779.0
334.645,3725.0
334.6475,3726.0
334.65,3759.0
334.6525,3765.0
334.655,3721.0
334.6575,3703.0
334.66,3691.0
334.6625,3661.0
334.665,3720.0
334.6675,3665.0
334.67,3664.0
334.6725,3701.0
334.675,3695.0
334.6775,3700.0
334.68,3683.0
334.6825,3699.0
334.685,3635.0
334.6875,3634.0
334.69,3656.0
334.6925,3682.0
334.695,3743.0
334.6975,3738.0
334.7,3751.0
334.7025,3767.0
334.705,3748.0
334.7075,3713.0
334.71,3743.0
334.7125,3774.0
334.715,3772.0
334.7175,3801.0
334.72,3829.0
334.7225,3835.0
334.725,3836.0
334.7275,3829.0
334.73,3806.0
334.7325,3814.0
334.735,3866.0
334.7375,3855.0
334.74,3866.0
334.7425,3870.0
334.745,3869.0
334.7475,3844.0
334.75,3812.0
334.7525,3851.0
334.755,3891.0
334.7575,3902.0
334.76,3907.0
334.7625,3910.0
334.765,3900.0
334.7675,3867.0
334.77,3919.0
334.7725,3945.0
334.775,3936.0
334.7775,3943.0
334.78,3947.0
334.7825,3927.0
334.785,3878.0
334.7875,3881.0
334.79,3895.0
334.7925,3884.0
334.795,3882.0
334.7975,3911.0
334.8,3916.0
334.8025,3902.0
334.805,3916.0
334.8075,3900.0
334.81,3906.0
334.8125,3956.0
334.815,3968.0
334.8175,3972.0
334.82,3939.0
334.8225,3900.0
334.825,3915.0
334.8275,3916.0
334.83,3897.0
334.8325,3914.0
334.835,3957.0
334.8375,3946.0
334.84,3957.0
334.8425,3968.0
334.845,3945.0
334.8475,3938.0
334.85,3961.0
334.8525,3951.0
334.855,3953.0
334.8575,3988.0
334.86,3985.0
334.8625,4004.0
334.865,4019.0
334.8675,4004.0
334.87,3993.0
334.8725,3976.0
334.875,4011.0
334.8775,4041.0
334.88,4017.0
334.8825,4020.0
334.885,4057.0
334.8875,4092.0
334.89,4074.0
334.8925,4088.0
334.895,4071.0
334.8975,4061.0
334.9,4028.0
334.9025,4057.0
334.905,4046.0
334.9075,4042.0
334.91,4065.0
334.9125,4057.0
334.915,4071.0
334.9175,4094.0
334.92,4092.0
334.9225,4088.0
334.925,4069.0
334.9275,4080.0
334.93,4104.0
334.9325,4059.0
334.935,4066.0
334.9375,4095.0
334.94,4083.0
334.9425,4073.0
334.945,4083.0
334.9475,4102.0
334.95,4111.0
334.9525,4116.0
334.955,4133.0
334.9575,4153.0
334.96,4139.0
334.9625,4166.0
334.965,4186.0
334.9675,4182.0
334.97,4153.0
334.9725,4143.0
334.975,4202.0
334.9775,4158.0
334.98,4180.0
334.9825,4192.0
334.985,4163.0
334.9875,4153.0
334.99,4174.0
334.9925,4154.0
334.995,4136.0
334.9975,4155.0
335.0,4138.0
335.0025,4142.0
335.005,4126.0
335.0075,4138.0
335.01,4127.0
335.0125,4118.0
335.015,4137.0
335.0175,4145.0
335.02,4142.0
335.0225,4112.0
335.025,4107.0
335.0275,4146.0
335.03,4103.0
335.0325,4143.0
335.035,4124.0
335.0375,4143.0
335.04,4151.0
335.0425,4153.0
335.045,4136.0
335.0475,4084.0
335.05,4081.0
335.0525,4046.0
335.055,4031.0
335.0575,4007.0
335.06,4040.0
335.0625,4100.0
335.065,4176.0
335.0675,4267.0
335.07,4414.0
335.0725,4555.0
335.075,4653.0
335.0775,4828.0
335.08,4990.0
335.0825,5109.0
335.085,5159.0
335.0875,5110.0
335.09,4879.0
335.0925,4638.0
335.095,4451.0
335.0975,4251.0
335.1,4031.0
335.1025,3994.0
335.105,3919.0
335.1075,3837.0
335.11,3805.0
335.1125,3868.0
335.115,3915.0
335.1175,3939.0
335.12,4013.0
335.1225,4051.0
335.125,4050.0
335.1275,4030.0
335.13,4039.0
335.1325,4052.0
335.135,4016.0
335.1375,4052.0
335.14,4055.0
335.1425,4054.0
335.145,4019.0
335.1475,4040.0
335.15,4050.0
335.1525,3996.0
335.155,4030.0
335.1575,4046.0
335.16,4045.0
335.1625,4038.0
335.165,4044.0
335.1675,4019.0
335.17,4006.0
335.1725,4024.0
335.175,4040.0
335.1775,4072.0
335.18,4054.0
335.1825,4069.0
335.185,4060.0
335.1875,4018.0
335.19,4050.0
335.1925,4065.0
335.195,4069.0
335.1975,4080.0
335.2,4102.0
335.2025,4066.0
335.205,4046.0
335.2075,4034.0
335.21,3999.0
335.2125,4038.0
335.215,4038.0
335.2175,4043.0
335.22,4049.0
335.2225,4011.0
335.225,4043.0
335.2275,4011.0
335.23,4024.0
335.2325,4036.0
335.235,4028.0
335.2375,4047.0
335.24,4036.0
335.2425,4060.0
335.245,4046.0
335.2475,4048.0
335.25,4028.0
335.2525,4069.0
335.255,4094.0
335.2575,4086.0
335.26,4118.0
335.2625,4100.0
335.265,4108.0
335.2675,4090.0
335.27,4126.0
335.2725,4148.0
335.275,4130.0
335.2775,4149.0
335.28,4145.0
335.2825,4138.0
335.285,4111.0
335.2875,4129.0
335.29,4144.0
335.2925,4113.0
335.295,4147.0
335.2975,4158.0
335.3,4145.0
335.3025,4114.0
335.305,4144.0
335.3075,4126.0
335.31,4089.0
335.3125,4134.0
335.315,4119.0
335.3175,4104.0
335.32,4056.0
335.3225,4043.0
335.325,4028.0
335.3275,3991.0
335.33,4005.0
335.3325,3991.0
335.335,3984.0
335.3375,3980.0
335.34,3960.0
335.3425,3925.0
335.345,3911.0
335.3475,3915.0
335.35,3912.0
335.3525,3923.0
335.355,3919.0
335.3575,3933.0
335.36,3922.0
335.3625,3871.0
335.365,3899.0
335.3675,3876.0
335.37,3889.0
335.3725,3884.0
335.375,3897.0
335.3775,3923.0
335.38,3859.0
335.3825,3878.0
335.385,3902.0
335.3875,3937.0
335.39,3937.0
335.3925,3919.0
335.395,3931.0
335.3975,3924.0
335.4,3911.0
335.4025,3903.0
335.405,3937.0
335.4075,3924.0
335.41,3956.0
335.4125,3948.0
335.415,3932.0
335.4175,3967.0
335.42,3978.0
335.4225,3991.0
335.425,3989.0
335.4275,3984.0
335.43,3992.0
335.4325,3958.0
335.435,3989.0
335.4375,4009.0
335.44,4015.0
335.4425,4001.0
335.445,3993.0
335.4475,3989.0
335.45,3963.0
335.4525,3999.0
335.455,4023.0
335.4575,4034.0
335.46,4015.0
335.4625,4010.0
335.465,4028.0
335.4675,4028.0
335.47,4044.0
335.4725,4037.0
335.475,4042.0
335.4775,4068.0
335.48,4061.0
335.4825,4069.0
335.485,4022.0
335.4875,4041.0
335.49,4049.0
335.4925,4043.0
335.495,4052.0
335.4975,4049.0
335.5,4047.0
335.5025,3999.0
335.505,4028.0
335.5075,4041.0
335.51,4039.0
335.5125,4016.0
335.515,4062.0
335.5175,4072.0
335.52,4048.0
335.5225,4078.0
335.525,4077.0
335.5275,4053.0
335.53,4065.0
335.5325,4059.0
335.535,4046.0
335.5375,4040.0
335.54,4052.0
335.5425,4050.0
335.545,4042.0
335.5475,4024.0
335.55,4025.0
335.5525,4024.0
335.555,4020.0
335.5575,4049.0
335.56,4055.0
335.5625,4019.0
335.565,4000.0
335.5675,4013.0
335.57,4052.0
335.5725,4038.0
335.575,4070.0
335.5775,4067.0
335.58,4077.0
335.5825,4048.0
335.585,4062.0
335.5875,4055.0
335.59,4041.0
335.5925,4038.0
335.595,4037.0
335.5975,4034.0
335.6,4039.0
335.6025,4048.0
335.605,4026.0
335.6075,4006.0
335.61,4025.0
335.6125,4045.0
335.615,4006.0
335.6175,3997.0
335.62,4037.0
335.6225,4001.0
335.625,3986.0
335.6275,4009.0
335.63,4025.0
335.6325,4024.0
335.635,4021.0
335.6375,4027.0
335.64,4028.0
335.6425,4002.0
335.645,3996.0
335.6475,4006.0
335.65,3986.0
335.6525,3993.0
335.655,3997.0
335.6575,3987.0
335.66,3970.0
335.6625,3983.0
335.665,3993.0
335.6675,4018.0
335.67,4017.0
335.6725,4027.0
335.675,4057.0
335.6775,4037.0
335.68,4047.0
335.6825,4069.0
335.685,4059.0
335.6875,4022.0
335.69,4048.0
335.6925,4060.0
335.695,4050.0
335.6975,4092.0
335.7,4069.0
335.7025,4016.0
335.705,4009.0
335.7075,4011.0
335.71,4021.0
335.7125,3986.0
335.715,3980.0
335.7175,3978.0
335.72,4002.0
335.7225,4006.0
335.725,4020.0
335.7275,4025.0
335.73,3983.0
335.7325,3985.0
335.735,4019.0
335.7375,3974.0
335.74,3969.0
335.7425,3966.0
335.745,3981.0
335.7475,3925.0
335.75,3971.0
335.7525,3987.0
335.755,3972.0
335.7575,3980.0
335.76,3984.0
335.7625,3996.0
335.765,3937.0
335.7675,3961.0
335.77,3937.0
335.7725,3911.0
335.775,3888.0
335.7775,3905.0
335.78,3914.0
335.7825,3941.0
335.785,4029.0
335.7875,4179.0
335.79,4353.0
335.7925,4495.0
335.795,4602.0
335.7975,4730.0
335.8,4854.0
335.8025,4923.0
335.805,4878.0
335.8075,4729.0
335.81,4493.0
335.8125,4321.0
335.815,4108.0
335.8175,3885.0
335.82,3779.0
335.8225,3729.0
335.825,3689.0
335.8275,3680.0
335.83,3703.0
335.8325,3739.0
335.835,3800.0
335.8375,3857.0
335.84,3890.0
335.8425,3919.0
335.845,3940.0
335.8475,3981.0
335.85,3970.0
335.8525,3945.0
335.855,3954.0
335.8575,3951.0
335.86,3909.0
335.8625,3934.0
335.865,3962.0
335.8675,3952.0
335.87,3927.0
335.8725,3955.0
335.875,3933.0
335.8775,3936.0
335.88,3947.0
335.8825,3967.0
335.885,3978.0
335.8875,3927.0
335.89,3945.0
335.8925,3955.0
335.895,3973.0
335.8975,3973.0
335.9,3987.0
335.9025,3975.0
335.905,3958.0
335.9075,3967.0
335.91,3959.0
335.9125,3974.0
335.915,4001.0
335.9175,4012.0
335.92,4028.0
335.9225,4006.0
335.925,4034.0
335.9275,4000.0
335.93,4003.0
335.9325,3999.0
335.935,3989.0
335.9375,4005.0
335.94,3990.0
335.9425,4019.0
335.945,4021.0
335.9475,4000.0
335.95,4015.0
335.9525,4045.0
335.955,4053.0
335.9575,4053.0
335.96,4081.0
335.9625,4098.0
335.965,4080.0
335.9675,4085.0
335.97,4074.0
335.9725,4100.0
335.975,4112.0
335.9775,4155.0
335.98,4125.0
335.9825,4146.0
335.985,4138.0
335.9875,4148.0
335.99,4132.0
335.9925,4137.0
335.995,4180.0
335.9975,4201.0
336.0,4180.0
336.0025,4140.0
336.005,4111.0
336.0075,4146.0
336.01,4124.0
336.0125,4153.0
336.015,4178.0
336.0175,4176.0
336.02,4180.0
336.0225,4185.0
336.025,4155.0
336.0275,4120.0
336.03,4123.0
336.0325,4113.0
336.035,4106.0
336.0375,4104.0
336.04,4106.0
336.0425,4088.0
336.045,4023.0
336.0475,4019.0
336.05,4003.0
336.0525,4019.0
336.055,4029.0
336.0575,4012.0
336.06,3993.0
336.0625,3947.0
336.065,3936.0
336.0675,3958.0
336.07,3943.0
336.0725,3914.0
336.075,3934.0
336.0775,3923.0
336.08,3935.0
336.0825,3932.0
336.085,3913.0
336.0875,3934.0
336.09,3899.0
336.0925,3930.0
336.095,3918.0
336.0975,3911.0
336.1,3923.0
336.1025,3913.0
336.105,3908.0
336.1075,3904.0
336.11,3921.0
336.1125,3936.0
336.115,3923.0
336.1175,3955.0
336.12,3968.0
336.1225,3944.0
336.125,3929.0
336.1275,3919.0
336.13,3938.0
336.1325,3933.0
336.135,3987.0
336.1375,3993.0
336.14,4011.0
336.1425,3993.0
336.145,3992.0
336.1475,3958.0
336.15,3921.0
336.1525,3998.0
336.155,4022.0
336.1575,4018.0
336.16,4007.0
336.1625,4012.0
336.165,3994.0
336.1675,3973.0
336.17,4026.0
336.1725,4034.0
336.175,4052.0
336.1775,4040.0
336.18,4031.0
336.1825,4047.0
336.185,4022.0
336.1875,4042.0
336.19,3993.0
336.1925,4035.0
336.195,4049.0
336.1975,4079.0
336.2,4051.0
336.2025,4009.0
336.205,4007.0
336.2075,4009.0
336.21,4030.0
336.2125,4041.0
336.215,4054.0
336.2175,4042.0
336.22,4043.0
336.2225,4045.0
336.225,4018.0
336.2275,4004.0
336.23,4019.0
336.2325,4061.0
336.235,4036.0
336.2375,4026.0
336.24,4027.0
336.2425,4011.0
336.245,3988.0
336.2475,3991.0
336.25,4034.0
336.2525,4057.0
336.255,4067.0
336.2575,4060.0
336.26,4046.0
336.2625,4005.0
336.265,3980.0
336.2675,4008.0
336.27,4001.0
336.2725,4002.0
336.275,4037.0
336.2775,4038.0
336.28,4027.0
336.2825,4005.0
336.285,4017.0
336.2875,4004.0
336.29,3999.0
336.2925,4032.0
336.295,4051.0
336.2975,4019.0
336.3,3994.0
336.3025,3981.0
336.305,4004.0
336.3075,4003.0
336.31,4025.0
336.3125,4034.0
336.315,4044.0
336.3175,4007.0
336.32,4009.0
336.3225,4002.0
336.325,3954.0
336.3275,3984.0
336.33,3988.0
336.3325,3989.0
336.335,3997.0
336.3375,4024.0
336.34,4026.0
336.3425,3986.0
336.345,4026.0
336.3475,4045.0
336.35,4080.0
336.3525,4067.0
336.355,4059.0
336.3575,4052.0
336.36,4031.0
336.3625,4060.0
336.365,4035.0
336.3675,4051.0
336.37,4047.0
336.3725,4079.0
336.375,4065.0
336.3775,4049.0
336.38,4040.0
336.3825,4017.0
336.385,4013.0
336.3875,4019.0
336.39,4015.0
336.3925,4031.0
336.395,4019.0
336.3975,4037.0
336.4,4015.0
336.4025,4027.0
336.405,4029.0
336.4075,4014.0
336.41,4003.0
336.4125,3999.0
336.415,3985.0
336.4175,4000.0
336.42,4007.0
336.4225,3990.0
336.425,4001.0
336.4275,4002.0
336.43,3979.0
336.4325,4032.0
336.435,4037.0
336.4375,4030.0
336.44,4022.0
336.4425,4003.0
336.445,3974.0
336.4475,3943.0
336.45,3931.0
336.4525,3893.0
336.455,3879.0
336.4575,3913.0
336.46,3954.0
336.4625,4057.0
336.465,4161.0
336.4675,4382.0
336.47,4523.0
336.4725,4612.0
336.475,4749.0
336.4775,4923.0
336.48,4959.0
336.4825,4930.0
336.485,4755.0
336.4875,4479.0
336.49,4277.0
336.4925,4096.0
336.495,3945.0
336.4975,3824.0
336.5,3766.0
336.5025,3732.0
336.505,3714.0
336.5075,3732.0
336.51,3726.0
336.5125,3775.0
336.515,3807.0
336.5175,3814.0
336.52,3889.0
336.5225,3931.0
336.525,3925.0
336.5275,3929.0
336.53,3939.0
336.5325,3934.0
336.535,3912.0
336.5375,3931.0
336.54,3948.0
336.5425,3957.0
336.545,3954.0
336.5475,3954.0
336.55,3946.0
336.5525,3929.0
336.555,3956.0
336.5575,3964.0
336.56,3980.0
336.5625,3986.0
336.565,3977.0
336.5675,3994.0
336.57,3984.0
336.5725,4004.0
336.575,4025.0
336.5775,4023.0
336.58,4020.0
336.5825,4018.0
336.585,4014.0
336.5875,3993.0
336.59,3986.0
336.5925,4014.0
336.595,4021.0
336.5975,4012.0
336.6,4039.0
336.6025,4032.0
336.605,3985.0
336.6075,4009.0
336.61,4019.0
336.6125,4022.0
336.615,4035.0
336.6175,4048.0
336.62,4034.0
336.6225,4028.0
336.625,4027.0
336.6275,4040.0
336.63,4053.0
336.6325,4045.0
336.635,4075.0
336.6375,4082.0
336.64,4041.0
336.6425,4080.0
336.645,4082.0
336.6475,4079.0
336.65,4061.0
336.6525,4094.0
336.655,4098.0
336.6575,4081.0
336.66,4096.0
336.6625,4086.0
336.665,4092.0
336.6675,4102.0
336.67,4132.0
336.6725,4119.0
336.675,4119.0
336.6775,4144.0
336.68,4154.0
336.6825,4153.0
336.685,4136.0
336.6875,4115.0
336.69,4109.0
336.6925,4098.0
336.695,4126.0
336.6975,4119.0
336.7,4139.0
336.7025,4113.0
336.705,4115.0
336.7075,4095.0
336.71,4089.0
336.7125,4099.0
336.715,4066.0
336.7175,4044.0
336.72,4035.0
336.7225,4024.0
336.725,4004.0
336.7275,3949.0
336.73,3969.0
336.7325,3957.0
336.735,3954.0
336.7375,3943.0
336.74,3931.0
336.7425,3901.0
336.745,3881.0
336.7475,3906.0
336.75,3923.0
336.7525,3907.0
336.755,3890.0
336.7575,3885.0
336.76,3872.0
336.7625,3852.0
336.765,3873.0
336.7675,3855.0
336.77,3848.0
336.7725,3877.0
336.775,3920.0
336.7775,3920.0
336.78,3913.0
336.7825,3908.0
336.785,3871.0
336.7875,3865.0
336.79,3852.0
336.7925,3866.0
336.795,3864.0
336.7975,3877.0
336.8,3912.0
336.8025,3903.0
336.805,3901.0
336.8075,3895.0
336.81,3901.0
336.8125,3898.0
336.815,3893.0
336.8175,3928.0
336.82,3940.0
336.8225,3946.0
336.825,3909.0
336.8275,3900.0
336.83,3927.0
336.8325,3913.0
336.835,3962.0
336.8375,3986.0
336.84,3943.0
336.8425,3925.0
336.845,3916.0
336.8475,3904.0
336.85,3896.0
336.8525,3923.0
336.855,3941.0
336.8575,3967.0
336.86,3966.0
336.8625,3981.0
336.865,3956.0
336.8675,3939.0
336.87,3964.0
336.8725,3968.0
336.875,3988.0
336.8775,3984.0
336.88,4054.0
336.8825,3996.0
336.885,3960.0
336.8875,3978.0
336.89,4007.0
336.8925,4007.0
336.895,4007.0
336.8975,4019.0
336.9,4011.0
336.9025,3984.0
336.905,3982.0
336.9075,3949.0
336.91,3987.0
336.9125,3997.0
336.915,3995.0
336.9175,4006.0
336.92,3979.0
336.9225,3982.0
336.925,3974.0
336.9275,3944.0
336.93,3948.0
336.9325,3994.0
336.935,4029.0
336.9375,4006.0
336.94,3998.0
336.9425,3980.0
336.945,3979.0
336.9475,3977.0
336.95,4011.0
336.9525,4028.0
336.955,3994.0
336.9575,4023.0
336.96,4020.0
336.9625,3981.0
336.965,4007.0
336.9675,3984.0
336.97,4010.0
336.9725,3999.0
336.975,4024.0
336.9775,4036.0
336.98,4031.0
336.9825,4029.0
336.985,4047.0
336.9875,4021.0
336.99,3992.0
336.9925,4032.0
336.995,4049.0
336.9975,4058.0
337.0,4034.0
337.0025,4025.0
337.005,4050.0
337.0075,4026.0
337.01,4074.0
337.0125,4104.0
337.015,4112.0
337.0175,4107.0
337.02,4100.0
337.0225,4091.0
337.025,4055.0
337.0275,4076.0
337.03,4100.0
337.0325,4075.0
337.035,4084.0
337.0375,4084.0
337.04,4070.0
337.0425,4036.0
337.045,4045.0
337.0475,4070.0
337.05,4063.0
337.0525,4067.0
337.055,4063.0
337.0575,4061.0
337.06,4048.0
337.0625,4067.0
337.065,4060.0
337.0675,4041.0
337.07,4065.0
337.0725,4102.0
337.075,4089.0
337.0775,4069.0
337.08,4092.0
337.0825,4041.0
337.085,4047.0
337.0875,4057.0
337.09,4059.0
337.0925,4089.0
337.095,4076.0
337.0975,4081.0
337.1,4044.0
337.1025,4028.0
337.105,3990.0
337.1075,3967.0
337.11,3952.0
337.1125,3941.0
337.115,3978.0
337.1175,3989.0
337.12,4010.0
337.1225,4095.0
337.125,4214.0
337.1275,4372.0
337.13,4521.0
337.1325,4653.0
337.135,4785.0
337.1375,4930.0
337.14,4959.0
337.1425,4938.0
337.145,4794.0
337.1475,4533.0
337.15,4363.0
337.1525,4219.0
337.155,4003.0
337.1575,3869.0
337.16,3776.0
337.1625,3733.0
337.165,3705.0
337.1675,3747.0
337.17,3790.0
337.1725,3839.0
337.175,3853.0
337.1775,3910.0
337.18,3943.0
337.1825,3930.0
337.185,3942.0
337.1875,3988.0
337.19,3967.0
337.1925,3985.0
337.195,3980.0
337.1975,3998.0
337.2,3963.0
337.2025,3981.0
337.205,3971.0
337.2075,3950.0
337.21,3993.0
337.2125,4011.0
337.215,4005.0
337.2175,3983.0
337.22,3999.0
337.2225,3971.0
337.225,3982.0
337.2275,3957.0
337.23,4009.0
337.2325,4002.0
337.235,3993.0
337.2375,3997.0
337.24,4006.0
337.2425,3995.0
337.245,3985.0
337.2475,4015.0
337.25,4027.0
337.2525,4028.0
337.255,4044.0
337.2575,4040.0
337.26,4025.0
337.2625,4022.0
337.265,4014.0
337.2675,4012.0
337.27,4002.0
337.2725,4041.0
337.275,4041.0
337.2775,4045.0
337.28,4020.0
337.2825,4037.0
337.285,4058.0
337.2875,4073.0
337.29,4097.0
337.2925,4126.0
337.295,4113.0
337.2975,4113.0
337.3,4091.0
337.3025,4111.0
337.305,4104.0
337.3075,4144.0
337.31,4135.0
337.3125,4143.0
337.315,4132.0
337.3175,4136.0
337.32,4115.0
337.3225,4120.0
337.325,4121.0
337.3275,4137.0
337.33,4142.0
337.3325,4151.0
337.335,4163.0
337.3375,4152.0
337.34,4131.0
337.3425,4131.0
337.345,4134.0
337.3475,4146.0
337.35,4138.0
337.3525,4161.0
337.355,4167.0
337.3575,4119.0
337.36,4143.0
337.3625,4132.0
337.365,4130.0
337.3675,4113.0
337.37,4113.0
337.3725,4110.0
337.375,4085.0
337.3775,4073.0
337.38,4054.0
337.3825,4051.0
337.385,4029.0
337.3875,4021.0
337.39,4009.0
337.3925,3986.0
337.395,3993.0
337.3975,3995.0
337.4,3980.0
337.4025,3959.0
337.405,3965.0
337.4075,3970.0
337.41,3916.0
337.4125,3943.0
337.415,3933.0
337.4175,3924.0
337.42,3904.0
337.4225,3921.0
337.425,3936.0
337.4275,3915.0
337.43,3958.0
337.4325,3962.0
337.435,3955.0
337.4375,3952.0
337.44,3933.0
337.4425,3941.0
337.445,3961.0
337.4475,3959.0
337.45,3957.0
337.4525,3988.0
337.455,3971.0
337.4575,3980.0
337.46,3991.0
337.4625,3977.0
337.465,4000.0
337.4675,4012.0
337.47,3981.0
337.4725,4001.0
337.475,3990.0
337.4775,4020.0
337.48,4012.0
337.4825,4007.0
337.485,4015.0
337.4875,4007.0
337.49,4018.0
337.4925,4032.0
337.495,4032.0
337.4975,4009.0
337.5,4021.0
337.5025,4032.0
337.505,4053.0
337.5075,4022.0
337.51,4047.0
337.5125,4001.0
337.515,3962.0
337.5175,4027.0
337.52,4017.0
337.5225,4027.0
337.525,4025.0
337.5275,4041.0
337.53,4042.0
337.5325,4049.0
337.535,4055.0
337.5375,4065.0
337.54,4057.0
337.5425,4014.0
337.545,4016.0
337.5475,4051.0
337.55,4039.0
337.5525,4051.0
337.555,4035.0
337.5575,4039.0
337.56,4028.0
337.5625,4048.0
337.565,4055.0
337.5675,4011.0
337.57,4023.0
337.5725,4053.0
337.575,4045.0
337.5775,4024.0
337.58,4054.0
337.5825,4068.0
337.585,4036.0
337.5875,4043.0
337.59,4037.0
337.5925,4061.0
337.595,4056.0
337.5975,4064.0
337.6,4037.0
337.6025,3996.0
337.605,4026.0
337.6075,4020.0
337.61,4034.0
337.6125,4034.0
337.615,4034.0
337.6175,4053.0
337.62,4045.0
337.6225,4036.0
337.625,4019.0
337.6275,4020.0
337.63,4008.0
337.6325,4056.0
337.635,4044.0
337.6375,4023.0
337.64,4046.0
337.6425,4039.0
337.645,4009.0
337.6475,4015.0
337.65,4010.0
337.6525,4038.0
337.655,4032.0
337.6575,4079.0
337.66,4048.0
337.6625,4020.0
337.665,4036.0
337.6675,4021.0
337.67,4037.0
337.6725,4035.0
337.675,4057.0
337.6775,4056.0
337.68,4074.0
337.6825,4054.0
337.685,4067.0
337.6875,4065.0
337.69,4060.0
337.6925,4105.0
337.695,4104.0
337.6975,4092.0
337.7,4075.0
337.7025,4089.0
337.705,4061.0
337.7075,4067.0
337.71,4090.0
337.7125,4090.0
337.715,4095.0
337.7175,4080.0
337.72,4068.0
337.7225,4067.0
337.725,4061.0
337.7275,4056.0
337.73,4055.0
337.7325,4093.0
337.735,4087.0
337.7375,4068.0
337.74,4049.0
337.7425,4014.0
337.745,4071.0
337.7475,4084.0
337.75,4097.0
337.7525,4096.0
337.755,4127.0
337.7575,4112.0
337.76,4064.0
337.7625,4081.0
337.765,4094.0
337.7675,4103.0
337.77,4113.0
337.7725,4127.0
337.775,4107.0
337.7775,4076.0
337.78,4061.0
337.7825,3991.0
337.785,3947.0
337.7875,3943.0
337.79,3983.0
337.7925,4042.0
337.795,4112.0
337.7975,4216.0
337.8,4360.0
337.8025,4512.0
337.805,4627.0
337.8075,4774.0
337.81,4945.0
337.8125,5023.0
337.815,5066.0
337.8175,4976.0
337.82,4709.0
337.8225,4482.0
337.825,4283.0
337.8275,4076.0
337.83,3941.0
337.8325,3872.0
337.835,3807.0
337.8375,3778.0
337.84,3769.0
337.8425,3820.0
337.845,3844.0
337.8475,3890.0
337.85,3968.0
337.8525,4015.0
337.855,4044.0
337.8575,4010.0
337.86,4017.0
337.8625,3987.0
337.865,3973.0
337.8675,4015.0
337.87,4038.0
337.8725,4042.0
337.875,4026.0
337.8775,4037.0
337.88,4001.0
337.8825,3984.0
337.885,4000.0
337.8875,4040.0
337.89,4053.0
337.8925,4041.0
337.895,4049.0
337.8975,4040.0
337.9,3994.0
337.9025,3988.0
337.905,3996.0
337.9075,4016.0
337.91,4028.0
337.9125,4054.0
337.915,4048.0
337.9175,4025.0
337.92,4004.0
337.9225,4003.0
337.925,3996.0
337.9275,4027.0
337.93,4042.0
337.9325,4044.0
337.935,4016.0
337.9375,4037.0
337.94,4033.0
337.9425,4021.0
337.945,4006.0
337.9475,4037.0
337.95,4062.0
337.9525,4052.0
337.955,4090.0
337.9575,4096.0
337.96,4070.0
337.9625,4076.0
337.965,4079.0
337.9675,4111.0
337.97,4112.0
337.9725,4144.0
337.975,4128.0
337.9775,4110.0
337.98,4103.0
337.9825,4114.0
337.985,4121.0
337.9875,4110.0
337.99,4149.0
337.9925,4160.0
337.995,4175.0
337.9975,4187.0
338.0,4173.0
338.0025,4169.0
338.005,4167.0
338.0075,4214.0
338.01,4207.0
338.0125,4209.0
338.015,4207.0
338.0175,4216.0
338.02,4184.0
338.0225,4153.0
338.025,4174.0
338.0275,4175.0
338.03,4195.0
338.0325,4173.0
338.035,4170.0
338.0375,4138.0
338.04,4101.0
338.0425,4099.0
338.045,4090.0
338.0475,4110.0
338.05,4112.0
338.0525,4075.0
338.055,4039.0
338.0575,4005.0
338.06,3987.0
338.0625,3975.0
338.065,3982.0
338.0675,3988.0
338.07,3987.0
338.0725,3980.0
338.075,3956.0
338.0775,3962.0
338.08,3964.0
338.0825,3945.0
338.085,3928.0
338.0875,3939.0
338.09,3954.0
338.0925,3927.0
338.095,3961.0
338.0975,3957.0
338.1,3938.0
338.1025,3937.0
338.105,3960.0
338.1075,3984.0
338.11,3969.0
338.1125,4001.0
338.115,3972.0
338.1175,3948.0
338.12,3929.0
338.1225,3964.0
338.125,3972.0
338.1275,3972.0
338.13,3974.0
338.1325,3955.0
338.135,3960.0
338.1375,3947.0
338.14,3917.0
338.1425,3906.0
338.145,3903.0
338.1475,3916.0
338.15,3940.0
338.1525,3945.0
338.155,3927.0
338.1575,3952.0
338.16,3929.0
338.1625,3918.0
338.165,3943.0
338.1675,3949.0
338.17,3948.0
338.1725,3914.0
338.175,3939.0
338.1775,3951.0
338.18,3942.0
338.1825,3959.0
338.185,3951.0
338.1875,3943.0
338.19,3946.0
338.1925,3951.0
338.195,3968.0
338.1975,3936.0
338.2,3946.0
338.2025,3934.0
338.205,3948.0
338.2075,3941.0
338.21,3964.0
338.2125,3947.0
338.215,3944.0
338.2175,3944.0
338.22,3939.0
338.2225,3973.0
338.225,3969.0
338.2275,3990.0
338.23,3983.0
338.2325,3962.0
338.235,3964.0
338.2375,3961.0
338.24,3978.0
338.2425,3961.0
338.245,3964.0
338.2475,3984.0
338.25,3973.0
338.2525,3997.0
338.255,4016.0
338.2575,4009.0
338.26,3999.0
338.2625,4026.0
338.265,4025.0
338.2675,4001.0
338.27,4033.0
338.2725,4022.0
338.275,4021.0
338.2775,4008.0
338.28,4036.0
338.2825,4035.0
338.285,4008.0
338.2875,4028.0
338.29,4012.0
338.2925,4012.0
338.295,3990.0
338.2975,3996.0
338.3,3998.0
338.3025,3982.0
338.305,4010.0
338.3075,4004.0
338.31,4014.0
338.3125,3985.0
338.315,4008.0
338.3175,3991.0
338.32,3974.0
338.3225,4002.0
338.325,4009.0
338.3275,4014.0
338.33,4035.0
338.3325,4001.0
338.335,4009.0
338.3375,4008.0
338.34,4035.0
338.3425,4051.0
338.345,4034.0
338.3475,4018.0
338.35,4035.0
338.3525,4013.0
338.355,3958.0
338.3575,3991.0
338.36,3967.0
338.3625,3984.0
338.365,3945.0
338.3675,3938.0
338.37,3961.0
338.3725,3947.0
338.375,3993.0
338.3775,4010.0
338.38,4011.0
338.3825,4017.0
338.385,4021.0
338.3875,4024.0
338.39,4031.0
338.3925,4035.0
338.395,4049.0
338.3975,4058.0
338.4,4041.0
338.4025,4064.0
338.405,4027.0
338.4075,4029.0
338.41,4040.0
338.4125,4027.0
338.415,4035.0
338.4175,4024.0
338.42,4009.0
338.4225,4017.0
338.425,3966.0
338.4275,3990.0
338.43,3995.0
338.4325,4003.0
338.435,4014.0
338.4375,4007.0
338.44,3964.0
338.4425,3953.0
338.445,3965.0
338.4475,3999.0
338.45,4001.0
338.4525,4003.0
338.455,3989.0
338.4575,3996.0
338.46,3969.0
338.4625,3984.0
338.465,3985.0
338.4675,3995.0
338.47,3956.0
338.4725,3963.0
338.475,3964.0
338.4775,3950.0
338.48,3926.0
338.4825,3904.0
338.485,3865.0
338.4875,3889.0
338.49,3944.0
338.4925,4042.0
338.495,4137.0
338.4975,4282.0
338.5,4432.0
338.5025,4514.0
338.505,4619.0
338.5075,4810.0
338.51,4923.0
338.5125,4909.0
338.515,4812.0
338.5175,4581.0
338.52,4384.0
338.5225,4173.0
338.525,3948.0
338.5275,3841.0
338.53,3742.0
338.5325,3710.0
338.535,3715.0
338.5375,3724.0
338.54,3722.0
338.5425,3776.0
338.545,3816.0
338.5475,3867.0
338.55,3940.0
338.5525,3959.0
338.555,4024.0
338.5575,3976.0
338.56,3965.0
338.5625,3931.0
338.565,3899.0
338.5675,3930.0
338.57,3961.0
338.5725,3963.0
338.575,3982.0
338.5775,3986.0
338.58,3960.0
338.5825,3951.0
338.585,3992.0
338.5875,4004.0
338.59,4042.0
338.5925,4048.0
338.595,4045.0
338.5975,4025.0
338.6,3993.0
338.6025,4012.0
338.605,4031.0
338.6075,4035.0
338.61,4038.0
338.6125,4038.0
338.615,4054.0
338.6175,4016.0
338.62,4018.0
338.6225,4033.0
338.625,4049.0
338.6275,4034.0
338.63,4053.0
338.6325,4035.0
338.635,4037.0
338.6375,4013.0
338.64,3991.0
338.6425,4028.0
338.645,4031.0
338.6475,4079.0
338.65,4076.0
338.6525,4064.0
338.655,4090.0
338.6575,4051.0
338.66,4036.0
338.6625,4038.0
338.665,4051.0
338.6675,4083.0
338.67,4115.0
338.6725,4107.0
338.675,4106.0
338.6775,4097.0
338.68,4077.0
338.6825,4068.0
338.685,4086.0
338.6875,4123.0
338.69,4152.0
338.6925,4157.0
338.695,4158.0
338.6975,4150.0
338.7,4150.0
338.7025,4164.0
338.705,4155.0
338.7075,4154.0
338.71,4152.0
338.7125,4149.0
338.715,4137.0
338.7175,4122.0
338.72,4112.0
338.7225,4110.0
338.725,4116.0
338.7275,4145.0
338.73,4136.0
338.7325,4127.0
338.735,4120.0
338.7375,4107.0
338.74,4046.0
338.7425,4044.0
338.745,4060.0
338.7475,4082.0
338.75,4070.0
338.7525,4029.0
338.755,3978.0
338.7575,3958.0
338.76,3967.0
338.7625,3948.0
338.765,3960.0
338.7675,3945.0
338.77,3955.0
338.7725,3928.0
338.775,3885.0
338.7775,3887.0
338.78,3878.0
338.7825,3880.0
338.785,3896.0
338.7875,3917.0
338.79,3909.0
338.7925,3881.0
338.795,3881.0
338.7975,3864.0
338.8,3874.0
338.8025,3869.0
338.805,3888.0
338.8075,3916.0
338.81,3920.0
338.8125,3927.0
338.815,3897.0
338.8175,3903.0
338.82,3884.0
338.8225,3877.0
338.825,3900.0
338.8275,3882.0
338.83,3935.0
338.8325,3923.0
338.835,3897.0
338.8375,3910.0
338.84,3904.0
338.8425,3947.0
338.845,3961.0
338.8475,3979.0
338.85,3976.0
338.8525,3945.0
338.855,3929.0
338.8575,3942.0
338.86,3939.0
338.8625,3939.0
338.865,3970.0
338.8675,3980.0
338.87,4005.0
338.8725,3970.0
338.875,3982.0
338.8775,3990.0
338.88,3964.0
338.8825,4013.0
338.885,4020.0
338.8875,4038.0
338.89,4037.0
338.8925,4012.0
338.895,4035.0
338.8975,3992.0
338.9,4014.0
338.9025,4024.0
338.905,4039.0
338.9075,4039.0
338.91,4064.0
338.9125,4041.0
338.915,4020.0
338.9175,4015.0
338.92,4029.0
338.9225,4041.0
338.925,4030.0
338.9275,4043.0
338.93,4071.0
338.9325,4026.0
338.935,4038.0
338.9375,4031.0
338.94,4053.0
338.9425,4041.0
338.945,4033.0
338.9475,4046.0
338.95,4005.0
338.9525,4037.0
338.955,4036.0
338.9575,4029.0
338.96,3991.0
338.9625,4039.0
338.965,4033.0
338.9675,4029.0
338.97,4025.0
338.9725,4024.0
338.975,4023.0
338.9775,4024.0
338.98,4055.0
338.9825,4055.0
338.985,4049.0
338.9875,4044.0
338.99,4043.0
338.9925,4045.0
338.995,4044.0
338.9975,4032.0
339.0,4051.0
339.0025,4056.0
339.005,4074.0
339.0075,4081.0
339.01,4044.0
339.0125,4063.0
339.015,4029.0
339.0175,4022.0
339.02,4008.0
339.0225,4012.0
339.025,4016.0
339.0275,4038.0
339.03,4018.0
