246.6025,3935.0
246.605,3913.0
246.6075,3854.0
246.61,3905.0
246.6125,3936.0
246.615,4041.0
246.6175,4086.0
246.62,4018.0
246.6225,4037.0
246.625,3967.0
246.6275,3922.0
246.63,3970.0
246.6325,3996.0
246.635,4113.0
246.6375,4111.0
246.64,4067.0
246.6425,4034.0
246.645,3950.0
246.6475,3910.0
246.65,3974.0
246.6525,4054.0
246.655,4092.0
246.6575,4166.0
246.66,4160.0
246.6625,4097.0
246.665,4008.0
246.6675,3985.0
246.67,4033.0
246.6725,4082.0
246.675,4210.0
246.6775,4199.0
246.68,4148.0
246.6825,4027.0
246.685,3966.0
246.6875,3972.0
246.69,3933.0
246.6925,4124.0
246.695,4183.0
246.6975,4124.0
246.7,4102.0
246.7025,4002.0
246.705,3921.0
246.7075,3889.0
246.71,3983.0
246.7125,4053.0
246.715,4113.0
246.7175,4063.0
246.72,3980.0
246.7225,3856.0
246.725,3765.0
246.7275,3855.0
246.73,3889.0
246.7325,3962.0
246.735,4009.0
246.7375,3967.0
246.74,3904.0
246.7425,3769.0
246.745,3797.0
246.7475,3832.0
246.75,3928.0
246.7525,4031.0
246.755,4055.0
246.7575,3993.0
246.76,3872.0
246.7625,3835.0
246.765,3807.0
246.7675,3838.0
246.77,3936.0
246.7725,4060.0
246.775,4030.0
246.7775,3926.0
246.78,3868.0
246.7825,3814.0
246.785,3814.0
246.7875,3889.0
246.79,3976.0
246.7925,4021.0
246.795,3988.0
246.7975,3975.0
246.8,3870.0
246.8025,3798.0
246.805,3826.0
246.8075,3868.0
246.81,3979.0
246.8125,4030.0
246.815,4012.0
246.8175,3961.0
246.82,3862.0
246.8225,3848.0
246.825,3879.0
246.8275,3929.0
246.83,3991.0
246.8325,4105.0
246.835,4072.0
246.8375,3998.0
246.84,3899.0
246.8425,3896.0
246.845,3909.0
246.8475,3962.0
246.85,4108.0
246.8525,4139.0
246.855,4086.0
246.8575,3983.0
246.86,3901.0
246.8625,3909.0
246.865,3921.0
246.8675,4033.0
246.87,4129.0
246.8725,4131.0
246.875,4117.0
246.8775,4037.0
246.88,3900.0
246.8825,3847.0
246.885,3989.0
246.8875,4056.0
246.89,4151.0
246.8925,4139.0
246.895,4092.0
246.8975,3975.0
246.9,3841.0
246.9025,3896.0
246.905,3978.0
246.9075,4085.0
246.91,4175.0
246.9125,4118.0
246.915,4058.0
246.9175,3945.0
246.92,3937.0
246.9225,3978.0
246.925,4013.0
246.9275,4140.0
246.93,4177.0
246.9325,4143.0
246.935,4035.0
246.9375,3963.0
246.94,3934.0
246.9425,3954.0
246.945,4052.0
246.9475,4151.0
246.95,4149.0
246.9525,4084.0
246.955,4055.0
246.9575,3950.0
246.96,3919.0
246.9625,3967.0
246.965,4055.0
246.9675,4131.0
246.97,4075.0
246.9725,4098.0
246.975,4011.0
246.9775,3941.0
246.98,3933.0
246.9825,3974.0
246.985,4093.0
246.9875,4133.0
246.99,4126.0
246.9925,4091.0
246.995,4015.0
246.9975,3906.0
247.0,3940.0
247.0025,3987.0
247.005,4048.0
247.0075,4164.0
247.01,4120.0
247.0125,4077.0
247.015,3957.0
247.0175,3915.0
247.02,3955.0
247.0225,3994.0
247.025,4105.0
247.0275,4178.0
247.03,4166.0
247.0325,4105.0
247.035,4003.0
247.0375,3938.0
247.04,3941.0
247.0425,4028.0
247.045,4129.0
247.0475,4168.0
247.05,4142.0
247.0525,4066.0
247.055,3971.0
247.0575,3880.0
247.06,3972.0
247.0625,4071.0
247.065,4185.0
247.0675,4182.0
247.07,4150.0
247.0725,4068.0
247.075,3914.0
247.0775,3996.0
247.08,4014.0
247.0825,4078.0
247.085,4163.0
247.0875,4170.0
247.09,4150.0
247.0925,4009.0
247.095,3955.0
247.0975,3973.0
247.1,3980.0
247.1025,4064.0
247.105,4145.0
247.1075,4098.0
247.11,4043.0
247.1125,4006.0
247.115,3965.0
247.1175,4011.0
247.12,4070.0
247.1225,4147.0
247.125,4209.0
247.1275,4149.0
247.13,4146.0
247.1325,4064.0
247.135,4024.0
247.1375,4036.0
247.14,4100.0
247.1425,4181.0
247.145,4203.0
247.1475,4215.0
247.15,4160.0
247.1525,4067.0
247.155,4022.0
247.1575,4042.0
247.16,4105.0
247.1625,4173.0
247.165,4189.0
247.1675,4132.0
247.17,4060.0
247.1725,3981.0
247.175,3974.0
247.1775,3966.0
247.18,3990.0
247.1825,4175.0
247.185,4168.0
247.1875,4082.0
247.19,4016.0
247.1925,3943.0
247.195,3937.0
247.1975,3910.0
247.2,4076.0
247.2025,4092.0
247.205,4097.0
247.2075,4058.0
247.21,3981.0
247.2125,3918.0
247.215,3841.0
247.2175,3894.0
247.22,3963.0
247.2225,4015.0
247.225,4019.0
247.2275,3976.0
247.23,3954.0
247.2325,4001.0
247.235,4190.0
247.2375,4451.0
247.24,4660.0
247.2425,4821.0
247.245,4942.0
247.2475,4990.0
247.25,4880.0
247.2525,4849.0
247.255,4625.0
247.2575,4412.0
247.26,4323.0
247.2625,4195.0
247.265,3993.0
247.2675,3828.0
247.27,3750.0
247.2725,3689.0
247.275,3706.0
247.2775,3798.0
247.28,3903.0
247.2825,3913.0
247.285,3933.0
247.2875,3902.0
247.29,3866.0
247.2925,3916.0
247.295,3950.0
247.2975,4055.0
247.3,4143.0
247.3025,4064.0
247.305,4085.0
247.3075,3998.0
247.31,3930.0
247.3125,3953.0
247.315,3979.0
247.3175,4065.0
247.32,4052.0
247.3225,4093.0
247.325,4012.0
247.3275,3918.0
247.33,3877.0
247.3325,3900.0
247.335,3949.0
247.3375,3988.0
247.34,4054.0
247.3425,4045.0
247.345,4008.0
247.3475,3904.0
247.35,3903.0
247.3525,3897.0
247.355,3910.0
247.3575,4030.0
247.36,4074.0
247.3625,4031.0
247.365,3997.0
247.3675,3908.0
247.37,3921.0
247.3725,3891.0
247.375,4027.0
247.3775,4111.0
247.38,4075.0
247.3825,4064.0
247.385,4010.0
247.3875,3929.0
247.39,3921.0
247.3925,3966.0
247.395,4027.0
247.3975,4144.0
247.4,4138.0
247.4025,4087.0
247.405,4031.0
247.4075,3915.0
247.41,3955.0
247.4125,3981.0
247.415,4075.0
247.4175,4161.0
247.42,4140.0
247.4225,4108.0
247.425,4011.0
247.4275,4015.0
247.43,4046.0
247.4325,4086.0
247.435,4170.0
247.4375,4228.0
247.44,4174.0
247.4425,4051.0
247.445,4068.0
247.4475,4059.0
247.45,4130.0
247.4525,4180.0
247.455,4261.0
247.4575,4278.0
247.46,4183.0
247.4625,4162.0
247.465,4085.0
247.4675,4079.0
247.47,4137.0
247.4725,4179.0
247.475,4260.0
247.4775,4212.0
247.48,4202.0
247.4825,4105.0
247.485,4044.0
247.4875,4108.0
247.49,4114.0
247.4925,4143.0
247.495,4129.0
247.4975,4132.0
247.5,4052.0
247.5025,3959.0
247.505,3890.0
247.5075,3898.0
247.51,3935.0
247.5125,3967.0
247.515,4030.0
247.5175,3988.0
247.52,3910.0
247.5225,3828.0
247.525,3791.0
247.5275,3813.0
247.53,3791.0
247.5325,3942.0
247.535,3977.0
247.5375,3909.0
247.54,3875.0
247.5425,3800.0
247.545,3774.0
247.5475,3770.0
247.55,3911.0
247.5525,4024.0
247.555,4011.0
247.5575,3988.0
247.56,3914.0
247.5625,3854.0
247.565,3809.0
247.5675,3897.0
247.57,4000.0
247.5725,4042.0
247.575,4048.0
247.5775,4025.0
247.58,3923.0
247.5825,3816.0
247.585,3850.0
247.5875,3908.0
247.59,3998.0
247.5925,4065.0
247.595,4060.0
247.5975,4037.0
247.6,3910.0
247.6025,3887.0
247.605,3903.0
247.6075,3946.0
247.61,4065.0
247.6125,4116.0
247.615,4092.0
247.6175,3984.0
247.62,3971.0
247.6225,3897.0
247.625,3938.0
247.6275,3998.0
247.63,4122.0
247.6325,4176.0
247.635,4068.0
247.6375,4043.0
247.64,3943.0
247.6425,3900.0
247.645,3955.0
247.6475,4034.0
247.65,4109.0
247.6525,4084.0
247.655,4088.0
247.6575,4020.0
247.66,3946.0
247.6625,3926.0
247.665,3965.0
247.6675,4033.0
247.67,4071.0
247.6725,4117.0
247.675,4073.0
247.6775,3994.0
247.68,3907.0
247.6825,3941.0
247.685,3970.0
247.6875,4019.0
247.69,4152.0
247.6925,4123.0
247.695,4064.0
247.6975,3985.0
247.7,3921.0
247.7025,3952.0
247.705,3964.0
247.7075,4097.0
247.71,4169.0
247.7125,4125.0
247.715,4053.0
247.7175,3939.0
247.72,3894.0
247.7225,3872.0
247.725,3996.0
247.7275,4145.0
247.73,4159.0
247.7325,4118.0
247.735,4051.0
247.7375,3981.0
247.74,3947.0
247.7425,4000.0
247.745,4033.0
247.7475,4135.0
247.75,4185.0
247.7525,4157.0
247.755,4102.0
247.7575,3957.0
247.76,3985.0
247.7625,4048.0
247.765,4125.0
247.7675,4238.0
247.77,4261.0
247.7725,4204.0
247.775,4056.0
247.7775,4034.0
247.78,4045.0
247.7825,4097.0
247.785,4184.0
247.7875,4251.0
247.79,4245.0
247.7925,4129.0
247.795,4078.0
247.7975,3960.0
247.8,3969.0
247.8025,4037.0
247.805,4151.0
247.8075,4225.0
247.81,4184.0
247.8125,4132.0
247.815,4060.0
247.8175,3968.0
247.82,3996.0
247.8225,4075.0
247.825,4160.0
247.8275,4179.0
247.83,4190.0
247.8325,4132.0
247.835,4011.0
247.8375,3996.0
247.84,4023.0
247.8425,4082.0
247.845,4123.0
247.8475,4183.0
247.85,4124.0
247.8525,4085.0
247.855,3953.0
247.8575,3955.0
247.86,3984.0
247.8625,4017.0
247.865,4158.0
247.8675,4159.0
247.87,4143.0
247.8725,4030.0
247.875,3961.0
247.8775,3956.0
247.88,3940.0
247.8825,4063.0
247.885,4149.0
247.8875,4154.0
247.89,4129.0
247.8925,4036.0
247.895,3944.0
247.8975,3882.0
247.9,3996.0
247.9025,4108.0
247.905,4157.0
247.9075,4139.0
247.91,4075.0
247.9125,3954.0
247.915,3813.0
247.9175,3863.0
247.92,3902.0
247.9225,3967.0
247.925,4053.0
247.9275,4068.0
247.93,4059.0
247.9325,4047.0
247.935,4202.0
247.9375,4375.0
247.94,4551.0
247.9425,4773.0
247.945,4965.0
247.9475,5065.0
247.95,4988.0
247.9525,4885.0
247.955,4645.0
247.9575,4406.0
247.96,4256.0
247.9625,4193.0
247.965,4029.0
247.9675,3822.0
247.97,3771.0
247.9725,3639.0
247.975,3608.0
247.9775,3691.0
247.98,3829.0
247.9825,3957.0
247.985,3973.0
247.9875,3987.0
247.99,3924.0
247.9925,3880.0
247.995,3889.0
247.9975,3967.0
248.0,4055.0
248.0025,4093.0
248.005,4142.0
248.0075,4104.0
248.01,4015.0
248.0125,3968.0
248.015,3997.0
248.0175,4021.0
248.02,4076.0
248.0225,4174.0
248.025,4153.0
248.0275,4124.0
248.03,4021.0
248.0325,3972.0
248.035,3990.0
248.0375,4026.0
248.04,4125.0
248.0425,4187.0
248.045,4158.0
248.0475,4069.0
248.05,4002.0
248.0525,3991.0
248.055,3966.0
248.0575,4111.0
248.06,4168.0
248.0625,4187.0
248.065,4152.0
248.0675,4075.0
248.07,3997.0
248.0725,3942.0
248.075,4012.0
248.0775,4102.0
248.08,4175.0
248.0825,4205.0
248.085,4186.0
248.0875,4069.0
248.09,3921.0
248.0925,3975.0
248.095,4003.0
248.0975,4100.0
248.1,4166.0
248.1025,4170.0
248.105,4138.0
248.1075,3972.0
248.11,3973.0
248.1125,4002.0
248.115,4051.0
248.1175,4139.0
248.12,4205.0
248.1225,4170.0
248.125,4082.0
248.1275,4056.0
248.13,4008.0
248.1325,4019.0
248.135,4078.0
248.1375,4173.0
248.14,4191.0
248.1425,4160.0
248.145,4170.0
248.1475,4068.0
248.15,4047.0
248.1525,4069.0
248.155,4124.0
248.1575,4238.0
248.16,4244.0
248.1625,4250.0
248.165,4147.0
248.1675,4070.0
248.17,4051.0
248.1725,4053.0
248.175,4129.0
248.1775,4101.0
248.18,4163.0
248.1825,4112.0
248.185,4039.0
248.1875,3937.0
248.19,3939.0
248.1925,3932.0
248.195,3943.0
248.1975,4060.0
248.2,4043.0
248.2025,3989.0
248.205,3881.0
248.2075,3827.0
248.21,3817.0
248.2125,3795.0
248.215,3943.0
248.2175,3977.0
248.22,3917.0
248.2225,3883.0
248.225,3754.0
248.2275,3730.0
248.23,3719.0
248.2325,3836.0
248.235,3924.0
248.2375,3909.0
248.24,3884.0
248.2425,3855.0
248.245,3773.0
248.2475,3711.0
248.25,3793.0
248.2525,3855.0
248.255,3951.0
248.2575,3944.0
248.26,3927.0
248.2625,3870.0
248.265,3702.0
248.2675,3797.0
248.27,3836.0
248.2725,3902.0
248.275,3978.0
248.2775,3960.0
248.28,3925.0
248.2825,3816.0
248.285,3805.0
248.2875,3811.0
248.29,3810.0
248.2925,3884.0
248.295,3991.0
248.2975,3958.0
248.3,3897.0
248.3025,3872.0
248.305,3826.0
248.3075,3839.0
248.31,3885.0
248.3125,4005.0
248.315,4027.0
248.3175,3962.0
248.32,3977.0
248.3225,3876.0
248.325,3800.0
248.3275,3848.0
248.33,3931.0
248.3325,4011.0
248.335,4039.0
248.3375,4026.0
248.34,3969.0
248.3425,3883.0
248.345,3849.0
248.3475,3879.0
248.35,3956.0
248.3525,3978.0
248.355,4072.0
248.3575,4036.0
248.36,3971.0
248.3625,3894.0
248.365,3867.0
248.3675,3900.0
248.37,3918.0
248.3725,4058.0
248.375,4043.0
248.3775,4014.0
248.38,3926.0
248.3825,3859.0
248.385,3866.0
248.3875,3914.0
248.39,4032.0
248.3925,4061.0
248.395,4029.0
248.3975,3997.0
248.4,3914.0
248.4025,3876.0
248.405,3841.0
248.4075,3932.0
248.41,4034.0
248.4125,4096.0
248.415,4060.0
248.4175,4029.0
248.42,3946.0
248.4225,3853.0
248.425,3922.0
248.4275,3996.0
248.43,4085.0
248.4325,4092.0
248.435,4064.0
248.4375,4013.0
248.44,3901.0
248.4425,3927.0
248.445,3949.0
248.4475,3999.0
248.45,4087.0
248.4525,4116.0
248.455,4079.0
248.4575,3958.0
248.46,3940.0
248.4625,3906.0
248.465,3921.0
248.4675,4005.0
248.47,4092.0
248.4725,4070.0
248.475,3992.0
248.4775,3967.0
248.48,3904.0
248.4825,3906.0
248.485,3930.0
248.4875,4046.0
248.49,4133.0
248.4925,4044.0
248.495,4085.0
248.4975,3985.0
248.5,3930.0
248.5025,3959.0
248.505,4038.0
248.5075,4096.0
248.51,4136.0
248.5125,4124.0
248.515,4092.0
248.5175,3993.0
248.52,3934.0
248.5225,3985.0
248.525,4002.0
248.5275,4063.0
248.53,4152.0
248.5325,4110.0
248.535,4036.0
248.5375,3933.0
248.54,3903.0
248.5425,3962.0
248.545,3932.0
248.5475,4095.0
248.55,4117.0
248.5525,4090.0
248.555,4030.0
248.5575,3904.0
248.56,3869.0
248.5625,3898.0
248.565,4015.0
248.5675,4117.0
248.57,4128.0
248.5725,4069.0
248.575,4006.0
248.5775,3959.0
248.58,3921.0
248.5825,4003.0
248.585,4074.0
248.5875,4123.0
248.59,4122.0
248.5925,4045.0
248.595,3936.0
248.5975,3770.0
248.6,3847.0
248.6025,3920.0
248.605,4054.0
248.6075,4219.0
248.61,4311.0
248.6125,4395.0
248.615,4448.0
248.6175,4519.0
248.62,4713.0
248.6225,4930.0
248.625,5068.0
248.6275,5143.0
248.63,4961.0
248.6325,4609.0
248.635,4363.0
248.6375,4062.0
248.64,3897.0
248.6425,3878.0
248.645,3888.0
248.6475,3868.0
248.65,3763.0
248.6525,3723.0
248.655,3699.0
248.6575,3707.0
248.66,3808.0
248.6625,3928.0
248.665,4047.0
248.6675,4063.0
248.67,4047.0
248.6725,3963.0
248.675,3872.0
248.6775,3870.0
248.68,3927.0
248.6825,4025.0
248.685,4072.0
248.6875,4100.0
248.69,4053.0
248.6925,3993.0
248.695,3906.0
248.6975,3919.0
248.7,3985.0
248.7025,4021.0
248.705,4139.0
248.7075,4142.0
248.71,4083.0
248.7125,3989.0
248.715,3929.0
248.7175,3949.0
248.72,3980.0
248.7225,4120.0
248.725,4147.0
248.7275,4132.0
248.73,4078.0
248.7325,3989.0
248.735,3979.0
248.7375,3916.0
248.74,4049.0
248.7425,4152.0
248.745,4205.0
248.7475,4187.0
248.75,4107.0
248.7525,3981.0
248.755,3926.0
248.7575,4004.0
248.76,4079.0
248.7625,4198.0
248.765,4226.0
248.7675,4198.0
248.77,4108.0
248.7725,3982.0
248.775,4004.0
248.7775,4067.0
248.78,4177.0
248.7825,4259.0
248.785,4253.0
248.7875,4233.0
248.79,4085.0
248.7925,4063.0
248.795,4067.0
248.7975,4127.0
248.8,4233.0
248.8025,4292.0
248.805,4288.0
248.8075,4223.0
248.81,4175.0
248.8125,4112.0
248.815,4145.0
248.8175,4201.0
248.82,4346.0
248.8225,4408.0
248.825,4350.0
248.8275,4363.0
248.83,4235.0
248.8325,4199.0
248.835,4232.0
248.8375,4282.0
248.84,4390.0
248.8425,4394.0
248.845,4379.0
248.8475,4321.0
248.85,4211.0
248.8525,4153.0
248.855,4143.0
248.8575,4206.0
248.86,4278.0
248.8625,4292.0
248.865,4244.0
248.8675,4153.0
248.87,4006.0
248.8725,4007.0
248.875,4046.0
248.8775,4093.0
248.88,4183.0
248.8825,4169.0
248.885,4111.0
248.8875,4016.0
248.89,3928.0
248.8925,3905.0
248.895,3894.0
248.8975,4039.0
248.9,4100.0
248.9025,4087.0
248.905,4020.0
248.9075,3923.0
248.91,3876.0
248.9125,3785.0
248.915,3914.0
248.9175,3978.0
248.92,4049.0
248.9225,4027.0
248.925,3980.0
248.9275,3889.0
248.93,3788.0
248.9325,3846.0
248.935,3897.0
248.9375,3996.0
248.94,4027.0
248.9425,3994.0
248.945,3919.0
248.9475,3796.0
248.95,3809.0
248.9525,3869.0
248.955,3919.0
248.9575,4013.0
248.96,4023.0
248.9625,4007.0
248.965,3902.0
248.9675,3856.0
248.97,3827.0
248.9725,3877.0
248.975,3944.0
248.9775,4041.0
248.98,4060.0
248.9825,4005.0
248.985,3933.0
248.9875,3860.0
248.99,3843.0
248.9925,3872.0
248.995,3982.0
248.9975,4032.0
249.0,3985.0
249.0025,4014.0
249.005,3923.0
249.0075,3850.0
249.01,3845.0
249.0125,3897.0
249.015,4011.0
249.0175,4019.0
249.02,4039.0
249.0225,3988.0
249.025,3928.0
249.0275,3891.0
249.03,3902.0
249.0325,3969.0
249.035,4044.0
249.0375,4079.0
249.04,4042.0
249.0425,3986.0
249.045,3913.0
249.0475,3875.0
249.05,3888.0
249.0525,3919.0
249.055,4044.0
249.0575,4049.0
249.06,4038.0
249.0625,3973.0
249.065,3884.0
249.0675,3891.0
249.07,3837.0
249.0725,3984.0
249.075,4071.0
249.0775,4049.0
249.08,4026.0
249.0825,3950.0
249.085,3889.0
249.0875,3855.0
249.09,3928.0
249.0925,4011.0
249.095,4056.0
249.0975,4062.0
249.1,4012.0
249.1025,3932.0
249.105,3836.0
249.1075,3903.0
249.11,3923.0
249.1125,4019.0
249.115,4077.0
249.1175,4081.0
249.12,4024.0
249.1225,3897.0
249.125,3918.0
249.1275,3933.0
249.13,3960.0
249.1325,4079.0
249.135,4085.0
249.1375,4072.0
249.14,3994.0
249.1425,3952.0
249.145,3928.0
249.1475,3965.0
249.15,4000.0
249.1525,4094.0
249.155,4104.0
249.1575,4057.0
249.16,3993.0
249.1625,3889.0
249.165,3892.0
249.1675,3916.0
249.17,3976.0
249.1725,4093.0
249.175,4067.0
249.1775,4063.0
249.18,3977.0
249.1825,3912.0
249.185,3930.0
249.1875,3984.0
249.19,4059.0
249.1925,4075.0
249.195,4125.0
249.1975,4080.0
249.2,3982.0
249.2025,3913.0
249.205,3941.0
249.2075,3994.0
249.21,4033.0
249.2125,4125.0
249.215,4072.0
249.2175,4006.0
249.22,3927.0
249.2225,3874.0
249.225,3899.0
249.2275,3925.0
249.23,4044.0
249.2325,4077.0
249.235,4046.0
249.2375,3980.0
249.24,3915.0
249.2425,3903.0
249.245,3905.0
249.2475,4012.0
249.25,4086.0
249.2525,4111.0
249.255,4067.0
249.2575,3980.0
249.26,3929.0
249.2625,3881.0
249.265,3924.0
249.2675,3996.0
249.27,4044.0
249.2725,4062.0
249.275,4004.0
249.2775,3893.0
249.28,3760.0
249.2825,3835.0
249.285,3908.0
249.2875,4076.0
249.29,4257.0
249.2925,4389.0
249.295,4496.0
249.2975,4469.0
249.3,4613.0
249.3025,4815.0
249.305,4976.0
249.3075,5062.0
249.31,4998.0
249.3125,4770.0
249.315,4498.0
249.3175,4173.0
249.32,3882.0
249.3225,3752.0
249.325,3711.0
249.3275,3754.0
249.33,3763.0
249.3325,3730.0
249.335,3713.0
249.3375,3678.0
249.34,3695.0
249.3425,3800.0
249.345,3936.0
249.3475,4043.0
249.35,4003.0
249.3525,4005.0
249.355,3942.0
249.3575,3824.0
249.36,3827.0
249.3625,3884.0
249.365,3965.0
249.3675,4029.0
249.37,4075.0
249.3725,4018.0
249.375,3924.0
249.3775,3848.0
249.38,3895.0
249.3825,3956.0
249.385,3983.0
249.3875,4114.0
249.39,4092.0
249.3925,4024.0
249.395,3923.0
249.3975,3860.0
249.4,3914.0
249.4025,3933.0
249.405,4082.0
249.4075,4158.0
249.41,4135.0
249.4125,4026.0
249.415,3946.0
249.4175,3900.0
249.42,3909.0
249.4225,4026.0
249.425,4101.0
249.4275,4165.0
249.43,4128.0
249.4325,4062.0
249.435,3972.0
249.4375,3919.0
249.44,4025.0
249.4425,4082.0
249.445,4181.0
249.4475,4206.0
249.45,4162.0
249.4525,4091.0
249.455,3921.0
249.4575,3982.0
249.46,4033.0
249.4625,4103.0
249.465,4229.0
249.4675,4252.0
249.47,4194.0
249.4725,4060.0
249.475,3981.0
249.4775,4020.0
249.48,4065.0
249.4825,4174.0
249.485,4274.0
249.4875,4228.0
249.49,4164.0
249.4925,4136.0
249.495,4065.0
249.4975,4081.0
249.5,4145.0
249.5025,4254.0
249.505,4322.0
249.5075,4267.0
249.51,4243.0
249.5125,4140.0
249.515,4060.0
249.5175,4069.0
249.52,4146.0
249.5225,4234.0
249.525,4248.0
249.5275,4283.0
249.53,4175.0
249.5325,4080.0
249.535,4031.0
249.5375,4038.0
249.54,4108.0
249.5425,4123.0
249.545,4194.0
249.5475,4124.0
249.55,4038.0
249.5525,3924.0
249.555,3898.0
249.5575,3926.0
249.56,3951.0
249.5625,4096.0
249.565,4093.0
249.5675,4033.0
249.57,3919.0
249.5725,3831.0
249.575,3816.0
249.5775,3798.0
249.58,3945.0
249.5825,4031.0
249.585,4018.0
249.5875,3988.0
249.59,3874.0
249.5925,3773.0
249.595,3765.0
249.5975,3848.0
249.6,3975.0
249.6025,4051.0
249.605,4014.0
249.6075,3973.0
249.61,3867.0
249.6125,3764.0
249.615,3839.0
249.6175,3896.0
249.62,4015.0
249.6225,4061.0
249.625,4041.0
249.6275,3979.0
249.63,3854.0
249.6325,3854.0
249.635,3882.0
249.6375,3952.0
249.64,4063.0
249.6425,4088.0
249.645,4051.0
249.6475,3947.0
249.65,3904.0
249.6525,3879.0
249.655,3921.0
249.6575,3986.0
249.66,4064.0
249.6625,4078.0
249.665,4005.0
249.6675,3987.0
249.67,3876.0
249.6725,3860.0
249.675,3902.0
249.6775,4012.0
249.68,4115.0
249.6825,4067.0
249.685,4058.0
249.6875,3949.0
249.69,3858.0
249.6925,3899.0
249.695,3925.0
249.6975,4025.0
249.7,4072.0
249.7025,4109.0
249.705,4055.0
249.7075,3938.0
249.71,3868.0
249.7125,3909.0
249.715,3953.0
249.7175,4023.0
249.72,4136.0
249.7225,4122.0
249.725,4051.0
249.7275,3970.0
249.73,3939.0
249.7325,3919.0
249.735,3971.0
249.7375,4078.0
249.74,4148.0
249.7425,4116.0
249.745,4059.0
249.7475,3966.0
249.75,3932.0
249.7525,3919.0
249.755,4032.0
249.7575,4123.0
249.76,4151.0
249.7625,4116.0
249.765,4039.0
249.7675,3952.0
249.77,3884.0
249.7725,3972.0
249.775,4054.0
249.7775,4149.0
249.78,4130.0
249.7825,4140.0
249.785,4035.0
249.7875,3905.0
249.79,3980.0
249.7925,4011.0
249.795,4103.0
249.7975,4167.0
249.8,4182.0
249.8025,4129.0
249.805,4007.0
249.8075,3978.0
249.81,3988.0
249.8125,4051.0
249.815,4119.0
249.8175,4171.0
249.82,4173.0
249.8225,4049.0
249.825,4018.0
249.8275,3968.0
249.83,3970.0
249.8325,4038.0
249.835,4144.0
249.8375,4164.0
249.84,4064.0
249.8425,4063.0
249.845,3979.0
249.8475,3913.0
249.85,3957.0
249.8525,4038.0
249.855,4124.0
249.8575,4138.0
249.86,4144.0
249.8625,4042.0
249.865,3978.0
249.8675,3954.0
249.87,3973.0
249.8725,4064.0
249.875,4091.0
249.8775,4159.0
249.88,4117.0
249.8825,4006.0
249.885,3926.0
249.8875,3894.0
249.89,3946.0
249.8925,4001.0
249.895,4123.0
249.8975,4127.0
249.9,4112.0
249.9025,3997.0
249.905,3962.0
249.9075,3988.0
249.91,3987.0
249.9125,4150.0
249.915,4184.0
249.9175,4153.0
249.92,4098.0
249.9225,4005.0
249.925,4007.0
249.9275,3975.0
249.93,4029.0
249.9325,4128.0
249.935,4171.0
249.9375,4167.0
249.94,4083.0
249.9425,3974.0
249.945,3921.0
249.9475,3965.0
249.95,4021.0
249.9525,4116.0
249.955,4145.0
249.9575,4128.0
249.96,4055.0
249.9625,3917.0
249.965,3951.0
249.9675,3940.0
249.97,4027.0
249.9725,4131.0
249.975,4130.0
249.9775,4112.0
249.98,4001.0
249.9825,3948.0
249.985,3958.0
249.9875,4017.0
249.99,4083.0
249.9925,4156.0
249.995,4099.0
249.9975,3984.0
250.0,3910.0
250.0025,3839.0
250.005,3867.0
250.0075,3947.0
250.01,4038.0
250.0125,4165.0
250.015,4152.0
250.0175,4289.0
250.02,4366.0
250.0225,4453.0
250.025,4622.0
250.0275,4844.0
250.03,5086.0
250.0325,5087.0
250.035,5053.0
250.0375,4813.0
250.04,4523.0
250.0425,4295.0
250.045,4075.0
250.0475,3922.0
250.05,3874.0
250.0525,3820.0
250.055,3745.0
250.0575,3667.0
250.06,3624.0
250.0625,3693.0
250.065,3789.0
250.0675,3858.0
250.07,4014.0
250.0725,4037.0
250.075,3990.0
250.0775,3923.0
250.08,3853.0
250.0825,3875.0
250.085,3886.0
250.0875,3996.0
250.09,4059.0
250.0925,4031.0
250.095,4010.0
250.0975,3935.0
250.1,3883.0
250.1025,3899.0
250.105,3948.0
250.1075,4042.0
250.11,4091.0
250.1125,4056.0
250.115,3996.0
250.1175,3931.0
250.12,3816.0
250.1225,3902.0
250.125,3985.0
250.1275,4081.0
250.13,4100.0
250.1325,4062.0
250.135,4019.0
250.1375,3888.0
250.14,3913.0
250.1425,3966.0
250.145,4033.0
250.1475,4125.0
250.15,4121.0
250.1525,4118.0
250.155,4034.0
250.1575,3969.0
250.16,3971.0
250.1625,4018.0
250.165,4133.0
250.1675,4207.0
250.17,4172.0
250.1725,4114.0
250.175,4061.0
250.1775,4005.0
250.18,4018.0
250.1825,4045.0
250.185,4194.0
250.1875,4248.0
250.19,4149.0
250.1925,4181.0
250.195,4079.0
250.1975,4024.0
250.2,4059.0
250.2025,4132.0
250.205,4214.0
250.2075,4218.0
250.21,4217.0
250.2125,4170.0
250.215,4056.0
250.2175,4008.0
250.22,4047.0
250.2225,4119.0
250.225,4214.0
250.2275,4294.0
250.23,4237.0
250.2325,4174.0
250.235,4081.0
250.2375,4076.0
250.24,4115.0
250.2425,4160.0
250.245,4287.0
250.2475,4292.0
250.25,4212.0
250.2525,4127.0
250.255,4067.0
250.2575,4059.0
250.26,4014.0
250.2625,4146.0
250.265,4220.0
250.2675,4213.0
250.27,4154.0
250.2725,4043.0
250.275,3962.0
250.2775,3938.0
250.28,3980.0
250.2825,4057.0
250.285,4110.0
250.2875,4077.0
250.29,4009.0
250.2925,3913.0
250.295,3795.0
250.2975,3856.0
250.3,3891.0
250.3025,4009.0
250.305,4055.0
250.3075,4018.0
250.31,3922.0
250.3125,3755.0
250.315,3782.0
250.3175,3842.0
250.32,3893.0
250.3225,4007.0
250.325,4083.0
250.3275,4032.0
250.33,3940.0
250.3325,3866.0
250.335,3815.0
250.3375,3864.0
250.34,3939.0
250.3425,4044.0
250.345,4088.0
250.3475,3981.0
250.35,3939.0
250.3525,3848.0
250.355,3841.0
250.3575,3900.0
250.36,3972.0
250.3625,4044.0
250.365,4019.0
250.3675,4041.0
250.37,3950.0
250.3725,3829.0
250.375,3860.0
250.3775,3943.0
250.38,4012.0
250.3825,4035.0
250.385,4082.0
250.3875,4052.0
250.39,3936.0
250.3925,3861.0
250.395,3891.0
250.3975,3938.0
250.4,4006.0
250.4025,4124.0
250.405,4101.0
250.4075,4037.0
250.41,3956.0
250.4125,3908.0
250.415,3921.0
250.4175,3943.0
250.42,4081.0
250.4225,4125.0
250.425,4092.0
250.4275,4025.0
250.43,3904.0
250.4325,3881.0
250.435,3842.0
250.4375,3990.0
250.44,4077.0
250.4425,4092.0
250.445,4053.0
250.4475,4001.0
250.45,3881.0
250.4525,3857.0
250.455,3894.0
250.4575,4004.0
250.46,4106.0
250.4625,4120.0
250.465,4070.0
250.4675,3982.0
250.47,3859.0
250.4725,3922.0
250.475,3941.0
250.4775,4029.0
250.48,4095.0
250.4825,4111.0
250.485,4061.0
250.4875,3907.0
250.49,3863.0
250.4925,3883.0
250.495,3953.0
250.4975,4064.0
250.5,4137.0
250.5025,4082.0
250.505,4020.0
250.5075,3939.0
250.51,3863.0
250.5125,3892.0
250.515,3953.0
250.5175,4074.0
250.52,4113.0
250.5225,4059.0
250.525,4041.0
250.5275,3943.0
250.53,3895.0
250.5325,3910.0
250.535,4021.0
250.5375,4114.0
250.54,4107.0
250.5425,4122.0
250.545,4053.0
250.5475,3936.0
250.55,3931.0
250.5525,3956.0
250.555,4027.0
250.5575,4082.0
250.56,4123.0
250.5625,4106.0
250.565,4010.0
250.5675,3920.0
250.57,3924.0
250.5725,3946.0
250.575,3997.0
250.5775,4140.0
250.58,4131.0
250.5825,4123.0
250.585,4017.0
250.5875,3923.0
250.59,3948.0
250.5925,3933.0
250.595,4052.0
250.5975,4148.0
250.6,4123.0
250.6025,4086.0
250.605,3987.0
250.6075,3931.0
250.61,3908.0
250.6125,4003.0
250.615,4089.0
250.6175,4155.0
250.62,4120.0
250.6225,4098.0
250.625,4004.0
250.6275,3907.0
250.63,3956.0
250.6325,4011.0
250.635,4090.0
250.6375,4132.0
250.64,4136.0
250.6425,4058.0
250.645,3909.0
250.6475,3939.0
250.65,3951.0
250.6525,4024.0
250.655,4105.0
250.6575,4128.0
250.66,4091.0
250.6625,3976.0
250.665,3913.0
250.6675,3909.0
250.67,3923.0
250.6725,4021.0
250.675,4129.0
250.6775,4141.0
250.68,4057.0
250.6825,4025.0
250.685,3965.0
250.6875,3980.0
250.69,3986.0
250.6925,4096.0
250.695,4168.0
250.6975,4105.0
250.7,4127.0
250.7025,4059.0
250.705,3991.0
250.7075,3984.0
250.71,4008.0
250.7125,4118.0
250.715,4130.0
250.7175,4164.0
250.72,4090.0
250.7225,3996.0
250.725,3947.0
250.7275,3990.0
250.73,4025.0
250.7325,4069.0
250.735,4159.0
250.7375,4139.0
250.74,4058.0
250.7425,3980.0
250.745,3944.0
250.7475,3982.0
250.75,4021.0
250.7525,4151.0
250.755,4135.0
250.7575,4094.0
250.76,4019.0
250.7625,3934.0
250.765,3924.0
250.7675,3915.0
250.77,4041.0
250.7725,4071.0
250.775,4061.0
250.7775,4030.0
250.78,3928.0
250.7825,3854.0
250.785,3829.0
250.7875,3935.0
250.79,4068.0
250.7925,4258.0
250.795,4430.0
250.7975,4550.0
250.8,4566.0
250.8025,4602.0
250.805,4829.0
250.8075,4966.0
250.81,5053.0
250.8125,4983.0
250.815,4731.0
250.8175,4456.0
250.82,4121.0
250.8225,3917.0
250.825,3797.0
250.8275,3768.0
250.83,3816.0
250.8325,3798.0
250.835,3765.0
250.8375,3691.0
250.84,3693.0
250.8425,3729.0
250.845,3797.0
250.8475,3901.0
250.85,4013.0
250.8525,4025.0
250.855,3975.0
250.8575,3979.0
250.86,3899.0
250.8625,3867.0
250.865,3908.0
250.8675,3997.0
250.87,4048.0
250.8725,4015.0
250.875,3998.0
250.8775,3940.0
250.88,3869.0
250.8825,3897.0
250.885,3943.0
250.8875,4020.0
250.89,4045.0
250.8925,4077.0
250.895,4050.0
250.8975,3971.0
250.9,3931.0
250.9025,3952.0
250.905,4000.0
250.9075,4046.0
250.91,4127.0
250.9125,4098.0
250.915,4031.0
250.9175,3948.0
250.92,3926.0
250.9225,3936.0
250.925,3937.0
250.9275,4105.0
250.93,4128.0
250.9325,4102.0
250.935,4053.0
250.9375,3987.0
250.94,3986.0
250.9425,3976.0
250.945,4073.0
250.9475,4181.0
250.95,4185.0
250.9525,4138.0
250.955,4060.0
250.9575,3978.0
250.96,3906.0
250.9625,4024.0
250.965,4103.0
250.9675,4173.0
250.97,4170.0
250.9725,4154.0
250.975,4078.0
250.9775,3991.0
250.98,4029.0
250.9825,4088.0
250.985,4156.0
250.9875,4231.0
250.99,4211.0
250.9925,4182.0
250.995,4052.0
250.9975,4061.0
251.0,4083.0
251.0025,4090.0
251.005,4209.0
251.0075,4264.0
251.01,4221.0
251.0125,4115.0
251.015,4072.0
251.0175,4016.0
251.02,4031.0
251.0225,4119.0
251.025,4210.0
251.0275,4239.0
251.03,4173.0
251.0325,4129.0
251.035,4029.0
251.0375,4021.0
251.04,4041.0
251.0425,4078.0
251.045,4152.0
251.0475,4126.0
251.05,4087.0
251.0525,4019.0
251.055,3910.0
251.0575,3889.0
251.06,3927.0
251.0625,3982.0
251.065,4029.0
251.0675,4064.0
251.07,4022.0
251.0725,3905.0
251.075,3831.0
251.0775,3840.0
251.08,3891.0
251.0825,3925.0
251.085,4013.0
251.0875,3987.0
251.09,3957.0
251.0925,3871.0
251.095,3798.0
251.0975,3821.0
251.1,3808.0
251.1025,3977.0
251.105,4023.0
251.1075,3995.0
251.11,3945.0
251.1125,3846.0
251.115,3815.0
251.1175,3816.0
251.12,3918.0
251.1225,4044.0
251.125,4084.0
251.1275,4040.0
251.13,3983.0
251.1325,3875.0
251.135,3820.0
251.1375,3899.0
251.14,3953.0
251.1425,4042.0
251.145,4102.0
251.1475,4039.0
251.15,3977.0
251.1525,3846.0
251.155,3853.0
251.1575,3918.0
251.16,3972.0
251.1625,4085.0
251.165,4093.0
251.1675,4032.0
251.17,3924.0
251.1725,3898.0
251.175,3922.0
251.1775,3967.0
251.18,4074.0
251.1825,4167.0
251.185,4115.0
251.1875,4014.0
251.19,3997.0
251.1925,3904.0
251.195,3956.0
251.1975,3979.0
251.2,4084.0
251.2025,4147.0
251.205,4101.0
251.2075,4054.0
251.21,3961.0
251.2125,3892.0
251.215,3927.0
251.2175,4010.0
251.22,4099.0
251.2225,4080.0
251.225,4127.0
251.2275,4064.0
251.23,3984.0
251.2325,3960.0
251.235,3979.0
251.2375,4049.0
251.24,4071.0
251.2425,4173.0
251.245,4103.0
251.2475,3986.0
251.25,3923.0
251.2525,3909.0
251.255,3945.0
251.2575,3998.0
251.26,4148.0
251.2625,4150.0
251.265,4099.0
251.2675,4036.0
251.27,4000.0
251.2725,4027.0
251.275,4067.0
251.2775,4267.0
251.28,4397.0
251.2825,4463.0
251.285,4531.0
251.2875,4563.0
251.29,4500.0
251.2925,4339.0
251.295,4329.0
251.2975,4362.0
251.3,4360.0
251.3025,4311.0
251.305,4236.0
251.3075,4074.0
251.31,3946.0
251.3125,4002.0
251.315,4026.0
251.3175,4136.0
251.32,4145.0
251.3225,4134.0
251.325,4045.0
251.3275,3915.0
251.33,3898.0
251.3325,3932.0
251.335,3980.0
251.3375,4080.0
251.34,4072.0
251.3425,4064.0
251.345,3928.0
251.3475,3888.0
251.35,3878.0
251.3525,3886.0
251.355,3973.0
251.3575,4078.0
251.36,4076.0
251.3625,3997.0
251.365,3957.0
251.3675,3864.0
251.37,3891.0
251.3725,3920.0
251.375,4009.0
251.3775,4092.0
251.38,4057.0
251.3825,4039.0
251.385,3935.0
251.3875,3858.0
251.39,3881.0
251.3925,3913.0
251.395,4055.0
251.3975,4078.0
251.4,4113.0
251.4025,4063.0
251.405,3958.0
251.4075,3898.0
251.41,3938.0
251.4125,3981.0
251.415,4008.0
251.4175,4156.0
251.42,4125.0
251.4225,4082.0
251.425,3964.0
251.4275,3904.0
251.43,3940.0
251.4325,3939.0
251.435,4088.0
251.4375,4119.0
251.44,4064.0
251.4425,4000.0
251.445,3888.0
251.4475,3868.0
251.45,3863.0
251.4525,3967.0
251.455,4071.0
251.4575,4074.0
251.46,4042.0
251.4625,3963.0
251.465,3855.0
251.4675,3810.0
251.47,3902.0
251.4725,3980.0
251.475,4094.0
251.4775,4102.0
251.48,4096.0
251.4825,4012.0
251.485,3875.0
251.4875,3923.0
251.49,3954.0
251.4925,4033.0
251.495,4073.0
251.4975,4043.0
251.5,4000.0
251.5025,3845.0
251.505,3791.0
251.5075,3832.0
251.51,3930.0
251.5125,4126.0
251.515,4326.0
251.5175,4466.0
251.52,4516.0
251.5225,4600.0
251.525,4680.0
251.5275,4858.0
251.53,4962.0
251.5325,5060.0
251.535,4901.0
251.5375,4554.0
251.54,4297.0
251.5425,4040.0
251.545,3837.0
251.5475,3713.0
251.55,3732.0
251.5525,3791.0
251.555,3785.0
251.5575,3771.0
251.56,3731.0
251.5625,3675.0
251.565,3711.0
251.5675,3774.0
251.57,3896.0
251.5725,3923.0
251.575,3993.0
251.5775,3981.0
251.58,3921.0
251.5825,3849.0
251.585,3873.0
251.5875,3890.0
251.59,3942.0
251.5925,4022.0
251.595,4029.0
251.5975,4011.0
251.6,3921.0
251.6025,3867.0
251.605,3887.0
251.6075,3893.0
251.61,4061.0
251.6125,4095.0
251.615,4041.0
251.6175,4020.0
251.62,3932.0
251.6225,3902.0
251.625,3882.0
251.6275,3997.0
251.63,4070.0
251.6325,4092.0
251.635,4057.0
251.6375,4030.0
251.64,3966.0
251.6425,3889.0
251.645,3955.0
251.6475,4031.0
251.65,4125.0
251.6525,4111.0
251.655,4105.0
251.6575,4033.0
251.66,3925.0
251.6625,3990.0
251.665,3993.0
251.6675,4101.0
251.67,4150.0
251.6725,4182.0
251.675,4163.0
251.6775,4029.0
251.68,3986.0
251.6825,3994.0
251.685,4041.0
251.6875,4110.0
251.69,4185.0
251.6925,4149.0
251.695,4087.0
251.6975,4091.0
251.7,4028.0
251.7025,4054.0
251.705,4105.0
251.7075,4195.0
251.71,4241.0
251.7125,4179.0
251.715,4194.0
251.7175,4096.0
251.72,4055.0
251.7225,4089.0
251.725,4162.0
251.7275,4242.0
251.73,4256.0
251.7325,4241.0
251.735,4186.0
251.7375,4112.0
251.74,4065.0
251.7425,4109.0
251.745,4156.0
251.7475,4181.0
251.75,4259.0
251.7525,4229.0
251.755,4154.0
251.7575,4079.0
251.76,4075.0
251.7625,4090.0
251.765,4095.0
251.7675,4198.0
251.77,4174.0
251.7725,4095.0
251.775,4018.0
251.7775,3935.0
251.78,3958.0
251.7825,3944.0
251.785,4054.0
251.7875,4107.0
251.79,4034.0
251.7925,3970.0
251.795,3862.0
251.7975,3803.0
251.8,3791.0
251.8025,3901.0
251.805,3965.0
251.8075,4006.0
251.81,3967.0
251.8125,3914.0
251.815,3826.0
251.8175,3725.0
251.82,3831.0
251.8225,3904.0
251.825,3983.0
251.8275,4009.0
251.83,3998.0
251.8325,3914.0
251.835,3787.0
251.8375,3829.0
251.84,3875.0
251.8425,3931.0
251.845,4044.0
251.8475,4036.0
251.85,3997.0
251.8525,3920.0
251.855,3860.0
251.8575,3880.0
251.86,3917.0
251.8625,3980.0
251.865,4057.0
251.8675,4030.0
251.87,3930.0
251.8725,3925.0
251.875,3859.0
251.8775,3853.0
251.88,3889.0
251.8825,3991.0
251.885,4045.0
251.8875,3995.0
251.89,4000.0
251.8925,3918.0
251.895,3865.0
251.8975,3895.0
251.9,3964.0
251.9025,4051.0
251.905,4062.0
251.9075,4063.0
251.91,4006.0
251.9125,3905.0
251.915,3871.0
251.9175,3937.0
251.92,4005.0
251.9225,4031.0
251.925,4138.0
251.9275,4109.0
251.93,4022.0
251.9325,3937.0
251.935,3944.0
251.9375,3984.0
251.94,4016.0
251.9425,4147.0
251.945,4164.0
251.9475,4128.0
251.95,4027.0
251.9525,3930.0
251.955,3924.0
251.9575,3902.0
251.96,4059.0
251.9625,4134.0
251.965,4133.0
251.9675,4118.0
251.97,4039.0
251.9725,3946.0
251.975,3904.0
251.9775,4039.0
251.98,4081.0
251.9825,4146.0
251.985,4141.0
251.9875,4083.0
251.99,3983.0
251.9925,3863.0
251.995,3936.0
251.9975,4001.0
252.0,4100.0
252.0025,4159.0
252.005,4158.0
252.0075,4084.0
252.01,3945.0
252.0125,3954.0
252.015,3990.0
252.0175,4044.0
252.02,4137.0
252.0225,4193.0
252.025,4133.0
252.0275,4026.0
252.03,3958.0
252.0325,3950.0
252.035,3973.0
252.0375,4070.0
252.04,4189.0
252.0425,4193.0
252.045,4097.0
252.0475,4069.0
252.05,3959.0
252.0525,3930.0
252.055,3986.0
252.0575,4084.0
252.06,4168.0
252.0625,4059.0
252.065,4089.0
252.0675,4035.0
252.07,3952.0
252.0725,3943.0
252.075,3992.0
252.0775,4088.0
252.08,4122.0
252.0825,4144.0
252.085,4080.0
252.0875,3977.0
252.09,3901.0
252.0925,3952.0
252.095,4023.0
252.0975,4083.0
252.1,4197.0
252.1025,4182.0
252.105,4103.0
252.1075,3998.0
252.11,3960.0
252.1125,4007.0
252.115,4011.0
252.1175,4146.0
252.12,4206.0
252.1225,4176.0
252.125,4094.0
252.1275,4002.0
252.13,3964.0
252.1325,3948.0
252.135,4075.0
252.1375,4169.0
252.14,4187.0
252.1425,4155.0
252.145,4065.0
252.1475,3976.0
252.15,3883.0
252.1525,3959.0
252.155,4025.0
252.1575,4118.0
252.16,4156.0
252.1625,4129.0
252.165,4039.0
252.1675,3894.0
252.17,3962.0
252.1725,4001.0
252.175,4098.0
252.1775,4195.0
252.18,4181.0
252.1825,4138.0
252.185,4012.0
252.1875,3969.0
252.19,3961.0
252.1925,4027.0
252.195,4131.0
252.1975,4167.0
252.2,4126.0
252.2025,3995.0
252.205,3877.0
252.2075,3831.0
252.21,3869.0
252.2125,3979.0
252.215,4198.0
252.2175,4368.0
252.22,4457.0
252.2225,4597.0
252.225,4604.0
252.2275,4709.0
252.23,4872.0
252.2325,4976.0
252.235,5080.0
252.2375,4863.0
252.24,4642.0
252.2425,4375.0
252.245,4078.0
252.2475,3857.0
252.25,3768.0
252.2525,3782.0
252.255,3765.0
252.2575,3862.0
252.26,3821.0
252.2625,3761.0
252.265,3744.0
252.2675,3783.0
252.27,3842.0
252.2725,3892.0
252.275,4081.0
252.2775,4086.0
252.28,4026.0
252.2825,3950.0
252.285,3892.0
252.2875,3894.0
252.29,3896.0
252.2925,4039.0
252.295,4098.0
252.2975,4096.0
252.3,4039.0
252.3025,3948.0
252.305,3869.0
252.3075,3875.0
252.31,3990.0
252.3125,4097.0
252.315,4145.0
252.3175,4116.0
252.32,4056.0
252.3225,3944.0
252.325,3872.0
252.3275,3933.0
252.33,4007.0
252.3325,4106.0
252.335,4156.0
252.3375,4115.0
252.34,4031.0
252.3425,3887.0
252.345,3926.0
252.3475,3954.0
252.35,4030.0
252.3525,4120.0
252.355,4147.0
252.3575,4118.0
252.36,4010.0
252.3625,3981.0
252.365,3966.0
252.3675,4012.0
252.37,4086.0
252.3725,4188.0
252.375,4208.0
252.3775,4099.0
252.38,4070.0
252.3825,3975.0
252.385,4001.0
252.3875,4049.0
252.39,4145.0
252.3925,4213.0
252.395,4164.0
252.3975,4167.0
252.4,4073.0
252.4025,4045.0
252.405,4026.0
252.4075,4080.0
252.41,4178.0
252.4125,4186.0
252.415,4231.0
252.4175,4173.0
252.42,4083.0
252.4225,4051.0
252.425,4073.0
252.4275,4106.0
252.43,4164.0
252.4325,4242.0
252.435,4209.0
252.4375,4138.0
252.44,4025.0
252.4425,4013.0
252.445,4023.0
252.4475,4073.0
252.45,4182.0
252.4525,4196.0
252.455,4132.0
252.4575,4085.0
252.46,4016.0
252.4625,3991.0
252.465,3940.0
252.4675,4072.0
252.47,4111.0
252.4725,4091.0
252.475,4046.0
252.4775,3965.0
252.48,3879.0
252.4825,3823.0
252.485,3898.0
252.4875,3982.0
252.49,4035.0
252.4925,4025.0
252.495,3976.0
252.4975,3873.0
252.5,3804.0
252.5025,3810.0
252.505,3846.0
252.5075,3937.0
252.51,4004.0
252.5125,3968.0
252.515,3905.0
252.5175,3750.0
252.52,3801.0
252.5225,3817.0
252.525,3876.0
252.5275,3960.0
252.53,3989.0
252.5325,3962.0
252.535,3866.0
252.5375,3813.0
252.54,3814.0
252.5425,3849.0
252.545,3939.0
252.5475,4040.0
252.55,4024.0
252.5525,3928.0
252.555,3912.0
252.5575,3831.0
252.56,3886.0
252.5625,3900.0
252.565,3943.0
252.5675,4040.0
252.57,3988.0
252.5725,4002.0
252.575,3926.0
252.5775,3839.0
252.58,3865.0
252.5825,3909.0
252.585,4002.0
252.5875,4043.0
252.59,4054.0
252.5925,4010.0
252.595,3920.0
252.5975,3858.0
252.6,3890.0
252.6025,3925.0
252.605,4009.0
252.6075,4122.0
252.61,4088.0
252.6125,4034.0
252.615,3943.0
252.6175,3920.0
252.62,3974.0
252.6225,3967.0
252.625,4109.0
252.6275,4142.0
252.63,4111.0
252.6325,4062.0
252.635,3978.0
252.6375,3949.0
252.64,3930.0
252.6425,4025.0
252.645,4103.0
252.6475,4105.0
252.65,4096.0
252.6525,4019.0
252.655,3936.0
252.6575,3905.0
252.66,4008.0
252.6625,4057.0
252.665,4111.0
252.6675,4114.0
252.67,4073.0
252.6725,3994.0
252.675,3895.0
252.6775,3928.0
252.68,3989.0
252.6825,4016.0
252.685,4084.0
252.6875,4094.0
252.69,4046.0
252.6925,3888.0
252.695,3918.0
252.6975,3934.0
252.7,3970.0
252.7025,4068.0
252.705,4102.0
252.7075,4084.0
252.71,3949.0
252.7125,3945.0
252.715,3923.0
252.7175,3950.0
252.72,4017.0
252.7225,4083.0
252.725,4073.0
252.7275,4021.0
252.73,3993.0
252.7325,3930.0
252.735,3916.0
252.7375,3943.0
252.74,4043.0
252.7425,4111.0
252.745,4044.0
252.7475,4084.0
252.75,4000.0
252.7525,3939.0
252.755,3930.0
252.7575,3958.0
252.76,4046.0
252.7625,4064.0
252.765,4127.0
252.7675,4075.0
252.77,3987.0
252.7725,3900.0
252.775,3937.0
252.7775,3969.0
252.78,4022.0
252.7825,4133.0
252.785,4100.0
252.7875,4053.0
252.79,3982.0
252.7925,3933.0
252.795,3986.0
252.7975,3961.0
252.8,4103.0
252.8025,4164.0
252.805,4100.0
252.8075,4040.0
252.81,3948.0
252.8125,3904.0
252.815,3901.0
252.8175,4003.0
252.82,4112.0
252.8225,4134.0
252.825,4101.0
252.8275,4055.0
252.83,3922.0
252.8325,3883.0
252.835,3984.0
252.8375,4082.0
252.84,4177.0
252.8425,4194.0
252.845,4137.0
252.8475,4063.0
252.85,3950.0
252.8525,3940.0
252.855,4003.0
252.8575,4081.0
252.86,4177.0
252.8625,4181.0
252.865,4100.0
252.8675,3968.0
252.87,3906.0
252.8725,3952.0
252.875,4005.0
252.8775,4093.0
252.88,4159.0
252.8825,4139.0
252.885,4029.0
252.8875,3971.0
252.89,3903.0
252.8925,3970.0
252.895,4012.0
252.8975,4105.0
252.9,4158.0
252.9025,4091.0
252.905,4097.0
252.9075,3971.0
252.91,3902.0
252.9125,3932.0
252.915,4017.0
252.9175,4118.0
252.92,4096.0
252.9225,4130.0
252.925,4043.0
252.9275,3954.0
252.93,3922.0
252.9325,3937.0
252.935,3982.0
252.9375,3969.0
252.94,4050.0
252.9425,4002.0
252.945,3935.0
252.9475,3885.0
252.95,3991.0
252.9525,4155.0
252.955,4360.0
252.9575,4631.0
252.96,4777.0
252.9625,4894.0
252.965,4933.0
252.9675,4872.0
252.97,4835.0
252.9725,4666.0
252.975,4618.0
252.9775,4508.0
252.98,4246.0
252.9825,3963.0
252.985,3772.0
252.9875,3621.0
252.99,3513.0
252.9925,3638.0
252.995,3767.0
252.9975,3889.0
253.0,3922.0
253.0025,3904.0
253.005,3841.0
253.0075,3759.0
253.01,3870.0
253.0125,3955.0
253.015,4035.0
253.0175,4089.0
253.02,4055.0
253.0225,3959.0
253.025,3845.0
253.0275,3840.0
253.03,3875.0
253.0325,3959.0
253.035,4063.0
253.0375,4081.0
253.04,4060.0
253.0425,3922.0
253.045,3878.0
253.0475,3864.0
253.05,3920.0
253.0525,4000.0
253.055,4088.0
253.0575,4079.0
253.06,4006.0
253.0625,3955.0
253.065,3886.0
253.0675,3881.0
253.07,3926.0
253.0725,4039.0
253.075,4121.0
253.0775,4067.0
253.08,4079.0
253.0825,3969.0
253.085,3899.0
253.0875,3913.0
253.09,3945.0
253.0925,4069.0
253.095,4106.0
253.0975,4132.0
253.1,4095.0
253.1025,3998.0
253.105,3951.0
253.1075,3985.0
253.11,4025.0
253.1125,4101.0
253.115,4229.0
253.1175,4180.0
253.12,4115.0
253.1225,4007.0
253.125,4009.0
253.1275,4032.0
253.13,4054.0
253.1325,4217.0
253.135,4235.0
253.1375,4187.0
253.14,4116.0
253.1425,4033.0
253.145,4036.0
253.1475,4066.0
253.15,4156.0
253.1525,4257.0
253.155,4255.0
253.1575,4226.0
253.16,4157.0
253.1625,4063.0
253.165,3991.0
253.1675,4101.0
253.17,4176.0
253.1725,4267.0
253.175,4286.0
253.1775,4227.0
253.18,4123.0
253.1825,4004.0
253.185,4066.0
253.1875,4120.0
253.19,4182.0
253.1925,4277.0
253.195,4228.0
253.1975,4178.0
253.2,4025.0
253.2025,3964.0
253.205,3979.0
253.2075,4021.0
253.21,4128.0
253.2125,4176.0
253.215,4108.0
253.2175,4014.0
253.22,3942.0
253.2225,3888.0
253.225,3893.0
253.2275,3950.0
253.23,4035.0
253.2325,4045.0
253.235,3979.0
253.2375,3964.0
253.24,3870.0
253.2425,3838.0
253.245,3859.0
253.2475,3919.0
253.25,4019.0
253.2525,3985.0
253.255,3989.0
253.2575,3896.0
253.26,3830.0
253.2625,3810.0
253.265,3858.0
253.2675,3941.0
253.27,3961.0
253.2725,4014.0
253.275,3976.0
253.2775,3898.0
253.28,3837.0
253.2825,3843.0
253.285,3881.0
253.2875,3917.0
253.29,4024.0
253.2925,4010.0
253.295,4014.0
253.2975,3898.0
253.3,3855.0
253.3025,3849.0
253.305,3860.0
253.3075,4020.0
253.31,4061.0
253.3125,4043.0
253.315,3992.0
253.3175,3914.0
253.32,3875.0
253.3225,3830.0
253.325,3962.0
253.3275,4070.0
253.33,4103.0
253.3325,4094.0
253.335,4020.0
253.3375,3913.0
253.34,3876.0
253.3425,3944.0
253.345,4020.0
253.3475,4104.0
253.35,4106.0
253.3525,4102.0
253.355,3997.0
253.3575,3872.0
253.36,3945.0
253.3625,3982.0
253.365,4044.0
253.3675,4116.0
253.37,4118.0
253.3725,4106.0
253.375,4002.0
253.3775,3941.0
253.38,3937.0
253.3825,3943.0
253.385,4035.0
253.3875,4120.0
253.39,4104.0
253.3925,4016.0
253.395,3968.0
253.3975,3933.0
253.4,3950.0
253.4025,3964.0
253.405,4065.0
253.4075,4119.0
253.41,4027.0
253.4125,4048.0
253.415,3970.0
253.4175,3948.0
253.42,3967.0
253.4225,4037.0
253.425,4107.0
253.4275,4091.0
253.43,4107.0
253.4325,4068.0
253.435,3980.0
253.4375,3948.0
253.44,3968.0
253.4425,4034.0
253.445,4061.0
253.4475,4093.0
253.45,4094.0
253.4525,4051.0
253.455,3977.0
253.4575,3970.0
253.46,3992.0
253.4625,4014.0
253.465,4140.0
253.4675,4146.0
253.47,4115.0
253.4725,4030.0
253.475,3993.0
253.4775,4027.0
253.48,3994.0
253.4825,4120.0
253.485,4172.0
253.4875,4134.0
253.49,4105.0
253.4925,4023.0
253.495,3969.0
253.4975,3956.0
253.5,4035.0
253.5025,4126.0
253.505,4155.0
253.5075,4137.0
253.51,4095.0
253.5125,4002.0
253.515,3914.0
253.5175,4035.0
253.52,4089.0
253.5225,4168.0
253.525,4151.0
253.5275,4126.0
253.53,4053.0
253.5325,3948.0
253.535,3980.0
253.5375,3993.0
253.54,4063.0
253.5425,4153.0
253.545,4167.0
253.5475,4105.0
253.55,4023.0
253.5525,3964.0
253.555,3964.0
253.5575,3988.0
253.56,4070.0
253.5625,4159.0
253.565,4134.0
253.5675,4061.0
253.57,3997.0
253.5725,3964.0
253.575,3987.0
253.5775,3999.0
253.58,4111.0
253.5825,4163.0
253.585,4113.0
253.5875,4097.0
253.59,4027.0
253.5925,3980.0
253.595,3990.0
253.5975,4028.0
253.6,4128.0
253.6025,4140.0
253.605,4150.0
253.6075,4089.0
253.61,3984.0
253.6125,3969.0
253.615,3971.0
253.6175,4035.0
253.62,4069.0
253.6225,4153.0
253.625,4116.0
253.6275,4043.0
253.63,3959.0
253.6325,3985.0
253.635,4025.0
253.6375,4065.0
253.64,4248.0
253.6425,4249.0
253.645,4231.0
253.6475,4138.0
253.65,4066.0
253.6525,4062.0
253.655,4035.0
253.6575,4171.0
253.66,4232.0
253.6625,4203.0
253.665,4178.0
253.6675,4084.0
253.67,3996.0
253.6725,4019.0
253.675,4018.0
253.6775,4104.0
253.68,4158.0
253.6825,4131.0
253.685,4073.0
253.6875,3974.0
253.69,3843.0
253.6925,3937.0
253.695,3963.0
253.6975,4059.0
253.7,4129.0
253.7025,4106.0
253.705,4045.0
253.7075,3892.0
253.71,3915.0
253.7125,3957.0
253.715,4042.0
253.7175,4139.0
253.72,4201.0
253.7225,4120.0
253.725,4043.0
253.7275,3975.0
253.73,3941.0
253.7325,3970.0
253.735,4008.0
253.7375,4076.0
253.74,4070.0
253.7425,3998.0
253.745,4010.0
253.7475,3948.0
253.75,4042.0
253.7525,4206.0
253.755,4467.0
253.7575,4694.0
253.76,4745.0
253.7625,4956.0
253.765,4993.0
253.7675,4924.0
253.77,4878.0
253.7725,4761.0
253.775,4668.0
253.7775,4515.0
253.78,4272.0
253.7825,4008.0
253.785,3815.0
253.7875,3689.0
253.79,3677.0
253.7925,3707.0
253.795,3773.0
253.7975,3929.0
253.8,3979.0
253.8025,3946.0
253.805,3870.0
253.8075,3847.0
253.81,3902.0
253.8125,3949.0
253.815,4092.0
253.8175,4113.0
253.82,4074.0
253.8225,3997.0
253.825,3885.0
253.8275,3852.0
253.83,3858.0
253.8325,3995.0
253.835,4066.0
253.8375,4085.0
253.84,4056.0
253.8425,4000.0
253.845,3899.0
253.8475,3880.0
253.85,3937.0
253.8525,4033.0
253.855,4130.0
253.8575,4119.0
253.86,4104.0
253.8625,3983.0
253.865,3844.0
253.8675,3895.0
253.87,3932.0
253.8725,4030.0
253.875,4130.0
253.8775,4136.0
253.88,4085.0
253.8825,3949.0
253.885,3936.0
253.8875,3953.0
253.89,3987.0
253.8925,4102.0
253.895,4161.0
253.8975,4141.0
253.9,4063.0
253.9025,3987.0
253.905,3934.0
253.9075,3951.0
253.91,4027.0
253.9125,4139.0
253.915,4183.0
253.9175,4108.0
253.92,4084.0
253.9225,4000.0
253.925,3962.0
253.9275,3977.0
253.93,4064.0
253.9325,4154.0
253.935,4149.0
253.9375,4188.0
253.94,4088.0
253.9425,3993.0
253.945,3995.0
253.9475,4047.0
253.95,4133.0
253.9525,4204.0
253.955,4238.0
253.9575,4202.0
253.96,4124.0
253.9625,4022.0
253.965,4068.0
253.9675,4126.0
253.97,4153.0
253.9725,4317.0
253.975,4282.0
253.9775,4244.0
253.98,4139.0
253.9825,4067.0
253.985,4067.0
253.9875,4065.0
253.99,4210.0
253.9925,4261.0
253.995,4249.0
253.9975,4203.0
254.0,4097.0
254.0025,4023.0
254.005,3964.0
254.0075,4034.0
254.01,4127.0
254.0125,4177.0
254.015,4118.0
254.0175,4070.0
254.02,3951.0
254.0225,3864.0
254.025,3901.0
254.0275,3934.0
254.03,4029.0
254.0325,4074.0
254.035,4030.0
254.0375,3957.0
254.04,3787.0
254.0425,3857.0
254.045,3864.0
254.0475,3904.0
254.05,3999.0
254.0525,4019.0
254.055,3978.0
254.0575,3847.0
254.06,3783.0
254.0625,3775.0
254.065,3795.0
254.0675,3895.0
254.07,3988.0
254.0725,3965.0
254.075,3899.0
254.0775,3852.0
254.08,3777.0
254.0825,3784.0
254.085,3841.0
254.0875,3934.0
254.09,4009.0
254.0925,3971.0
254.095,3969.0
254.0975,3885.0
254.1,3825.0
254.1025,3842.0
254.105,3915.0
254.1075,4005.0
254.11,4012.0
254.1125,4032.0
254.115,3979.0
254.1175,3880.0
254.12,3849.0
254.1225,3872.0
254.125,3932.0
254.1275,3974.0
254.13,4039.0
254.1325,4039.0
254.135,3986.0
254.1375,3913.0
254.14,3900.0
254.1425,3936.0
254.145,3983.0
254.1475,4083.0
254.15,4077.0
254.1525,4068.0
254.155,3991.0
254.1575,3920.0
254.16,3911.0
254.1625,3869.0
254.165,4008.0
254.1675,4087.0
254.17,4079.0
254.1725,4069.0
254.175,3972.0
254.1775,3868.0
254.18,3845.0
254.1825,3939.0
254.185,3994.0
254.1875,4071.0
254.19,4061.0
254.1925,4030.0
254.195,3944.0
254.1975,3877.0
254.2,3907.0
254.2025,3975.0
254.205,4040.0
254.2075,4083.0
254.21,4093.0
254.2125,4010.0
254.215,3881.0
254.2175,3889.0
254.22,3914.0
254.2225,3989.0
254.225,4049.0
254.2275,4074.0
254.23,4050.0
254.2325,3962.0
254.235,3888.0
254.2375,3865.0
254.24,3879.0
254.2425,3957.0
254.245,4052.0
254.2475,4045.0
254.25,3989.0
254.2525,3969.0
254.255,3885.0
254.2575,3862.0
254.26,3892.0
254.2625,4007.0
254.265,4070.0
254.2675,4017.0
254.27,4032.0
254.2725,3949.0
254.275,3868.0
254.2775,3896.0
254.28,3920.0
254.2825,4006.0
254.285,4016.0
254.2875,4047.0
254.29,4013.0
254.2925,3913.0
254.295,3884.0
254.2975,3910.0
254.3,3949.0
254.3025,3997.0
254.305,4088.0
254.3075,4068.0
254.31,3993.0
254.3125,3910.0
254.315,3897.0
254.3175,3927.0
254.32,3944.0
254.3225,4040.0
254.325,4078.0
254.3275,4040.0
254.33,3980.0
254.3325,3893.0
254.335,3881.0
254.3375,3848.0
254.34,3950.0
254.3425,4066.0
254.345,4073.0
254.3475,4031.0
254.35,3940.0
254.3525,3892.0
254.355,3853.0
254.3575,3902.0
254.36,3977.0
254.3625,4058.0
254.365,4044.0
254.3675,3992.0
254.37,3920.0
254.3725,3861.0
254.375,3886.0
254.3775,3911.0
254.38,4026.0
254.3825,4093.0
254.385,4044.0
254.3875,4034.0
254.39,3889.0
254.3925,3904.0
254.395,3957.0
254.3975,4017.0
254.4,4107.0
254.4025,4141.0
254.405,4061.0
254.4075,3984.0
254.41,3958.0
254.4125,3921.0
254.415,3965.0
254.4175,4013.0
254.42,4079.0
254.4225,4093.0
254.425,4027.0
254.4275,4021.0
254.43,3930.0
254.4325,3928.0
254.435,3972.0
254.4375,4034.0
254.44,4099.0
254.4425,4058.0
254.445,4037.0
254.4475,3961.0
254.45,3891.0
254.4525,3903.0
254.455,3967.0
254.4575,4026.0
254.46,4083.0
254.4625,4120.0
254.465,4058.0
254.4675,3972.0
254.47,3920.0
254.4725,3971.0
254.475,4005.0
254.4775,4069.0
254.48,4169.0
254.4825,4130.0
254.485,4065.0
254.4875,3987.0
254.49,3904.0
254.4925,3931.0
254.495,3990.0
254.4975,4093.0
254.5,4100.0
254.5025,4098.0
254.505,4049.0
254.5075,3962.0
254.51,3937.0
254.5125,3955.0
254.515,4057.0
254.5175,4146.0
254.52,4171.0
254.5225,4123.0
254.525,4108.0
254.5275,3998.0
254.53,3913.0
254.5325,4012.0
254.535,4082.0
254.5375,4155.0
254.54,4155.0
254.5425,4136.0
254.545,4049.0
254.5475,3919.0
254.55,3917.0
254.5525,3994.0
254.555,4079.0
254.5575,4183.0
254.56,4167.0
254.5625,4069.0
254.565,3941.0
254.5675,3906.0
254.57,3934.0
254.5725,4008.0
254.575,4100.0
254.5775,4182.0
254.58,4121.0
254.5825,4019.0
254.585,3980.0
254.5875,3933.0
254.59,3923.0
254.5925,3994.0
254.595,4092.0
254.5975,4131.0
254.6,4052.0
254.6025,4020.0
254.605,3926.0
254.6075,3826.0
254.61,3848.0
254.6125,3918.0
254.615,4054.0
254.6175,4080.0
254.62,4210.0
254.6225,4249.0
254.625,4317.0
254.6275,4429.0
254.63,4603.0
254.6325,4841.0
254.635,5030.0
254.6375,5105.0
254.64,4998.0
254.6425,4708.0
254.645,4412.0
254.6475,4214.0
254.65,4010.0
254.6525,3876.0
254.655,3916.0
254.6575,3862.0
254.66,3785.0
254.6625,3706.0
254.665,3637.0
254.6675,3675.0
254.67,3760.0
254.6725,3937.0
254.675,4038.0
254.6775,4026.0
254.68,4003.0
254.6825,3953.0
254.685,3851.0
254.6875,3836.0
254.69,3904.0
254.6925,4008.0
254.695,4096.0
254.6975,4078.0
254.7,4027.0
254.7025,3923.0
254.705,3802.0
254.7075,3876.0
254.71,3948.0
254.7125,4068.0
254.715,4121.0
254.7175,4110.0
254.72,4031.0
254.7225,3913.0
254.725,3895.0
254.7275,3940.0
254.73,4025.0
254.7325,4136.0
254.735,4135.0
254.7375,4116.0
254.74,3973.0
254.7425,3943.0
254.745,3930.0
254.7475,3958.0
254.75,4058.0
254.7525,4147.0
254.755,4155.0
254.7575,4046.0
254.76,4022.0
254.7625,3947.0
254.765,3937.0
254.7675,3979.0
254.77,4071.0
254.7725,4150.0
254.775,4119.0
254.7775,4123.0
254.78,4031.0
254.7825,3950.0
254.785,3984.0
254.7875,4045.0
254.79,4153.0
254.7925,4173.0
254.795,4207.0
254.7975,4147.0
254.8,4024.0
254.8025,3973.0
254.805,4017.0
254.8075,4064.0
254.81,4146.0
254.8125,4248.0
254.815,4242.0
254.8175,4141.0
254.82,4036.0
254.8225,4031.0
254.825,4052.0
254.8275,4115.0
254.83,4264.0
254.8325,4299.0
254.835,4236.0
254.8375,4192.0
254.84,4087.0
254.8425,4080.0
254.845,4080.0
254.8475,4163.0
254.85,4260.0
254.8525,4280.0
254.855,4234.0
254.8575,4171.0
254.86,4066.0
254.8625,4010.0
254.865,4080.0
254.8675,4156.0
254.87,4227.0
254.8725,4190.0
254.875,4154.0
254.8775,4067.0
254.88,3937.0
254.8825,3981.0
254.885,3993.0
254.8875,4056.0
254.89,4114.0
254.8925,4085.0
254.895,4028.0
254.8975,3865.0
254.9,3886.0
254.9025,3876.0
254.905,3956.0
254.9075,4044.0
254.91,4053.0
254.9125,4012.0
254.915,3889.0
254.9175,3885.0
254.92,3828.0
254.9225,3869.0
254.925,3942.0
254.9275,4031.0
254.93,4056.0
254.9325,3971.0
254.935,3940.0
254.9375,3852.0
254.94,3808.0
254.9425,3849.0
254.945,3917.0
254.9475,4046.0
254.95,3998.0
254.9525,4018.0
254.955,3920.0
254.9575,3853.0
254.96,3856.0
254.9625,3900.0
254.965,3947.0
254.9675,4040.0
254.97,4040.0
254.9725,3989.0
254.975,3926.0
254.9775,3855.0
254.98,3849.0
254.9825,3904.0
254.985,3940.0
254.9875,4088.0
254.99,4078.0
254.9925,4031.0
254.995,3948.0
254.9975,3898.0
255.0,3918.0
255.0025,3926.0
255.005,4072.0
255.0075,4119.0
255.01,4088.0
255.0125,4046.0
255.015,3946.0
255.0175,3912.0
255.02,3897.0
255.0225,4002.0
255.025,4084.0
255.0275,4070.0
255.03,4076.0
255.0325,3973.0
255.035,3895.0
255.0375,3851.0
255.04,3918.0
255.0425,4000.0
255.045,4089.0
255.0475,4112.0
255.05,4109.0
255.0525,4019.0
255.055,3922.0
255.0575,3945.0
255.06,3942.0
255.0625,4048.0
255.065,4123.0
255.0675,4099.0
255.07,4072.0
255.0725,3945.0
255.075,3927.0
255.0775,3954.0
255.08,3971.0
255.0825,4055.0
255.085,4115.0
255.0875,4097.0
255.09,4020.0
255.0925,3991.0
255.095,3942.0
255.0975,3951.0
255.1,4011.0
255.1025,4097.0
255.105,4139.0
255.1075,4075.0
255.11,4076.0
255.1125,3989.0
255.115,3954.0
255.1175,3964.0
255.12,3995.0
255.1225,4083.0
255.125,4081.0
255.1275,4106.0
255.13,4047.0
255.1325,3946.0
255.135,3962.0
255.1375,3986.0
255.14,4038.0
255.1425,4071.0
255.145,4115.0
255.1475,4089.0
255.15,4017.0
255.1525,3954.0
255.155,3925.0
255.1575,3964.0
255.16,3974.0
255.1625,4123.0
255.165,4119.0
255.1675,4052.0
255.17,3996.0
255.1725,3919.0
255.175,3944.0
255.1775,3956.0
255.18,4072.0
255.1825,4135.0
255.185,4107.0
255.1875,4102.0
255.19,4033.0
255.1925,3945.0
255.195,3962.0
255.1975,4019.0
255.2,4104.0
255.2025,4135.0
255.205,4118.0
255.2075,4042.0
255.21,3954.0
255.2125,3919.0
255.215,4030.0
255.2175,4056.0
255.22,4113.0
255.2225,4135.0
255.225,4083.0
255.2275,4036.0
255.23,3919.0
255.2325,3955.0
255.235,3970.0
255.2375,4073.0
255.24,4140.0
255.2425,4152.0
255.245,4132.0
255.2475,4005.0
255.25,3988.0
255.2525,3980.0
255.255,4028.0
255.2575,4092.0
255.26,4154.0
255.2625,4144.0
255.265,4081.0
255.2675,4015.0
255.27,3964.0
255.2725,3975.0
255.275,4028.0
255.2775,4120.0
255.28,4197.0
255.2825,4113.0
255.285,4084.0
255.2875,4008.0
255.29,3943.0
255.2925,3986.0
255.295,4039.0
255.2975,4116.0
255.3,4078.0
255.3025,4106.0
255.305,4050.0
255.3075,3983.0
255.31,3972.0
255.3125,4007.0
255.315,4062.0
255.3175,4113.0
255.32,4192.0
255.3225,4152.0
255.325,4092.0
255.3275,4020.0
255.33,4029.0
255.3325,4050.0
255.335,4076.0
255.3375,4221.0
255.34,4199.0
255.3425,4165.0
255.345,4064.0
255.3475,3995.0
255.35,3987.0
255.3525,3975.0
255.355,4113.0
255.3575,4187.0
255.36,4142.0
255.3625,4129.0
255.365,4016.0
255.3675,3981.0
255.37,3942.0
255.3725,4037.0
255.375,4115.0
255.3775,4197.0
255.38,4197.0
255.3825,4139.0
255.385,4036.0
255.3875,3944.0
255.39,3983.0
255.3925,4046.0
255.395,4148.0
255.3975,4197.0
255.4,4129.0
255.4025,4097.0
255.405,3961.0
255.4075,3966.0
255.41,3983.0
255.4125,4000.0
255.415,4065.0
255.4175,4067.0
255.42,4018.0
255.4225,3935.0
255.425,3891.0
255.4275,3953.0
255.43,4112.0
255.4325,4336.0
255.435,4629.0
255.4375,4755.0
255.44,4770.0
255.4425,4847.0
255.445,4891.0
255.4475,4920.0
255.45,4892.0
255.4525,4718.0
255.455,4541.0
255.4575,4263.0
255.46,4100.0
255.4625,3833.0
255.465,3690.0
255.4675,3659.0
255.47,3660.0
255.4725,3772.0
255.475,3817.0
255.4775,3888.0
255.48,3855.0
255.4825,3781.0
255.485,3758.0
255.4875,3832.0
255.49,3899.0
255.4925,3991.0
255.495,4101.0
255.4975,4048.0
255.5,3976.0
255.5025,3884.0
255.505,3833.0
255.5075,3869.0
255.51,3895.0
255.5125,4060.0
255.515,4097.0
255.5175,4050.0
255.52,3995.0
255.5225,3897.0
255.525,3880.0
255.5275,3883.0
255.53,4005.0
255.5325,4075.0
255.535,4093.0
255.5375,4054.0
255.54,3985.0
255.5425,3908.0
255.545,3884.0
255.5475,3963.0
255.55,4047.0
255.5525,4120.0
255.555,4155.0
255.5575,4119.0
255.56,4043.0
255.5625,3903.0
255.565,3955.0
255.5675,4012.0
255.57,4077.0
255.5725,4131.0
255.575,4134.0
255.5775,4100.0
255.58,3949.0
255.5825,3960.0
255.585,3975.0
255.5875,4053.0
255.59,4152.0
255.5925,4201.0
255.595,4204.0
255.5975,4103.0
255.6,4050.0
255.6025,4004.0
255.605,4032.0
255.6075,4087.0
255.61,4184.0
255.6125,4197.0
255.615,4165.0
255.6175,4166.0
255.62,4045.0
255.6225,4033.0
255.625,4084.0
255.6275,4167.0
255.63,4235.0
255.6325,4215.0
255.635,4264.0
255.6375,4161.0
255.64,4089.0
255.6425,4084.0
255.645,4109.0
255.6475,4188.0
255.65,4251.0
255.6525,4293.0
255.655,4266.0
255.6575,4174.0
255.66,4095.0
255.6625,4077.0
255.665,4094.0
255.6675,4122.0
255.67,4248.0
255.6725,4223.0
255.675,4180.0
255.6775,4076.0
255.68,4002.0
255.6825,4013.0
255.685,3985.0
255.6875,4109.0
255.69,4145.0
255.6925,4102.0
255.695,4051.0
255.6975,3954.0
255.7,3898.0
255.7025,3845.0
255.705,3942.0
255.7075,4064.0
255.71,4097.0
255.7125,4044.0
255.715,3985.0
255.7175,3901.0
255.72,3804.0
255.7225,3881.0
255.725,3948.0
255.7275,4021.0
255.73,4025.0
255.7325,4011.0
255.735,3931.0
255.7375,3776.0
255.74,3829.0
255.7425,3858.0
255.745,3935.0
255.7475,4021.0
255.75,4045.0
255.7525,3995.0
255.755,3842.0
255.7575,3826.0
255.76,3845.0
255.7625,3890.0
255.765,3948.0
255.7675,4018.0
255.77,4030.0
255.7725,3910.0
255.775,3897.0
255.7775,3858.0
255.78,3874.0
255.7825,3887.0
255.785,3977.0
255.7875,4051.0
255.79,4013.0
255.7925,4042.0
255.795,3928.0
255.7975,3883.0
255.8,3922.0
255.8025,3965.0
255.805,4059.0
255.8075,4020.0
255.81,4048.0
255.8125,3969.0
255.815,3905.0
255.8175,3896.0
255.82,3931.0
255.8225,3976.0
255.825,4042.0
255.8275,4108.0
255.83,4101.0
255.8325,3985.0
255.835,3905.0
255.8375,3901.0
255.84,3922.0
255.8425,3943.0
255.845,4085.0
255.8475,4069.0
255.85,4016.0
255.8525,3940.0
255.855,3890.0
255.8575,3883.0
255.86,3843.0
255.8625,3968.0
255.865,4005.0
255.8675,4000.0
255.87,3965.0
255.8725,3889.0
255.875,3839.0
255.8775,3809.0
255.88,3899.0
255.8825,3965.0
255.885,4032.0
255.8875,3998.0
255.89,3976.0
255.8925,3902.0
255.895,3788.0
255.8975,3842.0
255.9,3921.0
255.9025,4027.0
255.905,4024.0
255.9075,4014.0
255.91,3949.0
255.9125,3830.0
255.915,3857.0
255.9175,3890.0
255.92,3939.0
255.9225,4036.0
255.925,4052.0
255.9275,4009.0
255.93,3947.0
255.9325,3920.0
255.935,3893.0
255.9375,3902.0
255.94,3953.0
255.9425,4045.0
255.945,4063.0
255.9475,3983.0
255.95,3992.0
255.9525,3959.0
255.955,3933.0
255.9575,3948.0
255.96,4010.0
255.9625,4101.0
255.965,4047.0
255.9675,4101.0
255.97,4017.0
255.9725,3958.0
255.975,3960.0
255.9775,3987.0
255.98,4087.0
255.9825,4089.0
255.985,4127.0
255.9875,4116.0
255.99,3989.0
255.9925,3979.0
255.995,3973.0
255.9975,4032.0
256.0,4094.0
256.0025,4157.0
256.005,4173.0
256.0075,4141.0
256.01,4049.0
256.0125,4049.0
256.015,4098.0
256.0175,4103.0
256.02,4213.0
256.0225,4245.0
256.025,4239.0
256.0275,4208.0
256.03,4140.0
256.0325,4144.0
256.035,4132.0
256.0375,4233.0
256.04,4306.0
256.0425,4274.0
256.045,4272.0
256.0475,4229.0
256.05,4164.0
256.0525,4133.0
256.055,4222.0
256.0575,4299.0
256.06,4356.0
256.0625,4340.0
256.065,4301.0
256.0675,4234.0
256.07,4142.0
256.0725,4174.0
256.075,4179.0
256.0775,4226.0
256.08,4241.0
256.0825,4181.0
256.085,4137.0
256.0875,3987.0
256.09,3985.0
256.0925,3997.0
256.095,4003.0
256.0975,4034.0
256.1,4062.0
256.1025,4021.0
256.105,3919.0
256.1075,3946.0
256.11,3884.0
256.1125,3921.0
256.115,3959.0
256.1175,4002.0
256.12,4019.0
256.1225,3942.0
256.125,3981.0
256.1275,3934.0
256.13,3861.0
256.1325,3902.0
256.135,3951.0
256.1375,4034.0
256.14,4015.0
256.1425,4035.0
256.145,4037.0
256.1475,4006.0
256.15,3995.0
256.1525,4067.0
256.155,4130.0
256.1575,4140.0
256.16,4198.0
256.1625,4208.0
256.165,4156.0
256.1675,4097.0
256.17,4071.0
256.1725,4060.0
256.175,4078.0
256.1775,4060.0
256.18,4011.0
256.1825,3963.0
256.185,3859.0
256.1875,3825.0
256.19,3856.0
256.1925,3879.0
256.195,4075.0
256.1975,4254.0
256.2,4388.0
256.2025,4487.0
256.205,4568.0
256.2075,4724.0
256.21,4831.0
256.2125,4943.0
256.215,4955.0
256.2175,4709.0
256.22,4429.0
256.2225,4221.0
256.225,3970.0
256.2275,3747.0
256.23,3735.0
256.2325,3697.0
256.235,3727.0
256.2375,3721.0
256.24,3715.0
256.2425,3689.0
256.245,3631.0
256.2475,3785.0
256.25,3856.0
256.2525,3942.0
256.255,3988.0
256.2575,4001.0
256.26,3994.0
256.2625,3891.0
256.265,3898.0
256.2675,3925.0
256.27,3948.0
256.2725,4012.0
256.275,4073.0
256.2775,4055.0
256.28,3964.0
256.2825,3944.0
256.285,3923.0
256.2875,3959.0
256.29,3983.0
256.2925,4060.0
256.295,4084.0
256.2975,4038.0
256.3,4028.0
256.3025,3950.0
256.305,3900.0
256.3075,3946.0
256.31,4004.0
256.3125,4065.0
256.315,4071.0
256.3175,4067.0
256.32,4011.0
256.3225,3938.0
256.325,3930.0
256.3275,3958.0
256.33,4007.0
256.3325,4053.0
256.335,4095.0
256.3375,4078.0
256.34,4030.0
256.3425,3961.0
256.345,3941.0
256.3475,4016.0
256.35,4033.0
256.3525,4113.0
256.355,4122.0
256.3575,4091.0
256.36,4015.0
256.3625,3951.0
256.365,3976.0
256.3675,3991.0
256.37,4091.0
256.3725,4158.0
256.375,4122.0
256.3775,4085.0
256.38,4029.0
256.3825,3988.0
256.385,3974.0
256.3875,4051.0
256.39,4133.0
256.3925,4198.0
256.395,4171.0
256.3975,4096.0
256.4,4018.0
256.4025,3947.0
256.405,4011.0
256.4075,4084.0
256.41,4151.0
256.4125,4204.0
256.415,4164.0
256.4175,4092.0
256.42,4002.0
256.4225,4016.0
256.425,4045.0
256.4275,4122.0
256.43,4172.0
256.4325,4196.0
256.435,4129.0
256.4375,4020.0
256.44,3989.0
256.4425,3928.0
256.445,3986.0
256.4475,4062.0
256.45,4091.0
256.4525,4077.0
256.455,3955.0
256.4575,3930.0
256.46,3865.0
256.4625,3864.0
256.465,3868.0
256.4675,3956.0
256.47,3988.0
256.4725,3978.0
256.475,3946.0
256.4775,3834.0
256.48,3784.0
256.4825,3795.0
256.485,3848.0
256.4875,3910.0
256.49,3903.0
256.4925,3918.0
256.495,3915.0
256.4975,3835.0
256.5,3787.0
256.5025,3807.0
256.505,3877.0
256.5075,3934.0
256.51,4017.0
256.5125,3967.0
256.515,3898.0
256.5175,3841.0
256.52,3819.0
256.5225,3835.0
256.525,3851.0
256.5275,3990.0
256.53,4028.0
256.5325,3986.0
256.535,3937.0
256.5375,3857.0
256.54,3827.0
256.5425,3814.0
256.545,3952.0
256.5475,4027.0
256.55,4020.0
256.5525,4000.0
256.555,3948.0
256.5575,3858.0
256.56,3834.0
256.5625,3886.0
256.565,3958.0
256.5675,4053.0
256.57,4037.0
256.5725,4008.0
256.575,3919.0
256.5775,3826.0
256.58,3898.0
256.5825,3922.0
256.585,4000.0
256.5875,4068.0
256.59,4060.0
256.5925,4038.0
256.595,3926.0
256.5975,3903.0
256.6,3938.0
256.6025,3992.0
