1639.73199997,524.0
1639.73299997,511.0
1639.73399997,513.0
1639.73499997,506.0
1639.73599997,503.0
1639.73699997,503.0
1639.73799997,508.0
1639.73899997,521.0
1639.73999997,522.0
1639.74099997,511.0
1639.74199997,507.0
1639.74299997,514.0
1639.74399997,513.0
1639.74499997,507.0
1639.74599997,508.0
1639.74699997,519.0
1639.74799997,521.0
1639.74899997,509.0
1639.74999997,504.0
1639.75099997,534.0
1639.75199997,524.0
1639.75299997,510.0
1639.75399997,508.0
1639.75499997,524.0
1639.75599997,515.0
1639.75699997,506.0
1639.75799997,506.0
1639.75899997,545.0
1639.75999997,526.0
1639.76099997,510.0
1639.76199997,507.0
1639.76299997,522.0
1639.76399997,512.0
1639.76499997,501.0
1639.76599997,522.0
1639.76699997,561.0
1639.76799997,531.0
1639.76899997,506.0
1639.76999997,507.0
1639.77099997,522.0
1639.77199997,511.0
1639.77299997,499.0
1639.77399997,531.0
1639.77499997,545.0
1639.77599997,519.0
1639.77699997,500.0
1639.77799997,512.0
1639.77899997,518.0
1639.77999997,518.0
1639.78099997,506.0
1639.78199997,499.0
1639.78299997,505.0
1639.78399997,500.0
1639.78499997,503.0
1639.78599997,520.0
1639.78699997,519.0
1639.78799997,514.0
1639.78899997,503.0
1639.78999997,500.0
1639.79099997,505.0
1639.79199997,502.0
1639.79299997,509.0
1639.79399997,525.0
1639.79499997,518.0
1639.79599997,521.0
1639.79699997,510.0
1639.79799997,502.0
1639.79899997,504.0
1639.79999997,505.0
1639.80099997,516.0
1639.80199997,525.0
1639.80299997,523.0
1639.80399997,522.0
1639.80499997,511.0
1639.80599997,506.0
1639.80699997,506.0
1639.80799997,511.0
1639.80899997,521.0
1639.80999997,525.0
1639.81099997,523.0
1639.81199997,519.0
1639.81299997,509.0
1639.81399997,500.0
1639.81499997,508.0
1639.81599997,513.0
1639.81699997,522.0
1639.81799997,524.0
1639.81899997,523.0
1639.81999997,514.0
1639.82099997,505.0
1639.82199997,504.0
1639.82299997,504.0
1639.82399997,513.0
1639.82499997,521.0
1639.82599997,520.0
1639.82699997,524.0
1639.82799997,514.0
1639.82899997,505.0
1639.82999997,505.0
1639.83099997,508.0
1639.83199997,517.0
1639.83299997,518.0
1639.83399997,521.0
1639.83499997,519.0
1639.83599997,509.0
1639.83699997,502.0
1639.83799997,504.0
1639.83899997,507.0
1639.83999997,518.0
1639.84099997,513.0
1639.84199997,520.0
1639.84299997,519.0
1639.84399997,505.0
1639.84499997,499.0
1639.84599997,504.0
1639.84699997,511.0
1639.84799997,521.0
1639.84899997,507.0
1639.84999997,520.0
1639.85099997,517.0
1639.85199997,503.0
1639.85299997,499.0
1639.85399997,505.0
1639.85499997,510.0
1639.85599997,520.0
1639.85699997,506.0
1639.85799997,523.0
1639.85899997,514.0
1639.85999997,502.0
1639.86099997,502.0
1639.86199997,506.0
1639.86299997,513.0
1639.86399997,516.0
1639.86499997,507.0
1639.86599997,523.0
1639.86699997,514.0
1639.86799997,504.0
1639.86899997,504.0
1639.86999997,508.0
1639.87099997,515.0
1639.87199997,519.0
1639.87299997,508.0
1639.87399997,521.0
1639.87499997,516.0
1639.87599997,504.0
1639.87699997,504.0
1639.87799997,507.0
1639.87899997,518.0
1639.87999997,517.0
1639.88099997,509.0
1639.88199997,517.0
1639.88299997,515.0
1639.88399997,506.0
1639.88499997,504.0
1639.88599997,508.0
1639.88699997,520.0
1639.88799997,524.0
1639.88899997,511.0
1639.88999997,511.0
1639.89099997,517.0
1639.89199997,507.0
1639.89299997,504.0
1639.89399997,510.0
1639.89499997,521.0
1639.89599997,522.0
1639.89699997,510.0
1639.89799997,509.0
1639.89899997,532.0
1639.89999997,516.0
1639.90099997,506.0
1639.90199997,506.0
1639.90299997,522.0
1639.90399997,524.0
1639.90499997,508.0
1639.90599997,515.0
1639.90699997,593.0
1639.90799997,541.0
1639.90899997,509.0
1639.90999997,504.0
1639.91099997,519.0
1639.91199997,510.0
1639.91299997,534.0
1639.91399997,599.0
1639.91499997,709.0
1639.91599997,614.0
1639.91699997,526.0
1639.91799997,489.0
1639.91899997,502.0
1639.91999997,492.0
1639.92099997,511.0
1639.92199997,606.0
1639.92299997,694.0
1639.92399997,581.0
1639.92499997,498.0
1639.92599997,477.0
1639.92699997,494.0
1639.92799997,488.0
1639.92899997,525.0
1639.92999997,691.0
1639.93099997,721.0
1639.93199997,581.0
1639.93299997,479.0
1639.93399997,464.0
1639.93499997,478.0
1639.93599997,469.0
1639.93699997,467.0
1639.93799997,546.0
1639.93899997,575.0
1639.93999997,497.0
1639.94099997,460.0
1639.94199997,475.0
1639.94299997,479.0
1639.94399997,471.0
1639.94499997,464.0
1639.94599997,511.0
1639.94699997,516.0
1639.94799997,478.0
1639.94899997,468.0
1639.94999997,487.0
1639.95099997,482.0
1639.95199997,487.0
1639.95299997,473.0
1639.95399997,474.0
1639.95499997,484.0
1639.95599997,475.0
1639.95699997,487.0
1639.95799997,500.0
1639.95899997,499.0
1639.95999997,489.0
1639.96099997,476.0
1639.96199997,480.0
1639.96299997,489.0
1639.96399997,484.0
1639.96499997,499.0
1639.96599997,505.0
1639.96699997,503.0
1639.96799997,500.0
1639.96899997,485.0
1639.96999997,485.0
1639.97099997,491.0
1639.97199997,497.0
1639.97299997,510.0
1639.97399997,507.0
1639.97499997,508.0
1639.97599997,501.0
1639.97699997,491.0
1639.97799997,487.0
1639.97899997,497.0
1639.97999997,502.0
1639.98099997,513.0
1639.98199997,511.0
1639.98299997,512.0
1639.98399997,503.0
1639.98499997,491.0
1639.98599997,491.0
1639.98699997,499.0
1639.98799997,508.0
1639.98899997,517.0
1639.98999997,514.0
1639.99099997,513.0
1639.99199997,502.0
1639.99299997,495.0
1639.99399997,495.0
1639.99499997,502.0
1639.99599997,512.0
1639.99699997,519.0
1639.99799997,516.0
1639.99899997,514.0
1639.99999997,500.0
1640.00099997,495.0
1640.00199997,501.0
1640.00299997,505.0
1640.00399997,517.0
1640.00499997,518.0
1640.00599997,517.0
1640.00699997,509.0
1640.00799997,498.0
1640.00899997,496.0
1640.00999997,500.0
1640.01099997,507.0
1640.01199997,523.0
1640.01299997,519.0
1640.01399997,518.0
1640.01499997,513.0
1640.01599997,500.0
1640.01699997,497.0
1640.01799997,504.0
1640.01899997,511.0
1640.01999997,522.0
1640.02099997,518.0
1640.02199997,522.0
1640.02299997,510.0
1640.02399997,501.0
1640.02499997,499.0
1640.02599997,509.0
1640.02699997,516.0
1640.02799997,523.0
1640.02899997,518.0
1640.02999997,519.0
1640.03099997,508.0
1640.03199997,498.0
1640.03299997,501.0
1640.03399997,505.0
1640.03499997,512.0
1640.03599997,523.0
1640.03699997,518.0
1640.03799997,519.0
1640.03899997,507.0
1640.03999997,497.0
1640.04099997,499.0
1640.04199997,508.0
1640.04299997,519.0
1640.04399997,520.0
1640.04499997,515.0
1640.04599997,519.0
1640.04699997,505.0
1640.04799997,500.0
1640.04899997,502.0
1640.04999997,510.0
1640.05099997,520.0
1640.05199997,524.0
1640.05299997,515.0
1640.05399997,514.0
1640.05499997,504.0
1640.05599997,499.0
1640.05699997,503.0
1640.05799997,511.0
1640.05899997,524.0
1640.05999997,521.0
1640.06099997,513.0
1640.06199997,507.0
1640.06299997,507.0
1640.06399997,508.0
1640.06499997,504.0
1640.06599997,512.0
1640.06699997,524.0
1640.06799997,515.0
1640.06899997,509.0
1640.06999997,507.0
1640.07099997,529.0
1640.07199997,518.0
1640.07299997,506.0
1640.07399997,509.0
1640.07499997,523.0
1640.07599997,513.0
1640.07699997,508.0
1640.07799997,510.0
1640.07899997,534.0
1640.07999997,519.0
1640.08099997,505.0
1640.08199997,511.0
1640.08299997,524.0
1640.08399997,518.0
1640.08499997,505.0
1640.08599997,514.0
1640.08699997,536.0
1640.08799997,514.0
1640.08899997,504.0
1640.08999997,514.0
1640.09099997,521.0
1640.09199997,512.0
1640.09299997,501.0
1640.09399997,539.0
1640.09499997,561.0
1640.09599997,526.0
1640.09699997,504.0
1640.09799997,513.0
1640.09899997,516.0
1640.09999997,517.0
1640.10099997,503.0
1640.10199997,506.0
1640.10299997,514.0
1640.10399997,504.0
1640.10499997,505.0
1640.10599997,520.0
1640.10699997,520.0
1640.10799997,511.0
1640.10899997,502.0
1640.10999997,504.0
1640.11099997,513.0
1640.11199997,503.0
1640.11299997,508.0
1640.11399997,524.0
1640.11499997,524.0
1640.11599997,521.0
1640.11699997,506.0
1640.11799997,502.0
1640.11899997,506.0
1640.11999997,503.0
1640.12099997,517.0
1640.12199997,526.0
1640.12299997,524.0
1640.12399997,520.0
1640.12499997,507.0
1640.12599997,504.0
1640.12699997,506.0
1640.12799997,509.0
1640.12899997,523.0
1640.12999997,525.0
1640.13099997,523.0
1640.13199997,520.0
1640.13299997,507.0
1640.13399997,508.0
1640.13499997,509.0
1640.13599997,513.0
1640.13699997,529.0
1640.13799997,520.0
1640.13899997,524.0
1640.13999997,512.0
1640.14099997,506.0
1640.14199997,505.0
1640.14299997,509.0
1640.14399997,516.0
1640.14499997,523.0
1640.14599997,523.0
1640.14699997,517.0
1640.14799997,515.0
1640.14899997,505.0
1640.14999997,505.0
1640.15099997,510.0
1640.15199997,515.0
1640.15299997,518.0
1640.15399997,519.0
1640.15499997,519.0
1640.15599997,507.0
1640.15699997,501.0
1640.15799997,504.0
1640.15899997,508.0
1640.15999997,519.0
1640.16099997,515.0
1640.16199997,523.0
1640.16299997,515.0
1640.16399997,504.0
1640.16499997,501.0
1640.16599997,509.0
1640.16699997,509.0
1640.16799997,521.0
1640.16899997,510.0
1640.16999997,519.0
1640.17099997,517.0
1640.17199997,503.0
1640.17299997,500.0
1640.17399997,505.0
1640.17499997,512.0
1640.17599997,520.0
1640.17699997,503.0
1640.17799997,521.0
1640.17899997,513.0
1640.17999997,502.0
1640.18099997,501.0
1640.18199997,505.0
1640.18299997,515.0
1640.18399997,515.0
1640.18499997,510.0
1640.18599997,522.0
1640.18699997,513.0
1640.18799997,501.0
1640.18899997,502.0
1640.18999997,506.0
1640.19099997,516.0
1640.19199997,515.0
1640.19299997,511.0
1640.19399997,521.0
1640.19499997,512.0
1640.19599997,500.0
1640.19699997,503.0
1640.19799997,507.0
1640.19899997,518.0
1640.19999997,513.0
1640.20099997,511.0
1640.20199997,517.0
1640.20299997,513.0
1640.20399997,502.0
1640.20499997,505.0
1640.20599997,508.0
1640.20699997,520.0
1640.20799997,521.0
1640.20899997,512.0
1640.20999997,514.0
1640.21099997,515.0
1640.21199997,503.0
1640.21299997,505.0
1640.21399997,511.0
1640.21499997,522.0
1640.21599997,515.0
1640.21699997,511.0
1640.21799997,508.0
1640.21899997,527.0
1640.21999997,508.0
1640.22099997,505.0
1640.22199997,510.0
1640.22299997,522.0
1640.22399997,520.0
1640.22499997,511.0
1640.22599997,508.0
1640.22699997,550.0
1640.22799997,521.0
1640.22899997,504.0
1640.22999997,501.0
1640.23099997,523.0
1640.23199997,513.0
1640.23299997,546.0
1640.23399997,617.0
1640.23499997,719.0
1640.23599997,602.0
1640.23699997,522.0
1640.23799997,490.0
1640.23899997,503.0
1640.23999997,497.0
1640.24099997,539.0
1640.24199997,668.0
1640.24299997,757.0
1640.24399997,607.0
1640.24499997,507.0
1640.24599997,470.0
1640.24699997,486.0
1640.24799997,479.0
1640.24899997,525.0
1640.24999997,691.0
1640.25099997,718.0
1640.25199997,565.0
1640.25299997,472.0
1640.25399997,455.0
1640.25499997,470.0
1640.25599997,465.0
1640.25699997,459.0
1640.25799997,543.0
1640.25899997,558.0
1640.25999997,483.0
1640.26099997,456.0
1640.26199997,471.0
1640.26299997,472.0
1640.26399997,468.0
1640.26499997,471.0
1640.26599997,536.0
1640.26699997,563.0
1640.26799997,481.0
1640.26899997,458.0
1640.26999997,478.0
1640.27099997,483.0
1640.27199997,471.0
1640.27299997,462.0
1640.27399997,473.0
1640.27499997,481.0
1640.27599997,469.0
1640.27699997,482.0
1640.27799997,488.0
1640.27899997,491.0
1640.27999997,478.0
1640.28099997,470.0
1640.28199997,475.0
1640.28299997,483.0
1640.28399997,479.0
1640.28499997,493.0
1640.28599997,500.0
1640.28699997,497.0
1640.28799997,494.0
1640.28899997,480.0
1640.28999997,481.0
1640.29099997,488.0
1640.29199997,492.0
1640.29299997,504.0
1640.29399997,506.0
1640.29499997,505.0
1640.29599997,499.0
1640.29699997,486.0
1640.29799997,488.0
1640.29899997,495.0
1640.29999997,502.0
1640.30099997,513.0
1640.30199997,509.0
1640.30299997,509.0
1640.30399997,496.0
1640.30499997,488.0
1640.30599997,491.0
1640.30699997,496.0
1640.30799997,506.0
1640.30899997,514.0
1640.30999997,514.0
1640.31099997,512.0
1640.31199997,499.0
1640.31299997,493.0
1640.31399997,496.0
1640.31499997,502.0
1640.31599997,513.0
1640.31699997,517.0
1640.31799997,515.0
1640.31899997,513.0
1640.31999997,500.0
1640.32099997,495.0
1640.32199997,498.0
1640.32299997,506.0
1640.32399997,516.0
1640.32499997,518.0
1640.32599997,518.0
1640.32699997,513.0
1640.32799997,500.0
1640.32899997,495.0
1640.32999997,502.0
1640.33099997,509.0
1640.33199997,518.0
1640.33299997,516.0
1640.33399997,518.0
1640.33499997,512.0
1640.33599997,496.0
1640.33699997,496.0
1640.33799997,503.0
1640.33899997,511.0
1640.33999997,520.0
1640.34099997,517.0
1640.34199997,520.0
1640.34299997,508.0
1640.34399997,497.0
1640.34499997,498.0
1640.34599997,505.0
1640.34699997,512.0
1640.34799997,521.0
1640.34899997,517.0
1640.34999997,516.0
1640.35099997,505.0
1640.35199997,495.0
1640.35299997,498.0
1640.35399997,505.0
1640.35499997,514.0
1640.35599997,520.0
1640.35699997,516.0
1640.35799997,514.0
1640.35899997,503.0
1640.35999997,494.0
1640.36099997,499.0
1640.36199997,508.0
1640.36299997,516.0
1640.36399997,519.0
1640.36499997,518.0
1640.36599997,513.0
1640.36699997,502.0
1640.36799997,495.0
1640.36899997,499.0
1640.36999997,508.0
1640.37099997,517.0
1640.37199997,521.0
1640.37299997,516.0
1640.37399997,510.0
1640.37499997,501.0
1640.37599997,496.0
1640.37699997,501.0
1640.37799997,509.0
1640.37899997,522.0
1640.37999997,516.0
1640.38099997,512.0
1640.38199997,502.0
1640.38299997,506.0
1640.38399997,502.0
1640.38499997,505.0
1640.38599997,510.0
1640.38699997,523.0
1640.38799997,517.0
1640.38899997,511.0
1640.38999997,504.0
1640.39099997,511.0
1640.39199997,507.0
1640.39299997,503.0
1640.39399997,512.0
1640.39499997,524.0
1640.39599997,517.0
1640.39699997,507.0
1640.39799997,508.0
1640.39899997,521.0
1640.39999997,510.0
1640.40099997,501.0
1640.40199997,514.0
1640.40299997,522.0
1640.40399997,517.0
1640.40499997,505.0
1640.40599997,519.0
1640.40699997,528.0
1640.40799997,510.0
1640.40899997,503.0
1640.40999997,515.0
1640.41099997,524.0
1640.41199997,512.0
1640.41299997,501.0
1640.41399997,550.0
1640.41499997,556.0
1640.41599997,523.0
1640.41699997,505.0
1640.41799997,508.0
1640.41899997,518.0
1640.41999997,513.0
1640.42099997,500.0
1640.42199997,510.0
1640.42299997,516.0
1640.42399997,504.0
1640.42499997,502.0
1640.42599997,520.0
1640.42699997,519.0
1640.42799997,514.0
1640.42899997,500.0
1640.42999997,504.0
1640.43099997,506.0
1640.43199997,501.0
1640.43299997,509.0
1640.43399997,521.0
1640.43499997,519.0
1640.43599997,517.0
1640.43699997,503.0
1640.43799997,501.0
1640.43899997,501.0
1640.43999997,504.0
1640.44099997,516.0
1640.44199997,523.0
1640.44299997,522.0
1640.44399997,518.0
1640.44499997,505.0
1640.44599997,500.0
1640.44699997,501.0
1640.44799997,508.0
1640.44899997,518.0
1640.44999997,520.0
1640.45099997,522.0
1640.45199997,523.0
1640.45299997,505.0
1640.45399997,502.0
1640.45499997,505.0
1640.45599997,512.0
1640.45699997,522.0
1640.45799997,522.0
1640.45899997,522.0
1640.45999997,513.0
1640.46099997,503.0
1640.46199997,502.0
1640.46299997,506.0
1640.46399997,513.0
1640.46499997,522.0
1640.46599997,521.0
1640.46699997,520.0
1640.46799997,511.0
1640.46899997,502.0
1640.46999997,503.0
1640.47099997,506.0
1640.47199997,516.0
1640.47299997,520.0
1640.47399997,522.0
1640.47499997,517.0
1640.47599997,507.0
1640.47699997,501.0
1640.47799997,502.0
1640.47899997,507.0
1640.47999997,518.0
1640.48099997,516.0
1640.48199997,520.0
1640.48299997,517.0
1640.48399997,505.0
1640.48499997,501.0
1640.48599997,505.0
1640.48699997,510.0
1640.48799997,519.0
1640.48899997,513.0
1640.48999997,518.0
1640.49099997,515.0
1640.49199997,501.0
1640.49299997,497.0
1640.49399997,500.0
1640.49499997,510.0
1640.49599997,517.0
1640.49699997,507.0
1640.49799997,523.0
1640.49899997,510.0
1640.49999997,499.0
1640.50099997,501.0
1640.50199997,505.0
1640.50299997,512.0
1640.50399997,512.0
1640.50499997,509.0
1640.50599997,517.0
1640.50699997,510.0
1640.50799997,499.0
1640.50899997,501.0
1640.50999997,504.0
1640.51099997,514.0
1640.51199997,512.0
1640.51299997,511.0
1640.51399997,519.0
1640.51499997,510.0
1640.51599997,500.0
1640.51699997,503.0
1640.51799997,506.0
1640.51899997,517.0
1640.51999997,509.0
1640.52099997,511.0
1640.52199997,515.0
1640.52299997,514.0
1640.52399997,501.0
1640.52499997,504.0
1640.52599997,506.0
1640.52699997,517.0
1640.52799997,516.0
1640.52899997,513.0
1640.52999997,514.0
1640.53099997,512.0
1640.53199997,503.0
1640.53299997,505.0
1640.53399997,510.0
1640.53499997,523.0
1640.53599997,517.0
1640.53699997,513.0
1640.53799997,508.0
1640.53899997,520.0
1640.53999997,506.0
1640.54099997,504.0
1640.54199997,511.0
1640.54299997,524.0
1640.54399997,519.0
1640.54499997,511.0
1640.54599997,509.0
1640.54699997,526.0
1640.54799997,508.0
1640.54899997,505.0
1640.54999997,510.0
1640.55099997,527.0
1640.55199997,513.0
1640.55299997,512.0
1640.55399997,546.0
1640.55499997,624.0
1640.55599997,538.0
1640.55699997,507.0
1640.55799997,504.0
1640.55899997,513.0
1640.55999997,509.0
1640.56099997,520.0
1640.56199997,625.0
1640.56299997,678.0
1640.56399997,556.0
1640.56499997,503.0
1640.56599997,491.0
1640.56699997,506.0
1640.56799997,503.0
1640.56899997,538.0
1640.56999997,678.0
1640.57099997,728.0
1640.57199997,564.0
1640.57299997,486.0
1640.57399997,473.0
1640.57499997,485.0
1640.57599997,495.0
1640.57699997,518.0
1640.57799997,647.0
1640.57899997,677.0
1640.57999997,530.0
1640.58099997,464.0
1640.58199997,472.0
1640.58299997,471.0
1640.58399997,477.0
1640.58499997,493.0
1640.58599997,582.0
1640.58699997,575.0
1640.58799997,484.0
1640.58899997,460.0
1640.58999997,475.0
1640.59099997,477.0
1640.59199997,462.0
1640.59299997,464.0
1640.59399997,494.0
1640.59499997,499.0
1640.59599997,468.0
1640.59699997,473.0
1640.59799997,487.0
1640.59899997,486.0
1640.59999997,472.0
1640.60099997,467.0
1640.60199997,481.0
1640.60299997,488.0
1640.60399997,477.0
1640.60499997,490.0
1640.60599997,494.0
1640.60699997,497.0
1640.60799997,491.0
1640.60899997,477.0
1640.60999997,480.0
1640.61099997,485.0
1640.61199997,488.0
1640.61299997,504.0
1640.61399997,503.0
1640.61499997,503.0
1640.61599997,492.0
1640.61699997,483.0
1640.61799997,486.0
1640.61899997,490.0
1640.61999997,499.0
1640.62099997,510.0
1640.62199997,508.0
1640.62299997,508.0
1640.62399997,497.0
1640.62499997,488.0
1640.62599997,494.0
1640.62699997,497.0
1640.62799997,508.0
1640.62899997,515.0
1640.62999997,510.0
1640.63099997,509.0
1640.63199997,498.0
1640.63299997,491.0
1640.63399997,496.0
1640.63499997,501.0
1640.63599997,514.0
1640.63699997,519.0
1640.63799997,515.0
1640.63899997,513.0
1640.63999997,500.0
1640.64099997,496.0
1640.64199997,500.0
1640.64299997,504.0
1640.64399997,518.0
1640.64499997,519.0
1640.64599997,518.0
1640.64699997,512.0
1640.64799997,498.0
1640.64899997,497.0
1640.64999997,505.0
1640.65099997,509.0
1640.65199997,519.0
1640.65299997,517.0
1640.65399997,517.0
1640.65499997,509.0
1640.65599997,497.0
1640.65699997,496.0
1640.65799997,505.0
1640.65899997,512.0
1640.65999997,521.0
1640.66099997,515.0
1640.66199997,519.0
1640.66299997,508.0
1640.66399997,495.0
1640.66499997,498.0
1640.66599997,507.0
1640.66699997,514.0
1640.66799997,521.0
1640.66899997,519.0
1640.66999997,516.0
1640.67099997,505.0
1640.67199997,496.0
1640.67299997,499.0
1640.67399997,507.0
1640.67499997,515.0
1640.67599997,521.0
1640.67699997,519.0
1640.67799997,516.0
1640.67899997,505.0
1640.67999997,497.0
1640.68099997,502.0
1640.68199997,509.0
1640.68299997,520.0
1640.68399997,522.0
1640.68499997,522.0
1640.68599997,516.0
1640.68699997,506.0
1640.68799997,499.0
1640.68899997,505.0
1640.68999997,514.0
1640.69099997,521.0
1640.69199997,522.0
1640.69299997,521.0
1640.69399997,513.0
1640.69499997,503.0
1640.69599997,501.0
1640.69699997,507.0
1640.69799997,516.0
1640.69899997,522.0
1640.69999997,516.0
1640.70099997,514.0
1640.70199997,505.0
1640.70299997,505.0
1640.70399997,502.0
1640.70499997,502.0
1640.70599997,513.0
1640.70699997,523.0
1640.70799997,518.0
1640.70899997,511.0
1640.70999997,507.0
1640.71099997,510.0
1640.71199997,506.0
1640.71299997,501.0
1640.71399997,513.0
1640.71499997,523.0
1640.71599997,515.0
1640.71699997,506.0
1640.71799997,517.0
1640.71899997,521.0
1640.71999997,513.0
1640.72099997,504.0
1640.72199997,514.0
1640.72299997,523.0
1640.72399997,512.0
1640.72499997,503.0
1640.72599997,532.0
1640.72699997,535.0
1640.72799997,520.0
1640.72899997,504.0
1640.72999997,515.0
1640.73099997,520.0
1640.73199997,509.0
1640.73299997,502.0
1640.73399997,552.0
1640.73499997,555.0
1640.73599997,526.0
1640.73699997,503.0
1640.73799997,519.0
1640.73899997,517.0
1640.73999997,510.0
1640.74099997,500.0
1640.74199997,542.0
1640.74299997,541.0
1640.74399997,517.0
1640.74499997,501.0
1640.74599997,519.0
1640.74699997,514.0
1640.74799997,509.0
1640.74899997,499.0
1640.74999997,514.0
1640.75099997,515.0
1640.75199997,500.0
1640.75299997,509.0
1640.75399997,521.0
1640.75499997,520.0
1640.75599997,509.0
1640.75699997,499.0
1640.75799997,507.0
1640.75899997,508.0
1640.75999997,498.0
1640.76099997,513.0
1640.76199997,523.0
1640.76299997,521.0
1640.76399997,514.0
1640.76499997,501.0
1640.76599997,502.0
1640.76699997,505.0
1640.76799997,504.0
1640.76899997,519.0
1640.76999997,524.0
1640.77099997,524.0
1640.77199997,519.0
1640.77299997,506.0
1640.77399997,503.0
1640.77499997,505.0
1640.77599997,512.0
1640.77699997,526.0
1640.77799997,525.0
1640.77899997,525.0
1640.77999997,519.0
1640.78099997,505.0
1640.78199997,506.0
1640.78299997,507.0
1640.78399997,516.0
1640.78499997,526.0
1640.78599997,522.0
1640.78699997,522.0
1640.78799997,515.0
1640.78899997,504.0
1640.78999997,507.0
1640.79099997,508.0
1640.79199997,519.0
1640.79299997,525.0
1640.79399997,522.0
1640.79499997,518.0
1640.79599997,509.0
1640.79699997,503.0
1640.79799997,504.0
1640.79899997,509.0
1640.79999997,519.0
1640.80099997,521.0
1640.80199997,522.0
1640.80299997,517.0
1640.80399997,507.0
1640.80499997,503.0
1640.80599997,506.0
1640.80699997,511.0
1640.80799997,520.0
1640.80899997,518.0
1640.80999997,521.0
1640.81099997,514.0
1640.81199997,505.0
1640.81299997,501.0
1640.81399997,506.0
1640.81499997,511.0
1640.81599997,518.0
1640.81699997,510.0
1640.81799997,523.0
1640.81899997,512.0
1640.81999997,502.0
1640.82099997,504.0
1640.82199997,503.0
1640.82299997,515.0
1640.82399997,515.0
1640.82499997,513.0
1640.82599997,521.0
1640.82699997,511.0
1640.82799997,500.0
1640.82899997,503.0
1640.82999997,506.0
1640.83099997,514.0
1640.83199997,510.0
1640.83299997,515.0
1640.83399997,519.0
1640.83499997,509.0
1640.83599997,501.0
1640.83699997,503.0
1640.83799997,506.0
1640.83899997,520.0
1640.83999997,507.0
1640.84099997,516.0
1640.84199997,516.0
1640.84299997,514.0
1640.84399997,501.0
1640.84499997,504.0
1640.84599997,510.0
1640.84699997,521.0
1640.84799997,510.0
1640.84899997,515.0
1640.84999997,514.0
1640.85099997,514.0
1640.85199997,503.0
1640.85299997,505.0
1640.85399997,512.0
1640.85499997,525.0
1640.85599997,510.0
1640.85699997,518.0
1640.85799997,513.0
1640.85899997,520.0
1640.85999997,504.0
1640.86099997,504.0
1640.86199997,511.0
1640.86299997,526.0
1640.86399997,515.0
1640.86499997,514.0
1640.86599997,511.0
1640.86699997,530.0
1640.86799997,504.0
1640.86899997,504.0
1640.86999997,513.0
1640.87099997,525.0
1640.87199997,517.0
1640.87299997,508.0
1640.87399997,528.0
1640.87499997,561.0
1640.87599997,516.0
1640.87699997,503.0
1640.87799997,508.0
1640.87899997,523.0
1640.87999997,511.0
1640.88099997,516.0
1640.88199997,606.0
1640.88299997,636.0
1640.88399997,532.0
1640.88499997,498.0
1640.88599997,500.0
1640.88699997,515.0
1640.88799997,519.0
1640.88899997,525.0
1640.88999997,643.0
1640.89099997,658.0
1640.89199997,532.0
1640.89299997,487.0
1640.89399997,489.0
1640.89499997,497.0
1640.89599997,536.0
1640.89699997,560.0
1640.89799997,695.0
1640.89899997,684.0
1640.89999997,534.0
1640.90099997,472.0
1640.90199997,480.0
1640.90299997,480.0
1640.90399997,487.0
1640.90499997,508.0
1640.90599997,598.0
1640.90699997,581.0
1640.90799997,488.0
1640.90899997,462.0
1640.90999997,472.0
1640.91099997,482.0
1640.91199997,469.0
1640.91299997,479.0
1640.91399997,519.0
1640.91499997,511.0
1640.91599997,471.0
1640.91699997,475.0
1640.91799997,489.0
1640.91899997,491.0
1640.91999997,475.0
1640.92099997,472.0
1640.92199997,485.0
1640.92299997,486.0
1640.92399997,479.0
1640.92499997,490.0
1640.92599997,497.0
1640.92699997,499.0
1640.92799997,489.0
1640.92899997,478.0
1640.92999997,482.0
1640.93099997,486.0
1640.93199997,493.0
1640.93299997,505.0
1640.93399997,503.0
1640.93499997,505.0
1640.93599997,496.0
1640.93699997,487.0
1640.93799997,488.0
1640.93899997,494.0
1640.93999997,502.0
1640.94099997,510.0
1640.94199997,508.0
1640.94299997,508.0
1640.94399997,497.0
1640.94499997,491.0
1640.94599997,493.0
1640.94699997,498.0
1640.94799997,509.0
1640.94899997,516.0
1640.94999997,510.0
1640.95099997,510.0
1640.95199997,496.0
1640.95299997,492.0
1640.95399997,497.0
1640.95499997,500.0
1640.95599997,515.0
1640.95699997,518.0
1640.95799997,516.0
1640.95899997,511.0
1640.95999997,496.0
1640.96099997,494.0
1640.96199997,500.0
1640.96299997,504.0
1640.96399997,515.0
1640.96499997,519.0
1640.96599997,518.0
1640.96699997,511.0
1640.96799997,494.0
1640.96899997,496.0
1640.96999997,503.0
1640.97099997,509.0
1640.97199997,520.0
1640.97299997,517.0
1640.97399997,519.0
1640.97499997,510.0
1640.97599997,498.0
1640.97699997,499.0
1640.97799997,504.0
1640.97899997,515.0
1640.97999997,521.0
1640.98099997,516.0
1640.98199997,519.0
1640.98299997,508.0
1640.98399997,497.0
1640.98499997,501.0
1640.98599997,507.0
1640.98699997,513.0
1640.98799997,524.0
1640.98899997,520.0
1640.98999997,518.0
1640.99099997,505.0
1640.99199997,498.0
1640.99299997,501.0
1640.99399997,509.0
1640.99499997,519.0
1640.99599997,522.0
1640.99699997,520.0
1640.99799997,518.0
1640.99899997,504.0
1640.99999997,498.0
1641.00099997,503.0
1641.00199997,511.0
1641.00299997,519.0
1641.00399997,521.0
1641.00499997,521.0
1641.00599997,515.0
1641.00699997,505.0
1641.00799997,500.0
1641.00899997,506.0
1641.00999997,514.0
1641.01099997,523.0
1641.01199997,521.0
1641.01299997,521.0
1641.01399997,514.0
1641.01499997,503.0
1641.01599997,500.0
1641.01699997,506.0
1641.01799997,516.0
1641.01899997,526.0
1641.01999997,518.0
1641.02099997,521.0
1641.02199997,509.0
1641.02299997,502.0
1641.02399997,501.0
1641.02499997,505.0
1641.02599997,515.0
1641.02699997,525.0
1641.02799997,514.0
1641.02899997,517.0
1641.02999997,515.0
1641.03099997,504.0
1641.03199997,502.0
1641.03299997,505.0
1641.03399997,519.0
1641.03499997,527.0
1641.03599997,518.0
1641.03699997,512.0
1641.03799997,507.0
1641.03899997,505.0
1641.03999997,504.0
1641.04099997,507.0
1641.04199997,521.0
1641.04299997,527.0
1641.04399997,515.0
1641.04499997,507.0
1641.04599997,513.0
1641.04699997,512.0
1641.04799997,507.0
1641.04899997,507.0
1641.04999997,521.0
1641.05099997,526.0
1641.05199997,515.0
1641.05299997,506.0
1641.05399997,515.0
1641.05499997,514.0
1641.05599997,506.0
1641.05699997,509.0
1641.05799997,522.0
1641.05899997,524.0
1641.05999997,511.0
1641.06099997,503.0
1641.06199997,532.0
1641.06299997,526.0
1641.06399997,511.0
1641.06499997,509.0
1641.06599997,524.0
1641.06699997,521.0
1641.06799997,510.0
1641.06899997,504.0
1641.06999997,525.0
1641.07099997,518.0
1641.07199997,505.0
1641.07299997,513.0
1641.07399997,525.0
1641.07499997,520.0
1641.07599997,513.0
1641.07699997,503.0
1641.07799997,518.0
1641.07899997,512.0
1641.07999997,504.0
1641.08099997,519.0
1641.08199997,526.0
1641.08299997,523.0
1641.08399997,516.0
1641.08499997,502.0
1641.08599997,505.0
1641.08699997,506.0
1641.08799997,508.0
1641.08899997,524.0
1641.08999997,525.0
1641.09099997,524.0
1641.09199997,518.0
1641.09299997,504.0
1641.09399997,506.0
1641.09499997,506.0
1641.09599997,513.0
1641.09699997,527.0
1641.09799997,523.0
1641.09899997,524.0
1641.09999997,517.0
1641.10099997,507.0
1641.10199997,507.0
1641.10299997,510.0
1641.10399997,518.0
1641.10499997,527.0
1641.10599997,525.0
1641.10699997,522.0
1641.10799997,515.0
1641.10899997,506.0
1641.10999997,507.0
1641.11099997,510.0
1641.11199997,520.0
1641.11299997,527.0
1641.11399997,522.0
1641.11499997,522.0
1641.11599997,514.0
1641.11699997,506.0
1641.11799997,507.0
1641.11899997,516.0
1641.11999997,521.0
1641.12099997,524.0
1641.12199997,523.0
1641.12299997,516.0
1641.12399997,507.0
1641.12499997,501.0
1641.12599997,507.0
1641.12699997,512.0
1641.12799997,522.0
1641.12899997,521.0
1641.12999997,524.0
1641.13099997,515.0
1641.13199997,507.0
1641.13299997,503.0
1641.13399997,508.0
1641.13499997,515.0
1641.13599997,519.0
1641.13699997,517.0
1641.13799997,521.0
1641.13899997,512.0
1641.13999997,503.0
1641.14099997,504.0
1641.14199997,507.0
1641.14299997,515.0
1641.14399997,514.0
1641.14499997,514.0
1641.14599997,519.0
1641.14699997,510.0
1641.14799997,503.0
1641.14899997,503.0
1641.14999997,508.0
1641.15099997,518.0
1641.15199997,511.0
1641.15299997,519.0
1641.15399997,520.0
1641.15499997,508.0
1641.15599997,503.0
1641.15699997,506.0
1641.15799997,510.0
1641.15899997,520.0
1641.15999997,507.0
1641.16099997,519.0
1641.16199997,518.0
1641.16299997,507.0
1641.16399997,502.0
1641.16499997,506.0
1641.16599997,512.0
1641.16699997,528.0
1641.16799997,510.0
1641.16899997,523.0
1641.16999997,517.0
1641.17099997,508.0
1641.17199997,502.0
1641.17299997,506.0
1641.17399997,513.0
1641.17499997,528.0
1641.17599997,511.0
1641.17699997,521.0
1641.17799997,512.0
1641.17899997,508.0
1641.17999997,503.0
1641.18099997,506.0
1641.18199997,514.0
1641.18299997,526.0
1641.18399997,513.0
1641.18499997,517.0
1641.18599997,511.0
1641.18699997,512.0
1641.18799997,504.0
1641.18899997,506.0
1641.18999997,516.0
1641.19099997,526.0
1641.19199997,513.0
1641.19299997,509.0
1641.19399997,523.0
1641.19499997,532.0
1641.19599997,507.0
1641.19699997,504.0
1641.19799997,514.0
1641.19899997,524.0
1641.19999997,519.0
1641.20099997,507.0
1641.20199997,579.0
1641.20299997,585.0
1641.20399997,519.0
1641.20499997,502.0
1641.20599997,510.0
1641.20699997,516.0
1641.20799997,524.0
1641.20899997,539.0
1641.20999997,663.0
1641.21099997,667.0
1641.21199997,539.0
1641.21299997,494.0
1641.21399997,497.0
1641.21499997,506.0
1641.21599997,538.0
1641.21699997,555.0
1641.21799997,674.0
1641.21899997,640.0
1641.21999997,523.0
1641.22099997,478.0
1641.22199997,488.0
1641.22299997,490.0
1641.22399997,503.0
1641.22499997,532.0
1641.22599997,611.0
1641.22699997,578.0
1641.22799997,493.0
1641.22899997,470.0
1641.22999997,490.0
1641.23099997,487.0
1641.23199997,474.0
1641.23299997,491.0
1641.23399997,532.0
1641.23499997,511.0
1641.23599997,474.0
1641.23699997,480.0
1641.23799997,496.0
1641.23899997,494.0
1641.23999997,477.0
1641.24099997,485.0
1641.24199997,502.0
1641.24299997,493.0
1641.24399997,482.0
1641.24499997,493.0
1641.24599997,502.0
1641.24699997,501.0
1641.24799997,484.0
1641.24899997,478.0
1641.24999997,491.0
1641.25099997,487.0
1641.25199997,494.0
1641.25299997,504.0
1641.25399997,504.0
1641.25499997,508.0
1641.25599997,490.0
1641.25699997,483.0
1641.25799997,490.0
1641.25899997,496.0
1641.25999997,502.0
1641.26099997,512.0
1641.26199997,507.0
1641.26299997,508.0
1641.26399997,498.0
1641.26499997,490.0
1641.26599997,497.0
1641.26699997,501.0
1641.26799997,512.0
1641.26899997,517.0
1641.26999997,516.0
1641.27099997,511.0
1641.27199997,499.0
1641.27299997,494.0
1641.27399997,500.0
1641.27499997,504.0
1641.27599997,516.0
1641.27699997,518.0
1641.27799997,516.0
1641.27899997,509.0
1641.27999997,495.0
1641.28099997,495.0
1641.28199997,502.0
1641.28299997,508.0
1641.28399997,517.0
1641.28499997,519.0
1641.28599997,517.0
1641.28699997,511.0
1641.28799997,498.0
1641.28899997,496.0
1641.28999997,505.0
1641.29099997,510.0
1641.29199997,520.0
1641.29299997,519.0
1641.29399997,520.0
1641.29499997,510.0
1641.29599997,498.0
1641.29699997,501.0
1641.29799997,507.0
1641.29899997,514.0
1641.29999997,522.0
1641.30099997,518.0
1641.30199997,519.0
1641.30299997,508.0
1641.30399997,498.0
1641.30499997,501.0
1641.30599997,509.0
1641.30699997,517.0
1641.30799997,521.0
1641.30899997,522.0
1641.30999997,515.0
1641.31099997,509.0
1641.31199997,497.0
1641.31299997,504.0
1641.31399997,510.0
1641.31499997,521.0
1641.31599997,522.0
1641.31699997,522.0
1641.31799997,519.0
1641.31899997,504.0
1641.31999997,498.0
1641.32099997,506.0
1641.32199997,514.0
1641.32299997,521.0
1641.32399997,521.0
1641.32499997,522.0
1641.32599997,516.0
1641.32699997,503.0
1641.32799997,499.0
1641.32899997,504.0
1641.32999997,514.0
1641.33099997,522.0
1641.33199997,518.0
1641.33299997,522.0
1641.33399997,509.0
1641.33499997,500.0
1641.33599997,501.0
1641.33699997,503.0
1641.33799997,512.0
1641.33899997,524.0
1641.33999997,521.0
1641.34099997,523.0
1641.34199997,509.0
1641.34299997,501.0
1641.34399997,503.0
1641.34499997,506.0
1641.34599997,518.0
1641.34699997,528.0
1641.34799997,515.0
1641.34899997,518.0
1641.34999997,509.0
1641.35099997,504.0
1641.35199997,505.0
1641.35299997,509.0
1641.35399997,523.0
1641.35499997,530.0
1641.35599997,516.0
1641.35699997,516.0
1641.35799997,511.0
1641.35899997,507.0
1641.35999997,508.0
1641.36099997,506.0
1641.36199997,521.0
1641.36299997,524.0
1641.36399997,514.0
1641.36499997,508.0
1641.36599997,514.0
1641.36699997,514.0
1641.36799997,512.0
1641.36899997,508.0
1641.36999997,524.0
1641.37099997,523.0
1641.37199997,515.0
1641.37299997,505.0
1641.37399997,518.0
1641.37499997,516.0
1641.37599997,510.0
1641.37699997,511.0
1641.37799997,525.0
1641.37899997,527.0
1641.37999997,513.0
1641.38099997,525.0
1641.38199997,526.0
1641.38299997,521.0
1641.38399997,511.0
1641.38499997,511.0
1641.38599997,525.0
1641.38699997,523.0
1641.38799997,509.0
1641.38899997,507.0
1641.38999997,526.0
1641.39099997,522.0
1641.39199997,507.0
1641.39299997,512.0
1641.39399997,525.0
1641.39499997,526.0
1641.39599997,509.0
1641.39699997,506.0
1641.39799997,512.0
1641.39899997,510.0
1641.39999997,503.0
1641.40099997,516.0
1641.40199997,524.0
1641.40299997,520.0
1641.40399997,513.0
1641.40499997,503.0
1641.40599997,509.0
1641.40699997,507.0
1641.40799997,507.0
1641.40899997,522.0
1641.40999997,523.0
1641.41099997,524.0
1641.41199997,511.0
1641.41299997,502.0
1641.41399997,507.0
1641.41499997,506.0
1641.41599997,511.0
1641.41699997,527.0
1641.41799997,525.0
1641.41899997,526.0
1641.41999997,518.0
1641.42099997,507.0
1641.42199997,507.0
1641.42299997,507.0
1641.42399997,518.0
1641.42499997,528.0
1641.42599997,524.0
1641.42699997,522.0
1641.42799997,513.0
1641.42899997,504.0
1641.42999997,507.0
1641.43099997,510.0
1641.43199997,520.0
1641.43299997,528.0
1641.43399997,523.0
1641.43499997,519.0
1641.43599997,510.0
1641.43699997,505.0
1641.43799997,509.0
1641.43899997,513.0
1641.43999997,523.0
1641.44099997,524.0
1641.44199997,524.0
1641.44299997,517.0
1641.44399997,508.0
1641.44499997,503.0
1641.44599997,509.0
1641.44699997,514.0
1641.44799997,518.0
1641.44899997,520.0
1641.44999997,524.0
1641.45099997,513.0
1641.45199997,504.0
1641.45299997,504.0
1641.45399997,508.0
1641.45499997,516.0
1641.45599997,516.0
1641.45699997,518.0
1641.45799997,539.0
1641.45899997,514.0
1641.45999997,507.0
1641.46099997,505.0
1641.46199997,509.0
1641.46299997,519.0
1641.46399997,513.0
1641.46499997,517.0
1641.46599997,521.0
1641.46699997,507.0
1641.46799997,503.0
1641.46899997,504.0
1641.46999997,508.0
1641.47099997,519.0
1641.47199997,507.0
1641.47299997,519.0
1641.47399997,520.0
1641.47499997,506.0
1641.47599997,503.0
1641.47699997,506.0
1641.47799997,511.0
1641.47899997,521.0
1641.47999997,505.0
1641.48099997,519.0
1641.48199997,517.0
1641.48299997,505.0
1641.48399997,502.0
1641.48499997,505.0
1641.48599997,512.0
1641.48699997,521.0
1641.48799997,512.0
1641.48899997,522.0
1641.48999997,515.0
1641.49099997,506.0
1641.49199997,503.0
1641.49299997,507.0
1641.49399997,515.0
1641.49499997,521.0
1641.49599997,508.0
1641.49699997,520.0
1641.49799997,512.0
1641.49899997,510.0
1641.49999997,503.0
1641.50099997,506.0
1641.50199997,513.0
1641.50299997,525.0
1641.50399997,510.0
1641.50499997,518.0
1641.50599997,513.0
1641.50699997,510.0
1641.50799997,505.0
1641.50899997,508.0
1641.50999997,514.0
1641.51099997,526.0
1641.51199997,511.0
1641.51299997,513.0
1641.51399997,515.0
1641.51499997,515.0
1641.51599997,505.0
1641.51699997,509.0
1641.51799997,519.0
1641.51899997,528.0
1641.51999997,511.0
1641.52099997,505.0
1641.52199997,542.0
1641.52299997,546.0
1641.52399997,512.0
1641.52499997,504.0
1641.52599997,513.0
1641.52699997,522.0
1641.52799997,532.0
1641.52899997,548.0
1641.52999997,656.0
1641.53099997,628.0
1641.53199997,532.0
1641.53299997,497.0
1641.53399997,504.0
1641.53499997,506.0
1641.53599997,575.0
1641.53699997,617.0
1641.53799997,734.0
1641.53899997,672.0
1641.53999997,548.0
1641.54099997,480.0
1641.54199997,483.0
1641.54299997,482.0
1641.54399997,535.0
1641.54499997,597.0
1641.54599997,650.0
1641.54699997,589.0
1641.54799997,500.0
1641.54899997,459.0
1641.54999997,476.0
1641.55099997,473.0
1641.55199997,472.0
1641.55299997,531.0
1641.55399997,572.0
1641.55499997,528.0
1641.55599997,468.0
1641.55699997,464.0
1641.55799997,481.0
1641.55899997,475.0
1641.55999997,463.0
1641.56099997,489.0
1641.56199997,507.0
1641.56299997,501.0
1641.56399997,467.0
1641.56499997,479.0
1641.56599997,485.0
1641.56699997,485.0
1641.56799997,468.0
1641.56899997,490.0
1641.56999997,489.0
1641.57099997,482.0
1641.57199997,478.0
1641.57299997,490.0
1641.57399997,492.0
1641.57499997,495.0
1641.57599997,481.0
1641.57699997,479.0
1641.57799997,502.0
1641.57899997,485.0
1641.57999997,492.0
1641.58099997,504.0
1641.58199997,501.0
1641.58299997,506.0
1641.58399997,493.0
1641.58499997,487.0
1641.58599997,493.0
1641.58699997,494.0
1641.58799997,506.0
1641.58899997,512.0
1641.58999997,508.0
1641.59099997,504.0
1641.59199997,494.0
1641.59299997,490.0
1641.59399997,499.0
1641.59499997,499.0
1641.59599997,511.0
1641.59699997,515.0
1641.59799997,513.0
1641.59899997,506.0
1641.59999997,493.0
1641.60099997,493.0
1641.60199997,499.0
1641.60299997,504.0
1641.60399997,515.0
1641.60499997,514.0
1641.60599997,515.0
1641.60699997,507.0
1641.60799997,496.0
1641.60899997,497.0
1641.60999997,503.0
1641.61099997,511.0
1641.61199997,513.0
1641.61299997,515.0
1641.61399997,516.0
1641.61499997,506.0
1641.61599997,500.0
1641.61699997,500.0
1641.61799997,505.0
1641.61899997,513.0
1641.61999997,520.0
1641.62099997,518.0
1641.62199997,516.0
1641.62299997,507.0
1641.62399997,499.0
1641.62499997,503.0
1641.62599997,508.0
1641.62699997,515.0
1641.62799997,521.0
1641.62899997,522.0
1641.62999997,518.0
1641.63099997,508.0
1641.63199997,502.0
1641.63299997,506.0
1641.63399997,511.0
1641.63499997,520.0
1641.63599997,520.0
1641.63699997,520.0
1641.63799997,514.0
1641.63899997,503.0
1641.63999997,499.0
1641.64099997,505.0
1641.64199997,512.0
1641.64299997,519.0
1641.64399997,516.0
1641.64499997,520.0
1641.64599997,514.0
1641.64699997,503.0
1641.64799997,500.0
1641.64899997,505.0
1641.64999997,513.0
1641.65099997,521.0
1641.65199997,518.0
1641.65299997,521.0
1641.65399997,512.0
1641.65499997,502.0
1641.65599997,502.0
1641.65699997,506.0
1641.65799997,516.0
1641.65899997,524.0
1641.65999997,518.0
1641.66099997,520.0
1641.66199997,511.0
1641.66299997,503.0
1641.66399997,504.0
1641.66499997,509.0
1641.66599997,518.0
1641.66699997,525.0
1641.66799997,516.0
1641.66899997,518.0
1641.66999997,507.0
1641.67099997,502.0
1641.67199997,504.0
1641.67299997,513.0
1641.67399997,519.0
1641.67499997,524.0
1641.67599997,511.0
1641.67699997,514.0
1641.67799997,505.0
1641.67899997,501.0
1641.67999997,503.0
1641.68099997,509.0
1641.68199997,521.0
1641.68299997,523.0
1641.68399997,512.0
1641.68499997,507.0
1641.68599997,508.0
1641.68699997,505.0
1641.68799997,504.0
1641.68899997,510.0
1641.68999997,522.0
1641.69099997,524.0
1641.69199997,510.0
1641.69299997,505.0
1641.69399997,515.0
1641.69499997,514.0
1641.69599997,507.0
1641.69699997,507.0
1641.69799997,525.0
1641.69899997,518.0
1641.69999997,508.0
1641.70099997,508.0
1641.70199997,531.0
1641.70299997,519.0
1641.70399997,510.0
1641.70499997,508.0
1641.70599997,524.0
1641.70699997,519.0
1641.70799997,506.0
1641.70899997,508.0
1641.70999997,528.0
1641.71099997,514.0
1641.71199997,504.0
1641.71299997,511.0
1641.71399997,525.0
1641.71499997,521.0
1641.71599997,508.0
1641.71699997,505.0
1641.71799997,515.0
1641.71899997,506.0
1641.71999997,505.0
1641.72099997,517.0
1641.72199997,525.0
1641.72299997,524.0
1641.72399997,513.0
1641.72499997,502.0
1641.72599997,507.0
1641.72699997,504.0
1641.72799997,510.0
1641.72899997,526.0
1641.72999997,523.0
1641.73099997,524.0
1641.73199997,515.0
1641.73299997,504.0
1641.73399997,508.0
1641.73499997,507.0
1641.73599997,516.0
1641.73699997,527.0
1641.73799997,523.0
1641.73899997,525.0
1641.73999997,517.0
1641.74099997,509.0
1641.74199997,510.0
1641.74299997,512.0
1641.74399997,520.0
1641.74499997,528.0
1641.74599997,524.0
1641.74699997,524.0
1641.74799997,515.0
1641.74899997,507.0
1641.74999997,511.0
1641.75099997,512.0
1641.75199997,523.0
1641.75299997,527.0
1641.75399997,523.0
1641.75499997,521.0
1641.75599997,512.0
1641.75699997,508.0
1641.75799997,509.0
1641.75899997,515.0
1641.75999997,523.0
1641.76099997,525.0
1641.76199997,524.0
1641.76299997,519.0
1641.76399997,509.0
1641.76499997,507.0
1641.76599997,508.0
1641.76699997,514.0
1641.76799997,519.0
1641.76899997,521.0
1641.76999997,524.0
1641.77099997,516.0
1641.77199997,510.0
1641.77299997,505.0
1641.77399997,508.0
1641.77499997,518.0
1641.77599997,517.0
1641.77699997,520.0
1641.77799997,520.0
1641.77899997,510.0
1641.77999997,504.0
1641.78099997,506.0
1641.78199997,508.0
1641.78299997,518.0
1641.78399997,513.0
1641.78499997,512.0
1641.78599997,521.0
1641.78699997,508.0
1641.78799997,504.0
1641.78899997,507.0
1641.78999997,510.0
1641.79099997,520.0
1641.79199997,507.0
1641.79299997,518.0
1641.79399997,518.0
1641.79499997,506.0
1641.79599997,504.0
1641.79699997,505.0
1641.79799997,512.0
1641.79899997,521.0
1641.79999997,506.0
1641.80099997,522.0
1641.80199997,515.0
1641.80299997,504.0
1641.80399997,500.0
1641.80499997,506.0
1641.80599997,513.0
1641.80699997,520.0
1641.80799997,505.0
1641.80899997,526.0
1641.80999997,514.0
1641.81099997,504.0
1641.81199997,501.0
1641.81299997,506.0
1641.81399997,514.0
1641.81499997,516.0
1641.81599997,508.0
1641.81699997,522.0
1641.81799997,517.0
1641.81899997,504.0
1641.81999997,505.0
1641.82099997,510.0
1641.82199997,517.0
1641.82299997,522.0
1641.82399997,509.0
1641.82499997,518.0
1641.82599997,513.0
1641.82699997,505.0
1641.82799997,505.0
1641.82899997,509.0
1641.82999997,518.0
1641.83099997,522.0
1641.83199997,507.0
1641.83299997,513.0
1641.83399997,521.0
1641.83499997,510.0
1641.83599997,503.0
1641.83699997,508.0
1641.83799997,519.0
1641.83899997,524.0
1641.83999997,510.0
1641.84099997,509.0
1641.84199997,528.0
1641.84299997,515.0
1641.84399997,505.0
1641.84499997,509.0
1641.84599997,522.0
1641.84699997,521.0
1641.84799997,515.0
1641.84899997,519.0
1641.84999997,598.0
1641.85099997,561.0
1641.85199997,515.0
1641.85299997,503.0
1641.85399997,516.0
1641.85499997,514.0
1641.85599997,513.0
1641.85699997,548.0
1641.85799997,634.0
1641.85899997,570.0
1641.85999997,514.0
1641.86099997,495.0
1641.86199997,511.0
1641.86299997,503.0
1641.86399997,549.0
1641.86499997,629.0
1641.86599997,727.0
1641.86699997,611.0
1641.86799997,513.0
1641.86899997,480.0
1641.86999997,495.0
1641.87099997,484.0
1641.87199997,509.0
1641.87299997,638.0
1641.87399997,692.0
1641.87499997,577.0
1641.87599997,483.0
1641.87699997,469.0
1641.87799997,485.0
1641.87899997,476.0
1641.87999997,476.0
1641.88099997,564.0
1641.88199997,582.0
1641.88299997,510.0
1641.88399997,463.0
1641.88499997,478.0
1641.88599997,480.0
1641.88699997,476.0
1641.88799997,472.0
1641.88899997,533.0
1641.88999997,544.0
1641.89099997,490.0
1641.89199997,469.0
1641.89299997,486.0
1641.89399997,481.0
1641.89499997,481.0
1641.89599997,470.0
1641.89699997,484.0
1641.89799997,501.0
1641.89899997,480.0
1641.89999997,481.0
1641.90099997,498.0
1641.90199997,495.0
1641.90299997,497.0
1641.90399997,483.0
1641.90499997,480.0
1641.90599997,486.0
1641.90699997,486.0
1641.90799997,500.0
1641.90899997,505.0
1641.90999997,504.0
1641.91099997,502.0
1641.91199997,487.0
1641.91299997,484.0
1641.91399997,494.0
1641.91499997,497.0
1641.91599997,508.0
1641.91699997,510.0
1641.91799997,508.0
1641.91899997,506.0
1641.91999997,493.0
1641.92099997,490.0
1641.92199997,497.0
1641.92299997,504.0
1641.92399997,513.0
1641.92499997,513.0
1641.92599997,514.0
1641.92699997,502.0
1641.92799997,491.0
1641.92899997,494.0
1641.92999997,500.0
1641.93099997,509.0
1641.93199997,516.0
1641.93299997,514.0
1641.93399997,514.0
1641.93499997,502.0
1641.93599997,493.0
1641.93699997,496.0
1641.93799997,502.0
1641.93899997,509.0
1641.93999997,521.0
1641.94099997,519.0
1641.94199997,513.0
1641.94299997,500.0
1641.94399997,493.0
1641.94499997,499.0
1641.94599997,505.0
1641.94699997,517.0
1641.94799997,520.0
1641.94899997,518.0
1641.94999997,516.0
1641.95099997,503.0
1641.95199997,497.0
1641.95299997,502.0
1641.95399997,510.0
1641.95499997,520.0
1641.95599997,520.0
1641.95699997,519.0
1641.95799997,515.0
1641.95899997,497.0
1641.95999997,496.0
1641.96099997,504.0
1641.96199997,513.0
1641.96299997,520.0
1641.96399997,516.0
1641.96499997,522.0
1641.96599997,513.0
1641.96699997,500.0
1641.96799997,500.0
1641.96899997,506.0
1641.96999997,515.0
1641.97099997,524.0
1641.97199997,518.0
1641.97299997,524.0
1641.97399997,513.0
1641.97499997,502.0
1641.97599997,503.0
1641.97699997,507.0
1641.97799997,517.0
1641.97899997,526.0
1641.97999997,519.0
1641.98099997,522.0
1641.98199997,509.0
1641.98299997,499.0
1641.98399997,503.0
1641.98499997,508.0
1641.98599997,520.0
1641.98699997,525.0
1641.98799997,518.0
1641.98899997,519.0
1641.98999997,506.0
1641.99099997,501.0
1641.99199997,506.0
1641.99299997,510.0
1641.99399997,523.0
1641.99499997,525.0
1641.99599997,520.0
1641.99699997,517.0
1641.99799997,505.0
1641.99899997,501.0
1641.99999997,504.0
1642.00099997,512.0
1642.00199997,522.0
1642.00299997,524.0
1642.00399997,513.0
1642.00499997,513.0
1642.00599997,509.0
1642.00699997,505.0
1642.00799997,505.0
1642.00899997,512.0
1642.00999997,525.0
1642.01099997,523.0
1642.01199997,513.0
1642.01299997,517.0
1642.01399997,518.0
1642.01499997,513.0
1642.01599997,507.0
1642.01699997,512.0
1642.01799997,523.0
1642.01899997,519.0
1642.01999997,511.0
1642.02099997,509.0
1642.02199997,531.0
1642.02299997,517.0
1642.02399997,508.0
1642.02499997,512.0
1642.02599997,524.0
1642.02699997,516.0
1642.02799997,508.0
1642.02899997,520.0
1642.02999997,542.0
1642.03099997,520.0
1642.03199997,506.0
1642.03299997,513.0
1642.03399997,523.0
1642.03499997,514.0
1642.03599997,504.0
1642.03699997,542.0
1642.03799997,559.0
1642.03899997,527.0
1642.03999997,508.0
1642.04099997,513.0
1642.04199997,518.0
1642.04299997,516.0
1642.04399997,502.0
1642.04499997,512.0
1642.04599997,522.0
1642.04699997,507.0
1642.04799997,504.0
1642.04899997,520.0
1642.04999997,520.0
1642.05099997,518.0
1642.05199997,505.0
1642.05299997,504.0
1642.05399997,511.0
1642.05499997,503.0
1642.05599997,510.0
1642.05699997,524.0
1642.05799997,522.0
1642.05899997,519.0
1642.05999997,508.0
1642.06099997,503.0
1642.06199997,507.0
1642.06299997,506.0
1642.06399997,517.0
1642.06499997,526.0
1642.06599997,524.0
1642.06699997,521.0
1642.06799997,508.0
1642.06899997,503.0
1642.06999997,508.0
1642.07099997,508.0
1642.07199997,522.0
1642.07299997,526.0
1642.07399997,522.0
1642.07499997,521.0
1642.07599997,508.0
1642.07699997,505.0
1642.07799997,509.0
1642.07899997,513.0
1642.07999997,523.0
1642.08099997,526.0
1642.08199997,525.0
1642.08299997,518.0
1642.08399997,507.0
1642.08499997,507.0
1642.08599997,510.0
1642.08699997,516.0
1642.08799997,524.0
1642.08899997,524.0
1642.08999997,525.0
1642.09099997,515.0
1642.09199997,506.0
1642.09299997,505.0
1642.09399997,511.0
1642.09499997,519.0
1642.09599997,520.0
1642.09699997,524.0
1642.09799997,521.0
1642.09899997,513.0
1642.09999997,505.0
1642.10099997,507.0
1642.10199997,512.0
1642.10299997,520.0
1642.10399997,519.0
1642.10499997,523.0
1642.10599997,519.0
1642.10699997,507.0
1642.10799997,502.0
1642.10899997,506.0
1642.10999997,512.0
1642.11099997,521.0
1642.11199997,514.0
1642.11299997,523.0
1642.11399997,518.0
1642.11499997,505.0
1642.11599997,503.0
1642.11699997,507.0
1642.11799997,511.0
1642.11899997,521.0
1642.11999997,508.0
1642.12099997,522.0
1642.12199997,516.0
1642.12299997,505.0
1642.12399997,503.0
1642.12499997,510.0
1642.12599997,518.0
1642.12699997,520.0
1642.12799997,511.0
1642.12899997,524.0
1642.12999997,516.0
1642.13099997,504.0
1642.13199997,505.0
1642.13299997,508.0
1642.13399997,514.0
1642.13499997,515.0
1642.13599997,514.0
1642.13699997,524.0
1642.13799997,517.0
1642.13899997,508.0
1642.13999997,507.0
1642.14099997,512.0
1642.14199997,521.0
1642.14299997,519.0
1642.14399997,514.0
1642.14499997,523.0
1642.14599997,513.0
1642.14699997,504.0
1642.14799997,508.0
1642.14899997,512.0
1642.14999997,523.0
1642.15099997,519.0
1642.15199997,514.0
1642.15299997,518.0
1642.15399997,521.0
1642.15499997,505.0
1642.15599997,506.0
1642.15699997,512.0
1642.15799997,523.0
1642.15899997,523.0
1642.15999997,512.0
1642.16099997,514.0
1642.16199997,516.0
1642.16299997,506.0
1642.16399997,506.0
1642.16499997,514.0
1642.16599997,523.0
1642.16699997,517.0
1642.16799997,516.0
1642.16899997,508.0
1642.16999997,543.0
1642.17099997,517.0
1642.17199997,511.0
1642.17299997,511.0
1642.17399997,524.0
1642.17499997,518.0
1642.17599997,520.0
1642.17699997,546.0
1642.17799997,622.0
1642.17899997,555.0
1642.17999997,516.0
1642.18099997,503.0
1642.18199997,517.0
1642.18299997,513.0
1642.18399997,539.0
1642.18499997,627.0
1642.18599997,707.0
1642.18699997,595.0
1642.18799997,520.0
1642.18899997,488.0
1642.18999997,501.0
1642.19099997,492.0
1642.19199997,521.0
1642.19299997,644.0
1642.19399997,685.0
1642.19499997,566.0
1642.19599997,493.0
1642.19699997,476.0
1642.19799997,488.0
1642.19899997,485.0
1642.19999997,508.0
1642.20099997,632.0
1642.20199997,648.0
1642.20299997,537.0
1642.20399997,471.0
1642.20499997,474.0
1642.20599997,477.0
1642.20699997,474.0
1642.20799997,467.0
1642.20899997,512.0
1642.20999997,517.0
1642.21099997,479.0
1642.21199997,471.0
1642.21299997,488.0
1642.21399997,488.0
1642.21499997,479.0
1642.21599997,473.0
1642.21699997,498.0
1642.21799997,507.0
1642.21899997,482.0
1642.21999997,481.0
1642.22099997,496.0
1642.22199997,496.0
1642.22299997,485.0
1642.22399997,477.0
1642.22499997,489.0
1642.22599997,502.0
1642.22699997,485.0
1642.22799997,492.0
1642.22899997,505.0
1642.22999997,504.0
1642.23099997,498.0
1642.23199997,485.0
