76.955,500.0
76.956,507.0
76.957,513.0
76.958,525.0
76.959,525.0
76.96,525.0
76.961,516.0
76.962,502.0
76.963,500.0
76.964,507.0
76.965,513.0
76.966,525.0
76.967,523.0
76.968,524.0
76.969,516.0
76.97,501.0
76.971,501.0
76.972,506.0
76.973,516.0
76.974,524.0
76.975,525.0
76.976,522.0
76.977,514.0
76.978,501.0
76.979,503.0
76.98,505.0
76.981,519.0
76.982,523.0
76.983,524.0
76.984,521.0
76.985,510.0
76.986,499.0
76.987,503.0
76.988,509.0
76.989,520.0
76.99,521.0
76.991,523.0
76.992,518.0
76.993,506.0
76.994,497.0
76.995,502.0
76.996,509.0
76.997,521.0
76.998,520.0
76.999,524.0
77.0,516.0
77.001,502.0
77.002,497.0
77.003,504.0
77.004,511.0
77.005,523.0
77.006,521.0
77.007,524.0
77.008,515.0
77.009,502.0
77.01,498.0
77.011,505.0
77.012,515.0
77.013,524.0
77.014,519.0
77.015,521.0
77.016,510.0
77.017,499.0
77.018,499.0
77.019,504.0
77.02,517.0
77.021,525.0
77.022,518.0
77.023,520.0
77.024,507.0
77.025,499.0
77.026,495.0
77.027,505.0
77.028,518.0
77.029,527.0
77.03,528.0
77.031,514.0
77.032,502.0
77.033,499.0
77.034,502.0
77.035,506.0
77.036,520.0
77.037,527.0
77.038,517.0
77.039,512.0
77.04,503.0
77.041,505.0
77.042,503.0
77.043,507.0
77.044,522.0
77.045,528.0
77.046,519.0
77.047,506.0
77.048,503.0
77.049,509.0
77.05,502.0
77.051,509.0
77.052,526.0
77.053,529.0
77.054,514.0
77.055,504.0
77.056,513.0
77.057,514.0
77.058,504.0
77.059,512.0
77.06,529.0
77.061,528.0
77.062,522.0
77.063,508.0
77.064,507.0
77.065,505.0
77.066,503.0
77.067,520.0
77.068,530.0
77.069,528.0
77.07,521.0
77.071,505.0
77.072,506.0
77.073,506.0
77.074,506.0
77.075,523.0
77.076,531.0
77.077,530.0
77.078,524.0
77.079,511.0
77.08,506.0
77.081,508.0
77.082,514.0
77.083,528.0
77.084,523.0
77.085,528.0
77.086,523.0
77.087,512.0
77.088,509.0
77.089,509.0
77.09,519.0
77.091,528.0
77.092,527.0
77.093,525.0
77.094,519.0
77.095,506.0
77.096,506.0
77.097,508.0
77.098,518.0
77.099,528.0
77.1,526.0
77.101,523.0
77.102,516.0
77.103,506.0
77.104,508.0
77.105,510.0
77.106,521.0
77.107,525.0
77.108,525.0
77.109,521.0
77.11,512.0
77.111,504.0
77.112,506.0
77.113,511.0
77.114,522.0
77.115,521.0
77.116,526.0
77.117,518.0
77.118,508.0
77.119,502.0
77.12,505.0
77.121,513.0
77.122,520.0
77.123,517.0
77.124,525.0
77.125,515.0
77.126,506.0
77.127,501.0
77.128,504.0
77.129,515.0
77.13,517.0
77.131,518.0
77.132,522.0
77.133,511.0
77.134,501.0
77.135,500.0
77.136,506.0
77.137,516.0
77.138,516.0
77.139,522.0
77.14,524.0
77.141,511.0
77.142,501.0
77.143,503.0
77.144,508.0
77.145,521.0
77.146,517.0
77.147,520.0
77.148,520.0
77.149,509.0
77.15,501.0
77.151,504.0
77.152,511.0
77.153,524.0
77.154,520.0
77.155,519.0
77.156,519.0
77.157,508.0
77.158,502.0
77.159,505.0
77.16,508.0
77.161,525.0
77.162,523.0
77.163,520.0
77.164,514.0
77.165,506.0
77.166,508.0
77.167,504.0
77.168,513.0
77.169,527.0
77.17,521.0
77.171,517.0
77.172,509.0
77.173,512.0
77.174,504.0
77.175,503.0
77.176,514.0
77.177,528.0
77.178,516.0
77.179,504.0
77.18,512.0
77.181,556.0
77.182,518.0
77.183,502.0
77.184,510.0
77.185,527.0
77.186,511.0
77.187,501.0
77.188,524.0
77.189,566.0
77.19,518.0
77.191,501.0
77.192,510.0
77.193,526.0
77.194,506.0
77.195,499.0
77.196,544.0
77.197,582.0
77.198,521.0
77.199,499.0
77.2,513.0
77.201,521.0
77.202,510.0
77.203,500.0
77.204,508.0
77.205,523.0
77.206,501.0
77.207,504.0
77.208,522.0
77.209,523.0
77.21,509.0
77.211,499.0
77.212,505.0
77.213,516.0
77.214,500.0
77.215,509.0
77.216,525.0
77.217,524.0
77.218,513.0
77.219,500.0
77.22,502.0
77.221,510.0
77.222,501.0
77.223,515.0
77.224,527.0
77.225,524.0
77.226,524.0
77.227,510.0
77.228,504.0
77.229,506.0
77.23,512.0
77.231,522.0
77.232,527.0
77.233,527.0
77.234,520.0
77.235,507.0
77.236,504.0
77.237,506.0
77.238,514.0
77.239,520.0
77.24,525.0
77.241,527.0
77.242,520.0
77.243,507.0
77.244,505.0
77.245,508.0
77.246,517.0
77.247,527.0
77.248,526.0
77.249,523.0
77.25,512.0
77.251,504.0
77.252,503.0
77.253,508.0
77.254,518.0
77.255,526.0
77.256,525.0
77.257,522.0
77.258,513.0
77.259,503.0
77.26,504.0
77.261,508.0
77.262,521.0
77.263,524.0
77.264,525.0
77.265,521.0
77.266,510.0
77.267,503.0
77.268,505.0
77.269,511.0
77.27,521.0
77.271,524.0
77.272,522.0
77.273,518.0
77.274,504.0
77.275,499.0
77.276,505.0
77.277,510.0
77.278,522.0
77.279,522.0
77.28,525.0
77.281,514.0
77.282,501.0
77.283,498.0
77.284,503.0
77.285,512.0
77.286,522.0
77.287,520.0
77.288,523.0
77.289,514.0
77.29,501.0
77.291,500.0
77.292,509.0
77.293,516.0
77.294,522.0
77.295,518.0
77.296,522.0
77.297,505.0
77.298,499.0
77.299,500.0
77.3,505.0
77.301,517.0
77.302,525.0
77.303,520.0
77.304,520.0
77.305,507.0
77.306,499.0
77.307,500.0
77.308,507.0
77.309,521.0
77.31,525.0
77.311,516.0
77.312,516.0
77.313,503.0
77.314,497.0
77.315,500.0
77.316,508.0
77.317,523.0
77.318,525.0
77.319,515.0
77.32,511.0
77.321,501.0
77.322,499.0
77.323,498.0
77.324,509.0
77.325,525.0
77.326,524.0
77.327,514.0
77.328,505.0
77.329,503.0
77.33,501.0
77.331,501.0
77.332,511.0
77.333,527.0
77.334,523.0
77.335,512.0
77.336,502.0
77.337,509.0
77.338,504.0
77.339,503.0
77.34,513.0
77.341,529.0
77.342,524.0
77.343,512.0
77.344,495.0
77.345,518.0
77.346,509.0
77.347,505.0
77.348,516.0
77.349,528.0
77.35,524.0
77.351,512.0
77.352,503.0
77.353,507.0
77.354,504.0
77.355,504.0
77.356,523.0
77.357,532.0
77.358,526.0
77.359,519.0
77.36,506.0
77.361,504.0
77.362,505.0
77.363,512.0
77.364,528.0
77.365,527.0
77.366,523.0
77.367,515.0
77.368,502.0
77.369,505.0
77.37,503.0
77.371,515.0
77.372,532.0
77.373,529.0
77.374,528.0
77.375,519.0
77.376,508.0
77.377,508.0
77.378,511.0
77.379,521.0
77.38,530.0
77.381,528.0
77.382,526.0
77.383,516.0
77.384,508.0
77.385,509.0
77.386,513.0
77.387,525.0
77.388,530.0
77.389,526.0
77.39,523.0
77.391,512.0
77.392,504.0
77.393,508.0
77.394,513.0
77.395,522.0
77.396,526.0
77.397,526.0
77.398,519.0
77.399,510.0
77.4,505.0
77.401,507.0
77.402,516.0
77.403,521.0
77.404,524.0
77.405,525.0
77.406,516.0
77.407,507.0
77.408,505.0
77.409,507.0
77.41,516.0
77.411,519.0
77.412,524.0
77.413,525.0
77.414,517.0
77.415,508.0
77.416,506.0
77.417,510.0
77.418,520.0
77.419,517.0
77.42,522.0
77.421,520.0
77.422,510.0
77.423,503.0
77.424,504.0
77.425,509.0
77.426,521.0
77.427,516.0
77.428,523.0
77.429,515.0
77.43,504.0
77.431,501.0
77.432,503.0
77.433,511.0
77.434,520.0
77.435,513.0
77.436,522.0
77.437,518.0
77.438,504.0
77.439,503.0
77.44,505.0
77.441,515.0
77.442,526.0
77.443,518.0
77.444,524.0
77.445,516.0
77.446,502.0
77.447,504.0
77.448,504.0
77.449,516.0
77.45,525.0
77.451,514.0
77.452,521.0
77.453,510.0
77.454,502.0
77.455,502.0
77.456,505.0
77.457,515.0
77.458,527.0
77.459,517.0
77.46,520.0
77.461,510.0
77.462,501.0
77.463,502.0
77.464,507.0
77.465,520.0
77.466,531.0
77.467,510.0
77.468,507.0
77.469,511.0
77.47,513.0
77.471,503.0
77.472,501.0
77.473,519.0
77.474,527.0
77.475,509.0
77.476,502.0
77.477,528.0
77.478,539.0
77.479,509.0
77.48,503.0
77.481,520.0
77.482,526.0
77.483,507.0
77.484,503.0
77.485,556.0
77.486,560.0
77.487,517.0
77.488,500.0
77.489,520.0
77.49,520.0
77.491,503.0
77.492,503.0
77.493,545.0
77.494,538.0
77.495,504.0
77.496,503.0
77.497,522.0
77.498,523.0
77.499,507.0
77.5,497.0
77.501,513.0
77.502,511.0
77.503,500.0
77.504,513.0
77.505,524.0
77.506,524.0
77.507,504.0
77.508,500.0
77.509,515.0
77.51,514.0
77.511,504.0
77.512,519.0
77.513,523.0
77.514,525.0
77.515,514.0
77.516,501.0
77.517,504.0
77.518,505.0
77.519,514.0
77.52,526.0
77.521,525.0
77.522,526.0
77.523,516.0
77.524,505.0
77.525,506.0
77.526,508.0
77.527,518.0
77.528,528.0
77.529,525.0
77.53,524.0
77.531,512.0
77.532,503.0
77.533,506.0
77.534,507.0
77.535,521.0
77.536,528.0
77.537,526.0
77.538,525.0
77.539,512.0
77.54,503.0
77.541,506.0
77.542,511.0
77.543,523.0
77.544,527.0
77.545,526.0
77.546,522.0
77.547,507.0
77.548,503.0
77.549,506.0
77.55,512.0
77.551,525.0
77.552,527.0
77.553,526.0
77.554,521.0
77.555,507.0
77.556,506.0
77.557,508.0
77.558,514.0
77.559,524.0
77.56,525.0
77.561,525.0
77.562,518.0
77.563,505.0
77.564,502.0
77.565,508.0
77.566,516.0
77.567,524.0
77.568,524.0
77.569,523.0
77.57,513.0
77.571,500.0
77.572,503.0
77.573,509.0
77.574,517.0
77.575,524.0
77.576,523.0
77.577,521.0
77.578,512.0
77.579,501.0
77.58,503.0
77.581,510.0
77.582,519.0
77.583,522.0
77.584,523.0
77.585,520.0
77.586,506.0
77.587,498.0
77.588,502.0
77.589,511.0
77.59,521.0
77.591,523.0
77.592,524.0
77.593,517.0
77.594,504.0
77.595,498.0
77.596,503.0
77.597,511.0
77.598,525.0
77.599,522.0
77.6,521.0
77.601,515.0
77.602,504.0
77.603,498.0
77.604,503.0
77.605,515.0
77.606,523.0
77.607,520.0
77.608,519.0
77.609,509.0
77.61,502.0
77.611,497.0
77.612,501.0
77.613,513.0
77.614,525.0
77.615,520.0
77.616,515.0
77.617,503.0
77.618,500.0
77.619,501.0
77.62,503.0
77.621,517.0
77.622,527.0
77.623,518.0
77.624,512.0
77.625,506.0
77.626,507.0
77.627,504.0
77.628,504.0
77.629,518.0
77.63,527.0
77.631,522.0
77.632,508.0
77.633,507.0
77.634,507.0
77.635,504.0
77.636,510.0
77.637,525.0
77.638,528.0
77.639,517.0
77.64,507.0
77.641,510.0
77.642,516.0
77.643,506.0
77.644,508.0
77.645,525.0
77.646,527.0
77.647,522.0
77.648,511.0
77.649,505.0
77.65,509.0
77.651,502.0
77.652,513.0
77.653,528.0
77.654,528.0
77.655,521.0
77.656,509.0
77.657,504.0
77.658,506.0
77.659,505.0
77.66,519.0
77.661,531.0
77.662,529.0
77.663,527.0
77.664,513.0
77.665,506.0
77.666,509.0
77.667,511.0
77.668,525.0
77.669,529.0
77.67,528.0
77.671,525.0
77.672,513.0
77.673,505.0
77.674,509.0
77.675,514.0
77.676,526.0
77.677,527.0
77.678,527.0
77.679,522.0
77.68,511.0
77.681,506.0
77.682,509.0
77.683,518.0
77.684,526.0
77.685,526.0
77.686,526.0
77.687,518.0
77.688,508.0
77.689,507.0
77.69,510.0
77.691,517.0
77.692,523.0
77.693,526.0
77.694,524.0
77.695,515.0
77.696,504.0
77.697,506.0
77.698,510.0
77.699,521.0
77.7,522.0
77.701,525.0
77.702,522.0
77.703,507.0
77.704,505.0
77.705,505.0
77.706,510.0
77.707,520.0
77.708,515.0
77.709,520.0
77.71,517.0
77.711,505.0
77.712,500.0
77.713,504.0
77.714,512.0
77.715,520.0
77.716,513.0
77.717,524.0
77.718,516.0
77.719,505.0
77.72,505.0
77.721,506.0
77.722,514.0
77.723,519.0
77.724,516.0
77.725,523.0
77.726,513.0
77.727,502.0
77.728,503.0
77.729,507.0
77.73,517.0
77.731,522.0
77.732,516.0
77.733,519.0
77.734,512.0
77.735,502.0
77.736,504.0
77.737,508.0
77.738,519.0
77.739,520.0
77.74,513.0
77.741,517.0
77.742,509.0
77.743,501.0
77.744,502.0
77.745,509.0
77.746,522.0
77.747,524.0
77.748,513.0
77.749,514.0
77.75,509.0
77.751,502.0
77.752,504.0
77.753,510.0
77.754,523.0
77.755,528.0
77.756,516.0
77.757,511.0
77.758,510.0
77.759,505.0
77.76,504.0
77.761,513.0
77.762,526.0
77.763,523.0
77.764,508.0
77.765,506.0
77.766,547.0
77.767,523.0
77.768,507.0
77.769,509.0
77.77,526.0
77.771,516.0
77.772,504.0
77.773,520.0
77.774,576.0
77.775,543.0
77.776,506.0
77.777,506.0
77.778,526.0
77.779,511.0
77.78,500.0
77.781,529.0
77.782,572.0
77.783,531.0
77.784,499.0
77.785,506.0
77.786,521.0
77.787,514.0
77.788,498.0
77.789,510.0
77.79,537.0
77.791,511.0
77.792,498.0
77.793,516.0
77.794,522.0
77.795,516.0
77.796,504.0
77.797,500.0
77.798,511.0
77.799,502.0
77.8,505.0
77.801,522.0
77.802,523.0
77.803,516.0
77.804,505.0
77.805,500.0
77.806,506.0
77.807,500.0
77.808,512.0
77.809,525.0
77.81,524.0
77.811,524.0
77.812,513.0
77.813,502.0
77.814,506.0
77.815,510.0
77.816,523.0
77.817,528.0
77.818,525.0
77.819,523.0
77.82,511.0
77.821,502.0
77.822,505.0
77.823,511.0
77.824,524.0
77.825,525.0
77.826,526.0
77.827,522.0
77.828,509.0
77.829,503.0
77.83,508.0
77.831,512.0
77.832,524.0
77.833,524.0
77.834,523.0
77.835,517.0
77.836,504.0
77.837,501.0
77.838,506.0
77.839,514.0
77.84,523.0
77.841,525.0
77.842,523.0
77.843,514.0
77.844,501.0
77.845,501.0
77.846,506.0
77.847,515.0
77.848,522.0
77.849,524.0
77.85,521.0
77.851,512.0
77.852,501.0
77.853,503.0
77.854,509.0
77.855,518.0
77.856,522.0
77.857,523.0
77.858,520.0
77.859,508.0
77.86,499.0
77.861,503.0
77.862,507.0
77.863,521.0
77.864,521.0
77.865,524.0
77.866,515.0
77.867,505.0
77.868,499.0
77.869,502.0
77.87,514.0
77.871,520.0
77.872,521.0
77.873,525.0
77.874,515.0
77.875,501.0
77.876,498.0
77.877,502.0
77.878,513.0
77.879,523.0
77.88,520.0
77.881,523.0
77.882,513.0
77.883,501.0
77.884,497.0
77.885,502.0
77.886,515.0
77.887,527.0
77.888,521.0
77.889,523.0
77.89,513.0
77.891,501.0
77.892,499.0
77.893,506.0
77.894,518.0
77.895,525.0
77.896,514.0
77.897,517.0
77.898,504.0
77.899,497.0
77.9,498.0
77.901,506.0
77.902,516.0
77.903,530.0
77.904,515.0
77.905,512.0
77.906,504.0
77.907,500.0
77.908,499.0
77.909,503.0
77.91,521.0
77.911,525.0
77.912,515.0
77.913,508.0
77.914,504.0
77.915,503.0
77.916,502.0
77.917,507.0
77.918,523.0
77.919,525.0
77.92,514.0
77.921,506.0
77.922,506.0
77.923,507.0
77.924,502.0
77.925,508.0
77.926,525.0
77.927,525.0
77.928,513.0
77.929,504.0
77.93,510.0
77.931,509.0
77.932,505.0
77.933,513.0
77.934,536.0
77.935,526.0
77.936,514.0
77.937,503.0
77.938,510.0
77.939,507.0
77.94,502.0
77.941,516.0
77.942,528.0
77.943,527.0
77.944,520.0
77.945,506.0
77.946,503.0
77.947,504.0
77.948,509.0
77.949,523.0
77.95,529.0
77.951,529.0
77.952,518.0
77.953,505.0
77.954,504.0
77.955,505.0
77.956,510.0
77.957,527.0
77.958,528.0
77.959,530.0
77.96,523.0
77.961,508.0
77.962,506.0
77.963,509.0
77.964,517.0
77.965,528.0
77.966,525.0
77.967,524.0
77.968,519.0
77.969,508.0
77.97,506.0
77.971,509.0
77.972,520.0
77.973,529.0
77.974,524.0
77.975,523.0
77.976,515.0
77.977,505.0
77.978,507.0
77.979,510.0
77.98,521.0
77.981,524.0
77.982,521.0
77.983,520.0
77.984,511.0
77.985,504.0
77.986,506.0
77.987,512.0
77.988,521.0
77.989,521.0
77.99,524.0
77.991,515.0
77.992,507.0
77.993,501.0
77.994,504.0
77.995,513.0
77.996,519.0
77.997,518.0
77.998,523.0
77.999,513.0
78.0,505.0
78.001,501.0
78.002,505.0
78.003,513.0
78.004,513.0
78.005,517.0
78.006,521.0
78.007,512.0
78.008,502.0
78.009,502.0
78.01,504.0
78.011,516.0
78.012,515.0
78.013,520.0
78.014,521.0
78.015,508.0
78.016,500.0
78.017,502.0
78.018,506.0
78.019,519.0
78.02,513.0
78.021,517.0
78.022,518.0
78.023,506.0
78.024,501.0
78.025,502.0
78.026,512.0
78.027,522.0
78.028,520.0
78.029,519.0
78.03,516.0
78.031,505.0
78.032,501.0
78.033,503.0
78.034,510.0
78.035,524.0
78.036,517.0
78.037,521.0
78.038,511.0
78.039,506.0
78.04,497.0
78.041,503.0
78.042,516.0
78.043,527.0
78.044,520.0
78.045,518.0
78.046,512.0
78.047,506.0
78.048,503.0
78.049,505.0
78.05,516.0
78.051,530.0
78.052,515.0
78.053,511.0
78.054,507.0
78.055,516.0
78.056,503.0
78.057,503.0
78.058,514.0
78.059,528.0
78.06,509.0
78.061,502.0
78.062,529.0
78.063,558.0
78.064,516.0
78.065,502.0
78.066,512.0
78.067,527.0
78.068,509.0
78.069,502.0
78.07,524.0
78.071,554.0
78.072,510.0
78.073,501.0
78.074,517.0
78.075,521.0
78.076,505.0
78.077,500.0
78.078,535.0
78.079,557.0
78.08,510.0
78.081,502.0
78.082,519.0
78.083,522.0
78.084,513.0
78.085,501.0
78.086,504.0
78.087,518.0
78.088,501.0
78.089,509.0
78.09,526.0
78.091,523.0
78.092,510.0
78.093,499.0
78.094,505.0
78.095,510.0
78.096,503.0
78.097,515.0
78.098,527.0
78.099,527.0
78.1,520.0
78.101,506.0
78.102,503.0
78.103,505.0
78.104,509.0
78.105,523.0
78.106,527.0
78.107,527.0
78.108,521.0
78.109,509.0
78.11,504.0
78.111,506.0
78.112,517.0
78.113,526.0
78.114,524.0
78.115,527.0
78.116,519.0
78.117,505.0
78.118,505.0
78.119,509.0
78.12,518.0
78.121,527.0
78.122,526.0
78.123,524.0
78.124,517.0
78.125,506.0
78.126,505.0
78.127,509.0
78.128,521.0
78.129,526.0
78.13,524.0
78.131,522.0
78.132,513.0
78.133,503.0
78.134,507.0
78.135,510.0
78.136,521.0
78.137,525.0
78.138,525.0
78.139,521.0
78.14,509.0
78.141,502.0
78.142,505.0
78.143,511.0
78.144,522.0
78.145,523.0
78.146,524.0
78.147,519.0
78.148,506.0
78.149,500.0
78.15,506.0
78.151,511.0
78.152,521.0
78.153,521.0
78.154,525.0
78.155,516.0
78.156,502.0
78.157,500.0
78.158,505.0
78.159,514.0
78.16,523.0
78.161,521.0
78.162,523.0
78.163,512.0
78.164,504.0
78.165,500.0
78.166,506.0
78.167,516.0
78.168,524.0
78.169,520.0
78.17,522.0
78.171,511.0
78.172,500.0
78.173,503.0
78.174,506.0
78.175,519.0
78.176,525.0
78.177,518.0
78.178,523.0
78.179,508.0
78.18,500.0
78.181,504.0
78.182,509.0
78.183,519.0
78.184,525.0
78.185,517.0
78.186,516.0
78.187,503.0
78.188,496.0
78.189,500.0
78.19,510.0
78.191,521.0
78.192,522.0
78.193,517.0
78.194,510.0
78.195,501.0
78.196,497.0
78.197,501.0
78.198,509.0
78.199,524.0
78.2,522.0
78.201,520.0
78.202,505.0
78.203,502.0
78.204,500.0
78.205,501.0
78.206,513.0
78.207,525.0
78.208,517.0
78.209,509.0
78.21,502.0
78.211,512.0
78.212,506.0
78.213,502.0
78.214,512.0
78.215,526.0
78.216,522.0
78.217,508.0
78.218,504.0
78.219,520.0
78.22,509.0
78.221,504.0
78.222,515.0
78.223,528.0
78.224,522.0
78.225,510.0
78.226,503.0
78.227,519.0
78.228,507.0
78.229,505.0
78.23,520.0
78.231,524.0
78.232,523.0
78.233,517.0
78.234,502.0
78.235,506.0
78.236,503.0
78.237,510.0
78.238,527.0
78.239,527.0
78.24,524.0
78.241,516.0
78.242,504.0
78.243,505.0
78.244,506.0
78.245,516.0
78.246,526.0
78.247,528.0
78.248,531.0
78.249,518.0
78.25,507.0
78.251,508.0
78.252,509.0
78.253,521.0
78.254,529.0
78.255,528.0
78.256,526.0
78.257,516.0
78.258,508.0
78.259,509.0
78.26,512.0
78.261,524.0
78.262,528.0
78.263,527.0
78.264,523.0
78.265,512.0
78.266,506.0
78.267,509.0
78.268,514.0
78.269,523.0
78.27,524.0
78.271,525.0
78.272,519.0
78.273,510.0
78.274,508.0
78.275,508.0
78.276,516.0
78.277,520.0
78.278,523.0
78.279,524.0
78.28,515.0
78.281,506.0
78.282,503.0
78.283,506.0
78.284,514.0
78.285,515.0
78.286,521.0
78.287,523.0
78.288,512.0
78.289,504.0
78.29,503.0
78.291,508.0
78.292,519.0
78.293,513.0
78.294,522.0
78.295,521.0
78.296,508.0
78.297,504.0
78.298,505.0
78.299,509.0
78.3,522.0
78.301,512.0
78.302,522.0
78.303,517.0
78.304,504.0
78.305,498.0
78.306,503.0
78.307,511.0
78.308,520.0
78.309,512.0
78.31,522.0
78.311,515.0
78.312,502.0
78.313,501.0
78.314,501.0
78.315,512.0
78.316,521.0
78.317,510.0
78.318,522.0
78.319,508.0
78.32,502.0
78.321,501.0
78.322,505.0
78.323,513.0
78.324,525.0
78.325,517.0
78.326,522.0
78.327,508.0
78.328,501.0
78.329,503.0
78.33,506.0
78.331,518.0
78.332,525.0
78.333,513.0
78.334,518.0
78.335,508.0
78.336,502.0
78.337,502.0
78.338,505.0
78.339,519.0
78.34,529.0
78.341,513.0
78.342,508.0
78.343,507.0
78.344,508.0
78.345,505.0
78.346,507.0
78.347,520.0
78.348,525.0
78.349,506.0
78.35,503.0
78.351,528.0
78.352,538.0
78.353,507.0
78.354,503.0
78.355,521.0
78.356,524.0
78.357,504.0
78.358,505.0
78.359,550.0
78.36,553.0
78.361,510.0
78.362,502.0
78.363,520.0
78.364,524.0
78.365,506.0
78.366,501.0
78.367,523.0
78.368,524.0
78.369,501.0
78.37,507.0
78.371,525.0
78.372,523.0
78.373,504.0
78.374,502.0
78.375,517.0
78.376,513.0
78.377,501.0
78.378,513.0
78.379,526.0
78.38,527.0
78.381,513.0
78.382,501.0
78.383,504.0
78.384,504.0
78.385,508.0
78.386,522.0
78.387,533.0
78.388,526.0
78.389,507.0
78.39,498.0
78.391,504.0
78.392,505.0
78.393,509.0
78.394,526.0
78.395,526.0
78.396,527.0
78.397,519.0
78.398,508.0
78.399,509.0
78.4,510.0
78.401,520.0
78.402,528.0
78.403,525.0
78.404,526.0
78.405,516.0
78.406,506.0
78.407,509.0
78.408,509.0
78.409,521.0
78.41,528.0
78.411,525.0
78.412,523.0
78.413,511.0
78.414,503.0
78.415,508.0
78.416,511.0
78.417,523.0
78.418,527.0
78.419,527.0
78.42,520.0
78.421,506.0
78.422,502.0
78.423,507.0
78.424,512.0
78.425,524.0
78.426,524.0
78.427,525.0
78.428,519.0
78.429,505.0
78.43,504.0
78.431,509.0
78.432,512.0
78.433,525.0
78.434,523.0
78.435,524.0
78.436,515.0
78.437,502.0
78.438,501.0
78.439,506.0
78.44,515.0
78.441,523.0
78.442,521.0
78.443,523.0
78.444,514.0
78.445,501.0
78.446,503.0
78.447,509.0
78.448,516.0
78.449,522.0
78.45,523.0
78.451,521.0
78.452,510.0
78.453,499.0
78.454,509.0
78.455,509.0
78.456,518.0
78.457,522.0
78.458,526.0
78.459,519.0
78.46,508.0
78.461,501.0
78.462,504.0
78.463,512.0
78.464,522.0
78.465,523.0
78.466,523.0
78.467,517.0
78.468,507.0
78.469,498.0
78.47,503.0
78.471,514.0
78.472,524.0
78.473,521.0
78.474,521.0
78.475,507.0
78.476,507.0
78.477,498.0
78.478,503.0
78.479,515.0
78.48,524.0
78.481,516.0
78.482,518.0
78.483,505.0
78.484,501.0
78.485,498.0
78.486,502.0
78.487,515.0
78.488,525.0
78.489,519.0
78.49,512.0
78.491,505.0
78.492,501.0
78.493,500.0
78.494,503.0
78.495,516.0
78.496,527.0
78.497,520.0
78.498,511.0
78.499,504.0
78.5,505.0
78.501,502.0
78.502,505.0
78.503,520.0
78.504,527.0
78.505,513.0
78.506,505.0
78.507,511.0
78.508,517.0
78.509,508.0
78.51,505.0
78.511,522.0
78.512,526.0
78.513,518.0
78.514,509.0
78.515,506.0
78.516,510.0
78.517,504.0
78.518,508.0
78.519,527.0
78.52,528.0
78.521,517.0
78.522,510.0
78.523,505.0
78.524,507.0
78.525,503.0
78.526,515.0
78.527,528.0
78.528,529.0
78.529,525.0
78.53,513.0
78.531,504.0
78.532,506.0
78.533,506.0
78.534,520.0
78.535,530.0
78.536,527.0
78.537,524.0
78.538,511.0
78.539,505.0
78.54,507.0
78.541,511.0
78.542,524.0
78.543,528.0
78.544,527.0
78.545,523.0
78.546,512.0
78.547,507.0
78.548,509.0
78.549,516.0
78.55,527.0
78.551,526.0
78.552,527.0
78.553,520.0
78.554,509.0
78.555,506.0
78.556,509.0
78.557,517.0
78.558,525.0
78.559,525.0
78.56,523.0
78.561,516.0
78.562,505.0
78.563,506.0
78.564,508.0
78.565,518.0
78.566,523.0
78.567,525.0
78.568,521.0
78.569,512.0
78.57,502.0
78.571,503.0
78.572,509.0
78.573,519.0
78.574,519.0
78.575,523.0
78.576,521.0
78.577,510.0
78.578,504.0
78.579,505.0
78.58,512.0
78.581,520.0
78.582,515.0
78.583,522.0
78.584,515.0
78.585,505.0
78.586,501.0
78.587,505.0
78.588,511.0
78.589,518.0
78.59,512.0
78.591,524.0
78.592,516.0
78.593,506.0
78.594,504.0
78.595,505.0
78.596,516.0
78.597,520.0
78.598,518.0
78.599,522.0
78.6,518.0
78.601,503.0
78.602,504.0
78.603,506.0
78.604,516.0
78.605,515.0
78.606,511.0
78.607,521.0
78.608,509.0
78.609,500.0
78.61,502.0
78.611,506.0
78.612,519.0
78.613,523.0
78.614,514.0
78.615,520.0
78.616,509.0
78.617,500.0
78.618,503.0
78.619,510.0
78.62,521.0
78.621,524.0
78.622,514.0
78.623,516.0
78.624,507.0
78.625,501.0
78.626,503.0
78.627,510.0
78.628,524.0
78.629,525.0
78.63,515.0
78.631,509.0
78.632,509.0
78.633,504.0
78.634,502.0
78.635,511.0
78.636,527.0
78.637,524.0
78.638,508.0
78.639,504.0
78.64,526.0
78.641,512.0
78.642,500.0
78.643,510.0
78.644,526.0
78.645,512.0
78.646,505.0
78.647,521.0
78.648,578.0
78.649,540.0
78.65,504.0
78.651,506.0
78.652,523.0
78.653,515.0
78.654,503.0
78.655,515.0
78.656,546.0
78.657,518.0
78.658,500.0
78.659,512.0
78.66,524.0
78.661,515.0
78.662,501.0
78.663,513.0
78.664,535.0
78.665,510.0
78.666,500.0
78.667,518.0
78.668,522.0
78.669,515.0
78.67,503.0
78.671,502.0
78.672,516.0
78.673,503.0
78.674,507.0
78.675,524.0
78.676,524.0
78.677,521.0
78.678,507.0
78.679,500.0
78.68,506.0
78.681,504.0
78.682,514.0
78.683,528.0
78.684,526.0
78.685,524.0
78.686,511.0
78.687,503.0
78.688,506.0
78.689,509.0
78.69,521.0
78.691,528.0
78.692,527.0
78.693,524.0
78.694,511.0
78.695,505.0
78.696,510.0
78.697,512.0
78.698,524.0
78.699,527.0
78.7,526.0
78.701,519.0
78.702,510.0
78.703,503.0
78.704,508.0
78.705,515.0
78.706,524.0
78.707,525.0
78.708,525.0
78.709,519.0
78.71,507.0
78.711,503.0
78.712,508.0
78.713,516.0
78.714,524.0
78.715,525.0
78.716,524.0
78.717,516.0
78.718,505.0
78.719,503.0
78.72,508.0
78.721,518.0
78.722,524.0
78.723,524.0
78.724,522.0
78.725,511.0
78.726,502.0
78.727,504.0
78.728,509.0
78.729,520.0
78.73,523.0
78.731,527.0
78.732,521.0
78.733,509.0
78.734,500.0
78.735,504.0
78.736,509.0
78.737,521.0
78.738,520.0
78.739,523.0
78.74,519.0
78.741,507.0
78.742,500.0
78.743,505.0
78.744,511.0
78.745,520.0
78.746,520.0
78.747,524.0
78.748,517.0
78.749,503.0
78.75,501.0
78.751,504.0
78.752,514.0
78.753,522.0
78.754,521.0
78.755,525.0
78.756,515.0
78.757,502.0
78.758,500.0
78.759,506.0
78.76,513.0
78.761,524.0
78.762,516.0
78.763,521.0
78.764,510.0
78.765,500.0
78.766,500.0
78.767,504.0
78.768,516.0
78.769,525.0
78.77,515.0
78.771,516.0
78.772,503.0
78.773,497.0
78.774,498.0
78.775,505.0
78.776,519.0
78.777,525.0
78.778,514.0
78.779,512.0
78.78,501.0
78.781,498.0
78.782,498.0
78.783,505.0
78.784,521.0
78.785,525.0
78.786,516.0
78.787,509.0
78.788,503.0
78.789,503.0
78.79,500.0
78.791,508.0
78.792,522.0
78.793,522.0
78.794,513.0
78.795,503.0
78.796,508.0
78.797,509.0
78.798,502.0
78.799,509.0
78.8,525.0
78.801,525.0
78.802,511.0
78.803,503.0
78.804,516.0
78.805,511.0
78.806,500.0
78.807,510.0
78.808,526.0
78.809,526.0
78.81,519.0
78.811,505.0
78.812,505.0
78.813,504.0
78.814,504.0
78.815,517.0
78.816,528.0
78.817,527.0
78.818,516.0
78.819,504.0
78.82,504.0
78.821,505.0
78.822,506.0
78.823,524.0
78.824,528.0
78.825,528.0
78.826,522.0
78.827,509.0
78.828,504.0
78.829,507.0
78.83,514.0
78.831,528.0
78.832,527.0
78.833,528.0
78.834,525.0
78.835,510.0
78.836,507.0
78.837,509.0
78.838,518.0
78.839,529.0
78.84,529.0
78.841,527.0
78.842,520.0
78.843,509.0
78.844,508.0
78.845,511.0
78.846,521.0
78.847,528.0
78.848,524.0
78.849,522.0
78.85,516.0
78.851,506.0
78.852,507.0
78.853,511.0
78.854,523.0
78.855,523.0
78.856,526.0
78.857,520.0
78.858,513.0
78.859,505.0
78.86,507.0
78.861,514.0
78.862,521.0
78.863,521.0
78.864,525.0
78.865,518.0
78.866,509.0
78.867,504.0
78.868,506.0
78.869,514.0
78.87,516.0
78.871,516.0
78.872,521.0
78.873,514.0
78.874,506.0
78.875,502.0
78.876,505.0
78.877,514.0
78.878,515.0
78.879,518.0
78.88,520.0
78.881,511.0
78.882,503.0
78.883,502.0
78.884,507.0
78.885,516.0
78.886,512.0
78.887,521.0
78.888,522.0
78.889,508.0
78.89,509.0
78.891,502.0
78.892,509.0
78.893,519.0
78.894,520.0
78.895,520.0
78.896,521.0
78.897,504.0
78.898,502.0
78.899,503.0
78.9,509.0
78.901,522.0
78.902,515.0
78.903,520.0
78.904,517.0
78.905,505.0
78.906,502.0
78.907,504.0
78.908,512.0
78.909,526.0
78.91,523.0
78.911,522.0
78.912,515.0
78.913,505.0
78.914,502.0
78.915,505.0
78.916,516.0
78.917,527.0
78.918,514.0
78.919,514.0
78.92,508.0
78.921,506.0
78.922,501.0
78.923,502.0
78.924,513.0
78.925,528.0
78.926,514.0
78.927,506.0
78.928,508.0
78.929,529.0
78.93,507.0
78.931,502.0
78.932,512.0
78.933,527.0
78.934,511.0
78.935,503.0
78.936,520.0
78.937,543.0
78.938,511.0
78.939,501.0
78.94,515.0
78.941,525.0
78.942,508.0
78.943,503.0
78.944,550.0
78.945,594.0
78.946,525.0
78.947,498.0
78.948,512.0
78.949,520.0
78.95,508.0
78.951,499.0
78.952,508.0
78.953,522.0
78.954,500.0
78.955,504.0
78.956,521.0
78.957,522.0
78.958,505.0
78.959,497.0
78.96,512.0
78.961,518.0
78.962,500.0
78.963,507.0
78.964,524.0
78.965,526.0
78.966,516.0
78.967,502.0
78.968,501.0
78.969,504.0
78.97,505.0
78.971,517.0
78.972,526.0
78.973,526.0
78.974,517.0
78.975,501.0
78.976,501.0
78.977,505.0
78.978,509.0
78.979,523.0
78.98,525.0
78.981,527.0
78.982,521.0
78.983,509.0
78.984,504.0
78.985,507.0
78.986,516.0
78.987,527.0
78.988,525.0
78.989,527.0
78.99,520.0
78.991,508.0
78.992,504.0
78.993,510.0
78.994,519.0
78.995,526.0
78.996,525.0
78.997,523.0
78.998,514.0
78.999,505.0
79.0,506.0
79.001,510.0
79.002,520.0
79.003,526.0
79.004,525.0
79.005,523.0
79.006,513.0
79.007,504.0
79.008,507.0
79.009,511.0
79.01,521.0
79.011,523.0
79.012,524.0
79.013,521.0
79.014,510.0
79.015,503.0
79.016,506.0
79.017,511.0
79.018,522.0
79.019,523.0
79.02,523.0
79.021,518.0
79.022,506.0
79.023,500.0
79.024,506.0
79.025,513.0
79.026,520.0
79.027,521.0
79.028,522.0
79.029,514.0
79.03,502.0
79.031,500.0
79.032,505.0
79.033,514.0
79.034,521.0
79.035,520.0
79.036,519.0
79.037,512.0
79.038,500.0
79.039,500.0
79.04,504.0
79.041,515.0
79.042,522.0
79.043,521.0
79.044,522.0
79.045,509.0
79.046,497.0
79.047,500.0
79.048,506.0
79.049,517.0
79.05,526.0
79.051,521.0
79.052,513.0
79.053,505.0
79.054,506.0
79.055,507.0
79.056,509.0
79.057,519.0
79.058,524.0
79.059,518.0
79.06,517.0
79.061,503.0
79.062,497.0
79.063,501.0
79.064,510.0
79.065,521.0
79.066,525.0
79.067,518.0
79.068,511.0
79.069,501.0
79.07,497.0
79.071,500.0
79.072,510.0
79.073,525.0
79.074,523.0
79.075,516.0
79.076,507.0
79.077,501.0
79.078,500.0
79.079,500.0
79.08,514.0
79.081,528.0
79.082,523.0
79.083,512.0
79.084,504.0
79.085,505.0
79.086,501.0
79.087,502.0
79.088,516.0
79.089,528.0
79.09,519.0
79.091,506.0
79.092,505.0
79.093,516.0
79.094,509.0
79.095,503.0
79.096,517.0
79.097,522.0
79.098,526.0
79.099,515.0
79.1,502.0
79.101,508.0
79.102,502.0
79.103,506.0
79.104,525.0
79.105,526.0
79.106,522.0
79.107,513.0
79.108,503.0
79.109,506.0
79.11,504.0
79.111,512.0
79.112,528.0
79.113,530.0
79.114,527.0
79.115,516.0
79.116,506.0
79.117,507.0
79.118,508.0
79.119,518.0
79.12,529.0
79.121,526.0
79.122,527.0
79.123,519.0
79.124,508.0
79.125,509.0
79.126,511.0
79.127,522.0
79.128,530.0
79.129,527.0
79.13,523.0
79.131,515.0
79.132,507.0
79.133,508.0
79.134,512.0
79.135,523.0
79.136,527.0
79.137,527.0
79.138,522.0
79.139,512.0
79.14,507.0
79.141,509.0
79.142,515.0
79.143,520.0
79.144,526.0
79.145,525.0
79.146,518.0
79.147,511.0
79.148,505.0
79.149,508.0
79.15,515.0
79.151,518.0
79.152,523.0
79.153,522.0
79.154,514.0
79.155,506.0
79.156,505.0
79.157,506.0
79.158,516.0
79.159,517.0
79.16,521.0
79.161,521.0
79.162,511.0
79.163,503.0
79.164,505.0
79.165,508.0
79.166,518.0
79.167,513.0
79.168,521.0
79.169,519.0
79.17,505.0
79.171,502.0
79.172,504.0
79.173,509.0
79.174,519.0
79.175,512.0
79.176,522.0
79.177,518.0
79.178,507.0
79.179,502.0
79.18,507.0
79.181,512.0
79.182,521.0
79.183,513.0
79.184,522.0
79.185,516.0
79.186,505.0
79.187,503.0
79.188,504.0
79.189,514.0
79.19,521.0
79.191,511.0
79.192,517.0
79.193,511.0
79.194,501.0
79.195,501.0
79.196,504.0
79.197,515.0
79.198,525.0
79.199,513.0
79.2,519.0
79.201,510.0
79.202,500.0
79.203,501.0
79.204,504.0
79.205,517.0
79.206,528.0
79.207,514.0
79.208,517.0
79.209,508.0
79.21,501.0
79.211,504.0
79.212,507.0
79.213,520.0
79.214,525.0
79.215,507.0
79.216,504.0
79.217,517.0
79.218,513.0
79.219,502.0
79.22,503.0
79.221,519.0
79.222,527.0
79.223,507.0
79.224,501.0
79.225,526.0
79.226,527.0
79.227,506.0
79.228,506.0
79.229,521.0
79.23,522.0
79.231,504.0
79.232,507.0
79.233,558.0
79.234,555.0
79.235,511.0
79.236,502.0
79.237,519.0
79.238,519.0
79.239,502.0
79.24,504.0
79.241,540.0
79.242,531.0
79.243,503.0
79.244,504.0
79.245,523.0
79.246,520.0
79.247,503.0
79.248,500.0
79.249,523.0
79.25,516.0
79.251,500.0
79.252,513.0
79.253,524.0
79.254,523.0
79.255,506.0
79.256,498.0
79.257,510.0
79.258,507.0
79.259,505.0
79.26,522.0
79.261,522.0
79.262,526.0
79.263,516.0
79.264,504.0
79.265,505.0
79.266,505.0
79.267,515.0
79.268,526.0
79.269,524.0
79.27,526.0
79.271,517.0
79.272,506.0
79.273,507.0
79.274,508.0
79.275,519.0
79.276,527.0
79.277,526.0
79.278,526.0
79.279,515.0
79.28,505.0
79.281,507.0
79.282,511.0
79.283,522.0
79.284,528.0
79.285,525.0
79.286,522.0
79.287,510.0
79.288,505.0
79.289,505.0
79.29,511.0
79.291,522.0
79.292,525.0
79.293,525.0
79.294,520.0
79.295,510.0
79.296,505.0
79.297,507.0
79.298,514.0
79.299,522.0
79.3,519.0
79.301,523.0
79.302,517.0
79.303,507.0
79.304,504.0
79.305,507.0
79.306,515.0
79.307,522.0
79.308,523.0
79.309,524.0
79.31,516.0
79.311,503.0
79.312,504.0
79.313,506.0
79.314,516.0
79.315,523.0
79.316,523.0
79.317,520.0
79.318,512.0
79.319,502.0
79.32,504.0
79.321,504.0
79.322,517.0
79.323,520.0
79.324,524.0
79.325,520.0
79.326,511.0
79.327,501.0
79.328,504.0
79.329,509.0
79.33,520.0
79.331,520.0
79.332,525.0
79.333,521.0
79.334,506.0
79.335,497.0
79.336,502.0
79.337,510.0
79.338,520.0
79.339,522.0
79.34,521.0
79.341,514.0
79.342,505.0
79.343,499.0
79.344,503.0
79.345,513.0
79.346,524.0
79.347,517.0
79.348,519.0
79.349,511.0
79.35,502.0
79.351,498.0
79.352,501.0
79.353,518.0
79.354,524.0
79.355,515.0
79.356,515.0
79.357,507.0
79.358,499.0
79.359,500.0
79.36,502.0
79.361,514.0
79.362,526.0
79.363,520.0
79.364,514.0
79.365,503.0
79.366,500.0
79.367,500.0
79.368,503.0
79.369,517.0
79.37,527.0
79.371,516.0
79.372,509.0
79.373,504.0
79.374,507.0
79.375,502.0
79.376,504.0
79.377,519.0
79.378,526.0
79.379,518.0
79.38,507.0
79.381,507.0
79.382,509.0
79.383,504.0
79.384,506.0
79.385,522.0
79.386,526.0
79.387,516.0
79.388,506.0
79.389,509.0
79.39,512.0
79.391,504.0
79.392,509.0
79.393,529.0
79.394,528.0
79.395,523.0
79.396,512.0
79.397,504.0
79.398,506.0
79.399,502.0
79.4,516.0
79.401,530.0
79.402,527.0
79.403,519.0
79.404,509.0
79.405,506.0
79.406,505.0
79.407,507.0
79.408,520.0
79.409,529.0
79.41,527.0
79.411,525.0
79.412,513.0
79.413,505.0
79.414,506.0
79.415,513.0
79.416,527.0
79.417,529.0
79.418,527.0
79.419,524.0
79.42,512.0
79.421,506.0
79.422,510.0
79.423,516.0
79.424,528.0
79.425,529.0
79.426,528.0
79.427,522.0
79.428,512.0
79.429,508.0
79.43,511.0
79.431,519.0
79.432,527.0
79.433,526.0
79.434,526.0
79.435,519.0
79.436,510.0
79.437,509.0
79.438,511.0
79.439,520.0
79.44,522.0
79.441,526.0
79.442,522.0
79.443,514.0
79.444,506.0
79.445,507.0
79.446,507.0
79.447,521.0
79.448,520.0
79.449,520.0
79.45,520.0
79.451,511.0
79.452,503.0
79.453,507.0
79.454,513.0
79.455,520.0
79.456,514.0
79.457,523.0
79.458,517.0
79.459,508.0
79.46,502.0
79.461,506.0
79.462,511.0
79.463,518.0
79.464,515.0
79.465,524.0
79.466,515.0
79.467,506.0
79.468,502.0
79.469,509.0
79.47,519.0
79.471,520.0
79.472,514.0
79.473,525.0
79.474,512.0
79.475,503.0
79.476,504.0
79.477,506.0
79.478,517.0
79.479,521.0
79.48,514.0
79.481,521.0
79.482,510.0
79.483,500.0
79.484,503.0
79.485,508.0
79.486,518.0
79.487,520.0
79.488,514.0
79.489,516.0
79.49,508.0
79.491,502.0
79.492,504.0
79.493,509.0
79.494,524.0
79.495,528.0
79.496,516.0
79.497,516.0
79.498,509.0
79.499,502.0
79.5,505.0
79.501,512.0
79.502,524.0
79.503,528.0
79.504,512.0
79.505,507.0
79.506,509.0
79.507,503.0
79.508,503.0
79.509,510.0
79.51,525.0
79.511,521.0
79.512,506.0
79.513,504.0
79.514,534.0
79.515,518.0
79.516,505.0
79.517,510.0
79.518,526.0
79.519,519.0
79.52,505.0
79.521,507.0
79.522,534.0
79.523,516.0
79.524,501.0
79.525,511.0
79.526,528.0
79.527,513.0
79.528,500.0
79.529,516.0
79.53,542.0
79.531,516.0
79.532,501.0
79.533,514.0
79.534,526.0
79.535,522.0
79.536,509.0
79.537,502.0
79.538,514.0
79.539,503.0
79.54,506.0
79.541,522.0
79.542,523.0
79.543,519.0
79.544,505.0
79.545,503.0
79.546,513.0
79.547,503.0
79.548,511.0
79.549,529.0
79.55,523.0
79.551,518.0
79.552,507.0
79.553,501.0
79.554,508.0
79.555,504.0
79.556,516.0
79.557,529.0
79.558,527.0
79.559,527.0
79.56,515.0
79.561,505.0
79.562,510.0
79.563,511.0
79.564,524.0
79.565,530.0
79.566,515.0
79.567,524.0
79.568,513.0
79.569,506.0
79.57,509.0
79.571,514.0
79.572,526.0
79.573,527.0
79.574,526.0
79.575,518.0
79.576,505.0
79.577,502.0
79.578,506.0
79.579,514.0
79.58,524.0
79.581,524.0
79.582,525.0
79.583,519.0
79.584,508.0
79.585,504.0
79.586,507.0
79.587,516.0
79.588,523.0
79.589,525.0
79.59,523.0
79.591,515.0
79.592,505.0
79.593,503.0
79.594,508.0
79.595,519.0
79.596,525.0
79.597,525.0
79.598,523.0
79.599,514.0
79.6,502.0
79.601,505.0
79.602,507.0
79.603,520.0
79.604,523.0
79.605,525.0
79.606,521.0
79.607,510.0
79.608,507.0
79.609,510.0
79.61,517.0
79.611,522.0
79.612,520.0
79.613,525.0
79.614,520.0
79.615,507.0
79.616,502.0
79.617,504.0
79.618,512.0
79.619,523.0
79.62,521.0
79.621,525.0
79.622,517.0
79.623,506.0
79.624,501.0
79.625,505.0
79.626,515.0
79.627,524.0
79.628,513.0
79.629,523.0
79.63,514.0
79.631,502.0
79.632,501.0
79.633,500.0
79.634,517.0
79.635,525.0
79.636,518.0
79.637,521.0
79.638,510.0
79.639,501.0
79.64,501.0
79.641,505.0
79.642,518.0
79.643,525.0
79.644,514.0
79.645,517.0
79.646,505.0
79.647,498.0
79.648,500.0
79.649,506.0
79.65,519.0
79.651,526.0
79.652,515.0
79.653,508.0
79.654,503.0
79.655,501.0
79.656,501.0
79.657,505.0
79.658,522.0
79.659,521.0
79.66,514.0
79.661,507.0
79.662,507.0
79.663,508.0
79.664,504.0
79.665,507.0
79.666,523.0
79.667,525.0
79.668,512.0
79.669,503.0
79.67,514.0
79.671,515.0
79.672,507.0
79.673,509.0
79.674,527.0
79.675,526.0
79.676,516.0
79.677,504.0
79.678,513.0
79.679,510.0
79.68,504.0
79.681,513.0
79.682,526.0
79.683,527.0
79.684,516.0
79.685,503.0
79.686,509.0
79.687,508.0
79.688,503.0
79.689,519.0
79.69,528.0
79.691,529.0
79.692,522.0
79.693,508.0
79.694,505.0
79.695,506.0
79.696,510.0
79.697,525.0
79.698,528.0
79.699,530.0
79.7,525.0
79.701,511.0
79.702,507.0
79.703,510.0
79.704,517.0
79.705,530.0
79.706,526.0
79.707,527.0
79.708,522.0
79.709,512.0
79.71,508.0
79.711,511.0
79.712,520.0
79.713,529.0
79.714,526.0
79.715,523.0
79.716,517.0
79.717,507.0
79.718,507.0
79.719,509.0
79.72,521.0
79.721,528.0
79.722,527.0
79.723,524.0
79.724,516.0
79.725,507.0
79.726,508.0
79.727,516.0
79.728,523.0
79.729,526.0
79.73,525.0
79.731,522.0
79.732,514.0
79.733,504.0
79.734,508.0
79.735,513.0
79.736,519.0
79.737,520.0
79.738,526.0
79.739,518.0
79.74,510.0
79.741,505.0
79.742,507.0
79.743,516.0
79.744,519.0
79.745,519.0
79.746,524.0
79.747,512.0
79.748,504.0
79.749,505.0
79.75,507.0
79.751,517.0
79.752,517.0
79.753,520.0
79.754,522.0
79.755,513.0
79.756,506.0
79.757,504.0
79.758,506.0
79.759,517.0
79.76,515.0
79.761,518.0
79.762,520.0
79.763,508.0
79.764,501.0
79.765,503.0
79.766,508.0
79.767,520.0
79.768,514.0
79.769,516.0
79.77,519.0
79.771,507.0
79.772,500.0
79.773,505.0
79.774,510.0
79.775,523.0
79.776,522.0
79.777,521.0
79.778,518.0
79.779,506.0
79.78,503.0
79.781,506.0
79.782,514.0
79.783,526.0
79.784,517.0
79.785,517.0
79.786,513.0
79.787,506.0
79.788,502.0
79.789,504.0
79.79,517.0
79.791,528.0
79.792,519.0
79.793,513.0
79.794,507.0
79.795,512.0
79.796,504.0
79.797,504.0
79.798,514.0
79.799,529.0
79.8,513.0
79.801,504.0
79.802,523.0
79.803,563.0
79.804,521.0
79.805,504.0
79.806,511.0
79.807,526.0
79.808,507.0
79.809,503.0
79.81,555.0
79.811,607.0
79.812,532.0
79.813,501.0
79.814,507.0
79.815,521.0
79.816,509.0
79.817,498.0
79.818,514.0
79.819,534.0
79.82,505.0
79.821,499.0
79.822,515.0
79.823,521.0
79.824,505.0
79.825,498.0
79.826,510.0
79.827,522.0
79.828,503.0
79.829,504.0
79.83,523.0
79.831,522.0
79.832,512.0
79.833,502.0
79.834,502.0
79.835,509.0
79.836,502.0
79.837,513.0
79.838,525.0
79.839,525.0
79.84,513.0
79.841,501.0
79.842,503.0
79.843,509.0
79.844,505.0
79.845,517.0
79.846,527.0
79.847,529.0
79.848,526.0
79.849,513.0
79.85,507.0
79.851,509.0
79.852,515.0
79.853,526.0
79.854,526.0
79.855,527.0
79.856,522.0
79.857,510.0
79.858,506.0
79.859,510.0
79.86,518.0
79.861,528.0
79.862,525.0
79.863,525.0
79.864,516.0
79.865,504.0
79.866,503.0
79.867,508.0
79.868,517.0
79.869,526.0
79.87,524.0
79.871,526.0
79.872,516.0
79.873,508.0
79.874,508.0
79.875,511.0
79.876,522.0
79.877,525.0
79.878,526.0
79.879,521.0
79.88,511.0
79.881,504.0
79.882,506.0
79.883,512.0
79.884,522.0
79.885,524.0
79.886,530.0
79.887,518.0
79.888,510.0
79.889,502.0
79.89,506.0
79.891,514.0
79.892,523.0
79.893,523.0
79.894,525.0
79.895,518.0
79.896,505.0
79.897,501.0
79.898,504.0
79.899,514.0
79.9,522.0
79.901,522.0
79.902,526.0
79.903,516.0
79.904,505.0
79.905,503.0
79.906,506.0
79.907,516.0
79.908,523.0
79.909,522.0
79.91,519.0
79.911,511.0
79.912,501.0
79.913,501.0
79.914,509.0
79.915,515.0
79.916,524.0
79.917,520.0
79.918,521.0
79.919,511.0
79.92,501.0
79.921,501.0
79.922,507.0
79.923,520.0
79.924,519.0
79.925,516.0
79.926,520.0
79.927,507.0
79.928,501.0
79.929,503.0
79.93,505.0
79.931,521.0
79.932,526.0
79.933,517.0
79.934,515.0
79.935,505.0
79.936,498.0
79.937,502.0
79.938,509.0
79.939,524.0
79.94,526.0
79.941,518.0
79.942,509.0
79.943,502.0
79.944,500.0
79.945,501.0
79.946,511.0
79.947,525.0
79.948,524.0
79.949,516.0
79.95,507.0
79.951,502.0
79.952,500.0
79.953,501.0
79.954,514.0
79.955,528.0
79.956,518.0
79.957,509.0
79.958,502.0
79.959,511.0
79.96,508.0
79.961,504.0
79.962,514.0
79.963,529.0
79.964,524.0
79.965,511.0
79.966,502.0
79.967,510.0
79.968,505.0
79.969,504.0
79.97,519.0
79.971,527.0
79.972,526.0
79.973,518.0
79.974,504.0
79.975,505.0
79.976,503.0
79.977,509.0
79.978,525.0
79.979,526.0
79.98,525.0
79.981,517.0
79.982,506.0
79.983,505.0
79.984,507.0
79.985,516.0
79.986,528.0
79.987,528.0
79.988,524.0
79.989,519.0
79.99,508.0
79.991,506.0
79.992,509.0
79.993,520.0
79.994,529.0
79.995,529.0
79.996,527.0
79.997,518.0
79.998,509.0
79.999,509.0
80.0,511.0
80.001,522.0
80.002,528.0
80.003,526.0
80.004,523.0
80.005,514.0
80.006,506.0
80.007,508.0
80.008,513.0
80.009,522.0
80.01,527.0
80.011,525.0
80.012,521.0
80.013,512.0
80.014,507.0
80.015,509.0
80.016,514.0
80.017,521.0
80.018,523.0
80.019,524.0
80.02,517.0
80.021,508.0
80.022,504.0
80.023,508.0
80.024,516.0
80.025,520.0
80.026,518.0
80.027,525.0
80.028,514.0
80.029,504.0
80.03,503.0
80.031,506.0
80.032,518.0
80.033,515.0
80.034,522.0
80.035,519.0
80.036,512.0
80.037,503.0
80.038,503.0
80.039,507.0
80.04,519.0
80.041,512.0
80.042,521.0
80.043,519.0
80.044,507.0
80.045,501.0
80.046,504.0
80.047,509.0
80.048,517.0
80.049,512.0
80.05,521.0
80.051,516.0
80.052,506.0
80.053,500.0
80.054,503.0
80.055,511.0
80.056,521.0
80.057,512.0
80.058,521.0
80.059,515.0
80.06,503.0
80.061,502.0
80.062,504.0
80.063,513.0
80.064,525.0
80.065,519.0
80.066,520.0
80.067,511.0
80.068,502.0
80.069,501.0
80.07,503.0
80.071,514.0
80.072,529.0
80.073,518.0
80.074,520.0
80.075,511.0
80.076,504.0
80.077,504.0
80.078,507.0
80.079,520.0
80.08,527.0
80.081,510.0
80.082,510.0
80.083,509.0
80.084,512.0
80.085,503.0
80.086,504.0
80.087,517.0
80.088,528.0
80.089,510.0
80.09,503.0
80.091,523.0
80.092,526.0
80.093,506.0
80.094,505.0
80.095,519.0
80.096,528.0
80.097,507.0
80.098,502.0
80.099,544.0
80.1,557.0
80.101,513.0
80.102,503.0
80.103,519.0
80.104,523.0
80.105,502.0
80.106,504.0
80.107,554.0
80.108,558.0
80.109,510.0
80.11,501.0
80.111,520.0
80.112,519.0
80.113,502.0
80.114,498.0
80.115,526.0
80.116,528.0
80.117,500.0
80.118,506.0
80.119,521.0
80.12,522.0
80.121,501.0
80.122,500.0
80.123,520.0
80.124,519.0
80.125,501.0
80.126,513.0
80.127,521.0
80.128,523.0
80.129,516.0
80.13,502.0
80.131,502.0
80.132,505.0
80.133,510.0
80.134,528.0
80.135,523.0
80.136,526.0
80.137,518.0
80.138,505.0
80.139,504.0
80.14,506.0
80.141,517.0
80.142,527.0
80.143,526.0
80.144,526.0
80.145,517.0
80.146,508.0
80.147,507.0
80.148,509.0
80.149,520.0
80.15,528.0
80.151,524.0
80.152,522.0
80.153,511.0
80.154,503.0
80.155,506.0
80.156,511.0
80.157,522.0
80.158,524.0
80.159,525.0
80.16,522.0
80.161,507.0
80.162,502.0
80.163,505.0
80.164,511.0
80.165,518.0
80.166,530.0
80.167,525.0
80.168,515.0
80.169,504.0
80.17,499.0
80.171,505.0
80.172,510.0
80.173,523.0
80.174,525.0
80.175,526.0
80.176,520.0
80.177,504.0
80.178,503.0
80.179,507.0
80.18,514.0
80.181,523.0
80.182,524.0
80.183,523.0
80.184,516.0
80.185,499.0
80.186,503.0
80.187,507.0
80.188,516.0
80.189,523.0
80.19,521.0
80.191,522.0
80.192,511.0
80.193,501.0
80.194,503.0
80.195,509.0
80.196,519.0
80.197,524.0
80.198,523.0
80.199,521.0
80.2,509.0
80.201,501.0
80.202,503.0
80.203,510.0
80.204,521.0
80.205,524.0
80.206,524.0
80.207,521.0
80.208,508.0
80.209,501.0
80.21,504.0
80.211,513.0
80.212,522.0
80.213,524.0
80.214,522.0
80.215,517.0
80.216,506.0
80.217,502.0
80.218,503.0
80.219,513.0
80.22,524.0
80.221,520.0
80.222,520.0
80.223,512.0
80.224,501.0
80.225,501.0
80.226,503.0
80.227,513.0
80.228,523.0
80.229,522.0
80.23,517.0
80.231,507.0
80.232,502.0
80.233,501.0
80.234,503.0
80.235,516.0
80.236,527.0
80.237,518.0
80.238,513.0
80.239,506.0
80.24,511.0
80.241,506.0
80.242,502.0
80.243,516.0
80.244,530.0
80.245,524.0
80.246,511.0
80.247,506.0
80.248,509.0
80.249,506.0
80.25,507.0
80.251,520.0
80.252,524.0
80.253,519.0
80.254,507.0
80.255,508.0
80.256,517.0
80.257,507.0
80.258,506.0
80.259,526.0
80.26,528.0
80.261,525.0
80.262,516.0
80.263,505.0
80.264,506.0
80.265,504.0
80.266,515.0
80.267,529.0
80.268,527.0
80.269,522.0
80.27,513.0
80.271,503.0
80.272,506.0
80.273,505.0
80.274,519.0
80.275,529.0
80.276,525.0
80.277,525.0
80.278,513.0
80.279,506.0
80.28,508.0
80.281,510.0
80.282,523.0
80.283,529.0
80.284,529.0
80.285,527.0
80.286,516.0
80.287,509.0
80.288,512.0
80.289,515.0
80.29,526.0
80.291,527.0
80.292,526.0
80.293,522.0
80.294,511.0
80.295,507.0
80.296,509.0
80.297,517.0
80.298,524.0
80.299,524.0
80.3,525.0
80.301,520.0
80.302,509.0
80.303,505.0
80.304,506.0
80.305,518.0
80.306,520.0
80.307,524.0
80.308,523.0
80.309,513.0
80.31,505.0
80.311,506.0
80.312,508.0
80.313,518.0
80.314,520.0
80.315,523.0
80.316,520.0
80.317,510.0
80.318,504.0
80.319,511.0
80.32,510.0
80.321,520.0
80.322,514.0
80.323,524.0
80.324,519.0
80.325,505.0
80.326,502.0
80.327,505.0
80.328,510.0
80.329,519.0
80.33,511.0
80.331,524.0
80.332,517.0
80.333,505.0
80.334,503.0
80.335,505.0
80.336,513.0
80.337,519.0
80.338,512.0
80.339,525.0
80.34,515.0
80.341,504.0
80.342,503.0
80.343,505.0
80.344,515.0
80.345,521.0
80.346,512.0
80.347,522.0
80.348,511.0
80.349,502.0
80.35,502.0
80.351,506.0
80.352,517.0
80.353,523.0
80.354,515.0
80.355,520.0
80.356,511.0
80.357,503.0
80.358,504.0
80.359,509.0
80.36,521.0
80.361,524.0
80.362,513.0
80.363,518.0
80.364,509.0
80.365,503.0
80.366,504.0
80.367,510.0
80.368,522.0
80.369,529.0
80.37,512.0
80.371,512.0
80.372,511.0
80.373,505.0
80.374,503.0
80.375,511.0
80.376,525.0
80.377,524.0
80.378,507.0
80.379,506.0
80.38,543.0
80.381,535.0
80.382,507.0
80.383,505.0
80.384,523.0
80.385,518.0
80.386,505.0
80.387,516.0
80.388,564.0
80.389,542.0
80.39,506.0
80.391,504.0
80.392,524.0
80.393,517.0
80.394,502.0
80.395,515.0
80.396,555.0
80.397,532.0
80.398,500.0
80.399,506.0
80.4,522.0
80.401,519.0
80.402,501.0
80.403,508.0
80.404,529.0
80.405,512.0
80.406,499.0
80.407,515.0
80.408,520.0
80.409,522.0
80.41,507.0
80.411,500.0
80.412,507.0
80.413,504.0
80.414,502.0
80.415,522.0
80.416,523.0
80.417,519.0
80.418,507.0
80.419,500.0
80.42,507.0
80.421,503.0
80.422,512.0
80.423,527.0
80.424,530.0
80.425,526.0
80.426,517.0
80.427,506.0
80.428,507.0
80.429,509.0
80.43,522.0
80.431,528.0
80.432,526.0
80.433,523.0
80.434,512.0
80.435,504.0
80.436,508.0
80.437,511.0
80.438,523.0
80.439,527.0
80.44,526.0
80.441,522.0
80.442,513.0
80.443,500.0
80.444,507.0
80.445,516.0
80.446,525.0
80.447,525.0
80.448,526.0
80.449,520.0
80.45,508.0
80.451,505.0
80.452,508.0
80.453,516.0
80.454,523.0
80.455,524.0
80.456,524.0
80.457,517.0
80.458,504.0
80.459,503.0
80.46,506.0
80.461,514.0
80.462,524.0
80.463,523.0
80.464,522.0
80.465,515.0
80.466,499.0
80.467,504.0
80.468,509.0
80.469,521.0
80.47,523.0
80.471,520.0
80.472,521.0
80.473,511.0
80.474,501.0
80.475,499.0
80.476,510.0
80.477,520.0
80.478,522.0
80.479,523.0
80.48,522.0
80.481,507.0
80.482,499.0
80.483,503.0
80.484,511.0
80.485,521.0
80.486,521.0
80.487,523.0
80.488,517.0
80.489,505.0
80.49,499.0
80.491,504.0
80.492,511.0
80.493,524.0
80.494,520.0
80.495,524.0
80.496,516.0
80.497,503.0
80.498,500.0
80.499,503.0
80.5,514.0
80.501,526.0
80.502,521.0
80.503,523.0
80.504,515.0
80.505,501.0
80.506,501.0
80.507,505.0
80.508,516.0
80.509,528.0
80.51,516.0
80.511,519.0
80.512,510.0
80.513,501.0
80.514,499.0
80.515,504.0
80.516,518.0
80.517,529.0
80.518,519.0
80.519,515.0
80.52,504.0
80.521,501.0
80.522,501.0
80.523,506.0
80.524,520.0
80.525,526.0
80.526,519.0
80.527,511.0
80.528,506.0
80.529,507.0
80.53,504.0
80.531,506.0
80.532,522.0
80.533,528.0
80.534,512.0
80.535,505.0
80.536,513.0
80.537,517.0
80.538,509.0
80.539,506.0
80.54,524.0
80.541,526.0
80.542,519.0
80.543,507.0
80.544,505.0
80.545,508.0
80.546,503.0
80.547,513.0
80.548,530.0
80.549,529.0
80.55,517.0
80.551,504.0
80.552,507.0
80.553,507.0
80.554,503.0
80.555,517.0
80.556,530.0
80.557,528.0
80.558,524.0
80.559,510.0
80.56,505.0
80.561,507.0
80.562,508.0
80.563,523.0
80.564,521.0
80.565,529.0
80.566,523.0
80.567,509.0
80.568,505.0
80.569,506.0
80.57,512.0
80.571,526.0
80.572,528.0
80.573,528.0
80.574,524.0
80.575,511.0
80.576,507.0
80.577,509.0
80.578,516.0
80.579,531.0
80.58,528.0
80.581,530.0
80.582,521.0
80.583,516.0
80.584,509.0
80.585,510.0
80.586,519.0
80.587,527.0
80.588,528.0
80.589,524.0
80.59,519.0
80.591,507.0
80.592,508.0
80.593,512.0
80.594,521.0
80.595,525.0
80.596,526.0
80.597,520.0
80.598,515.0
80.599,508.0
80.6,507.0
80.601,513.0
80.602,522.0
80.603,522.0
80.604,524.0
80.605,519.0
80.606,509.0
80.607,503.0
80.608,508.0
80.609,514.0
80.61,521.0
80.611,514.0
80.612,524.0
80.613,516.0
80.614,507.0
80.615,504.0
80.616,507.0
80.617,515.0
80.618,517.0
80.619,518.0
80.62,525.0
80.621,515.0
80.622,505.0
80.623,503.0
80.624,507.0
80.625,516.0
80.626,517.0
80.627,518.0
80.628,522.0
80.629,512.0
80.63,503.0
80.631,504.0
80.632,507.0
80.633,520.0
80.634,516.0
80.635,516.0
80.636,519.0
80.637,508.0
80.638,499.0
80.639,503.0
80.64,508.0
80.641,521.0
80.642,523.0
80.643,518.0
80.644,519.0
80.645,509.0
80.646,502.0
80.647,505.0
80.648,511.0
80.649,524.0
80.65,522.0
80.651,520.0
80.652,515.0
80.653,508.0
80.654,503.0
80.655,505.0
80.656,514.0
80.657,527.0
80.658,523.0
80.659,513.0
80.66,508.0
80.661,514.0
80.662,505.0
80.663,502.0
80.664,512.0
80.665,529.0
80.666,521.0
80.667,510.0
80.668,506.0
80.669,530.0
80.67,510.0
80.671,503.0
80.672,513.0
80.673,529.0
80.674,509.0
80.675,505.0
80.676,545.0
80.677,595.0
80.678,540.0
80.679,504.0
80.68,509.0
80.681,524.0
80.682,512.0
80.683,500.0
80.684,523.0
80.685,558.0
80.686,517.0
80.687,499.0
80.688,512.0
80.689,520.0
80.69,509.0
80.691,497.0
80.692,514.0
80.693,544.0
80.694,509.0
80.695,503.0
80.696,519.0
80.697,520.0
80.698,512.0
80.699,501.0
80.7,503.0
80.701,516.0
80.702,502.0
80.703,507.0
80.704,524.0
80.705,523.0
80.706,519.0
80.707,507.0
80.708,500.0
80.709,507.0
80.71,503.0
80.711,517.0
80.712,527.0
80.713,526.0
80.714,522.0
80.715,509.0
80.716,504.0
80.717,507.0
80.718,509.0
80.719,524.0
80.72,527.0
80.721,528.0
80.722,523.0
80.723,510.0
80.724,504.0
80.725,509.0
80.726,515.0
80.727,527.0
80.728,526.0
80.729,527.0
80.73,519.0
80.731,507.0
80.732,505.0
80.733,507.0
80.734,515.0
80.735,524.0
80.736,526.0
80.737,526.0
80.738,519.0
80.739,508.0
80.74,505.0
80.741,509.0
80.742,520.0
80.743,524.0
80.744,524.0
80.745,523.0
80.746,514.0
80.747,503.0
80.748,506.0
80.749,509.0
80.75,519.0
80.751,525.0
80.752,525.0
80.753,523.0
80.754,512.0
80.755,505.0
80.756,505.0
80.757,511.0
80.758,521.0
80.759,521.0
80.76,524.0
80.761,521.0
80.762,511.0
80.763,500.0
80.764,507.0
80.765,513.0
80.766,522.0
80.767,522.0
80.768,524.0
80.769,515.0
80.77,505.0
80.771,501.0
80.772,504.0
80.773,513.0
80.774,521.0
80.775,519.0
80.776,523.0
80.777,516.0
80.778,503.0
80.779,501.0
80.78,505.0
80.781,515.0
80.782,525.0
80.783,521.0
80.784,524.0
80.785,514.0
80.786,502.0
80.787,499.0
80.788,505.0
80.789,515.0
80.79,524.0
80.791,517.0
80.792,519.0
80.793,507.0
80.794,498.0
80.795,499.0
80.796,506.0
80.797,517.0
80.798,524.0
80.799,514.0
80.8,517.0
80.801,503.0
80.802,498.0
80.803,501.0
80.804,507.0
80.805,519.0
80.806,524.0
80.807,513.0
80.808,507.0
80.809,503.0
80.81,504.0
80.811,504.0
80.812,506.0
80.813,523.0
80.814,525.0
80.815,515.0
80.816,506.0
80.817,509.0
80.818,510.0
80.819,506.0
80.82,507.0
80.821,523.0
80.822,521.0
80.823,510.0
80.824,503.0
80.825,518.0
80.826,518.0
80.827,507.0
80.828,509.0
80.829,527.0
80.83,522.0
80.831,508.0
80.832,504.0
80.833,525.0
80.834,517.0
80.835,506.0
80.836,511.0
80.837,528.0
80.838,525.0
80.839,517.0
80.84,503.0
80.841,505.0
80.842,504.0
80.843,505.0
80.844,522.0
80.845,525.0
80.846,523.0
80.847,512.0
80.848,501.0
80.849,508.0
80.85,505.0
80.851,520.0
80.852,523.0
80.853,524.0
80.854,527.0
80.855,520.0
80.856,508.0
80.857,507.0
80.858,507.0
80.859,514.0
80.86,528.0
80.861,527.0
80.862,526.0
80.863,520.0
80.864,508.0
80.865,508.0
80.866,509.0
80.867,521.0
80.868,530.0
80.869,529.0
80.87,526.0
80.871,518.0
80.872,508.0
80.873,509.0
80.874,513.0
80.875,523.0
80.876,527.0
80.877,523.0
80.878,522.0
80.879,513.0
80.88,506.0
80.881,509.0
80.882,513.0
80.883,521.0
80.884,525.0
80.885,526.0
80.886,520.0
80.887,511.0
80.888,505.0
80.889,507.0
80.89,514.0
80.891,520.0
80.892,520.0
80.893,524.0
80.894,517.0
80.895,507.0
80.896,503.0
80.897,507.0
80.898,519.0
80.899,516.0
80.9,521.0
80.901,527.0
80.902,510.0
80.903,505.0
80.904,505.0
80.905,508.0
80.906,518.0
80.907,516.0
80.908,521.0
80.909,518.0
80.91,507.0
80.911,502.0
80.912,503.0
80.913,506.0
80.914,519.0
80.915,511.0
80.916,520.0
80.917,520.0
80.918,507.0
80.919,503.0
80.92,504.0
80.921,510.0
80.922,523.0
80.923,517.0
80.924,522.0
80.925,517.0
80.926,508.0
80.927,503.0
80.928,505.0
80.929,510.0
80.93,526.0
80.931,516.0
80.932,522.0
80.933,515.0
80.934,506.0
80.935,501.0
80.936,502.0
80.937,514.0
80.938,529.0
80.939,522.0
80.94,522.0
80.941,516.0
80.942,506.0
80.943,505.0
80.944,506.0
80.945,518.0
80.946,531.0
80.947,515.0
80.948,515.0
80.949,508.0
80.95,512.0
80.951,503.0
80.952,506.0
80.953,517.0
80.954,529.0
80.955,514.0
80.956,505.0
80.957,521.0
80.958,540.0
80.959,511.0
80.96,504.0
80.961,514.0
80.962,529.0
80.963,510.0
80.964,503.0
80.965,526.0
80.966,550.0
80.967,512.0
80.968,504.0
80.969,519.0
80.97,522.0
80.971,507.0
80.972,505.0
80.973,559.0
80.974,582.0
80.975,519.0
80.976,499.0
80.977,518.0
80.978,523.0
80.979,509.0
80.98,498.0
80.981,512.0
80.982,518.0
80.983,501.0
80.984,506.0
80.985,523.0
80.986,523.0
80.987,503.0
80.988,499.0
80.989,510.0
80.99,512.0
80.991,503.0
80.992,512.0
80.993,527.0
80.994,525.0
80.995,516.0
80.996,503.0
80.997,502.0
80.998,507.0
80.999,509.0
81.0,521.0
81.001,526.0
81.002,526.0
81.003,520.0
81.004,506.0
81.005,506.0
81.006,507.0
81.007,515.0
81.008,526.0
81.009,526.0
81.01,527.0
81.011,519.0
81.012,507.0
81.013,507.0
81.014,507.0
81.015,518.0
81.016,528.0
81.017,527.0
81.018,525.0
81.019,516.0
81.02,507.0
81.021,506.0
81.022,510.0
81.023,520.0
81.024,527.0
81.025,526.0
81.026,523.0
81.027,514.0
81.028,507.0
81.029,521.0
81.03,511.0
81.031,523.0
81.032,526.0
81.033,525.0
81.034,519.0
81.035,508.0
81.036,501.0
81.037,504.0
81.038,511.0
81.039,525.0
81.04,525.0
81.041,527.0
81.042,522.0
81.043,508.0
81.044,502.0
81.045,505.0
81.046,512.0
81.047,523.0
81.048,522.0
81.049,523.0
81.05,514.0
81.051,502.0
81.052,500.0
81.053,505.0
81.054,513.0
81.055,523.0
81.056,523.0
81.057,524.0
81.058,513.0
81.059,502.0
81.06,501.0
81.061,507.0
81.062,516.0
81.063,524.0
81.064,525.0
81.065,520.0
81.066,513.0
81.067,499.0
81.068,503.0
81.069,507.0
81.07,519.0
81.071,523.0
81.072,522.0
81.073,521.0
81.074,509.0
81.075,501.0
81.076,502.0
81.077,508.0
81.078,520.0
81.079,525.0
81.08,522.0
81.081,519.0
81.082,507.0
81.083,500.0
81.084,502.0
81.085,512.0
81.086,522.0
81.087,522.0
81.088,517.0
81.089,512.0
81.09,503.0
81.091,499.0
81.092,501.0
81.093,511.0
81.094,528.0
81.095,522.0
81.096,516.0
81.097,507.0
81.098,503.0
81.099,501.0
81.1,502.0
81.101,512.0
81.102,526.0
81.103,520.0
81.104,514.0
81.105,505.0
81.106,506.0
81.107,502.0
81.108,502.0
81.109,515.0
81.11,527.0
81.111,523.0
81.112,511.0
81.113,504.0
81.114,511.0
81.115,505.0
81.116,504.0
81.117,516.0
81.118,528.0
81.119,523.0
81.12,508.0
81.121,505.0
81.122,520.0
81.123,508.0
81.124,504.0
81.125,521.0
81.126,527.0
81.127,522.0
81.128,512.0
81.129,502.0
81.13,508.0
81.131,504.0
81.132,509.0
81.133,527.0
81.134,528.0
81.135,525.0
81.136,517.0
81.137,506.0
81.138,507.0
81.139,505.0
81.14,517.0
81.141,530.0
81.142,529.0
81.143,527.0
81.144,518.0
81.145,509.0
81.146,507.0
81.147,509.0
81.148,522.0
81.149,530.0
81.15,527.0
81.151,525.0
81.152,514.0
81.153,508.0
81.154,507.0
81.155,513.0
81.156,524.0
81.157,528.0
81.158,526.0
81.159,523.0
81.16,514.0
81.161,507.0
81.162,508.0
81.163,515.0
81.164,519.0
81.165,524.0
81.166,526.0
81.167,519.0
81.168,510.0
81.169,506.0
81.17,508.0
81.171,518.0
81.172,523.0
81.173,524.0
81.174,523.0
81.175,514.0
81.176,506.0
81.177,506.0
81.178,510.0
81.179,517.0
81.18,517.0
81.181,524.0
81.182,523.0
81.183,514.0
81.184,506.0
81.185,506.0
81.186,509.0
81.187,520.0
81.188,514.0
81.189,521.0
81.19,519.0
81.191,509.0
81.192,504.0
81.193,504.0
81.194,508.0
81.195,519.0
81.196,511.0
81.197,523.0
81.198,518.0
81.199,506.0
81.2,503.0
81.201,504.0
81.202,511.0
81.203,517.0
81.204,507.0
81.205,522.0
81.206,514.0
81.207,505.0
81.208,502.0
81.209,505.0
81.21,513.0
81.211,514.0
81.212,510.0
81.213,520.0
81.214,512.0
81.215,501.0
81.216,500.0
81.217,504.0
81.218,513.0
81.219,525.0
81.22,513.0
81.221,521.0
81.222,512.0
81.223,501.0
81.224,503.0
81.225,505.0
81.226,517.0
81.227,523.0
81.228,509.0
81.229,518.0
81.23,509.0
81.231,501.0
81.232,503.0
81.233,507.0
81.234,519.0
81.235,528.0
81.236,513.0
81.237,510.0
81.238,508.0
81.239,503.0
81.24,502.0
81.241,507.0
81.242,522.0
81.243,526.0
81.244,506.0
81.245,502.0
81.246,536.0
81.247,539.0
81.248,509.0
81.249,502.0
81.25,519.0
81.251,518.0
81.252,506.0
81.253,515.0
81.254,564.0
81.255,565.0
81.256,518.0
81.257,499.0
81.258,519.0
81.259,519.0
81.26,502.0
81.261,502.0
81.262,536.0
81.263,529.0
81.264,498.0
81.265,502.0
81.266,522.0
81.267,518.0
81.268,501.0
81.269,505.0
81.27,532.0
81.271,520.0
81.272,498.0
81.273,506.0
81.274,520.0
81.275,521.0
81.276,506.0
81.277,498.0
81.278,509.0
81.279,505.0
81.28,502.0
81.281,517.0
81.282,522.0
81.283,519.0
81.284,505.0
81.285,498.0
81.286,508.0
81.287,504.0
81.288,508.0
81.289,523.0
81.29,523.0
81.291,525.0
81.292,515.0
81.293,504.0
81.294,505.0
81.295,505.0
81.296,517.0
81.297,528.0
81.298,527.0
81.299,525.0
81.3,513.0
81.301,505.0
81.302,507.0
81.303,508.0
81.304,521.0
81.305,526.0
81.306,526.0
81.307,522.0
81.308,510.0
81.309,504.0
81.31,506.0
81.311,511.0
81.312,526.0
81.313,527.0
81.314,525.0
81.315,522.0
81.316,511.0
81.317,499.0
81.318,507.0
81.319,514.0
81.32,523.0
81.321,527.0
81.322,523.0
81.323,519.0
81.324,504.0
81.325,504.0
81.326,506.0
81.327,514.0
81.328,523.0
81.329,522.0
81.33,525.0
81.331,516.0
81.332,505.0
81.333,503.0
81.334,507.0
81.335,515.0
81.336,523.0
81.337,524.0
81.338,521.0
81.339,514.0
81.34,502.0
81.341,504.0
81.342,510.0
81.343,516.0
81.344,522.0
81.345,522.0
81.346,519.0
81.347,510.0
81.348,500.0
81.349,502.0
81.35,508.0
81.351,518.0
81.352,521.0
81.353,522.0
81.354,517.0
81.355,504.0
81.356,498.0
81.357,501.0
81.358,510.0
81.359,521.0
81.36,523.0
81.361,522.0
81.362,518.0
81.363,505.0
81.364,500.0
81.365,504.0
81.366,512.0
81.367,523.0
81.368,523.0
81.369,523.0
81.37,514.0
81.371,503.0
81.372,500.0
81.373,502.0
81.374,515.0
81.375,525.0
81.376,519.0
81.377,518.0
81.378,509.0
81.379,500.0
81.38,498.0
81.381,502.0
81.382,515.0
81.383,525.0
81.384,519.0
81.385,512.0
81.386,504.0
81.387,502.0
81.388,500.0
81.389,502.0
81.39,516.0
81.391,525.0
81.392,516.0
81.393,510.0
81.394,505.0
81.395,508.0
81.396,502.0
81.397,503.0
81.398,518.0
81.399,527.0
81.4,514.0
81.401,504.0
81.402,511.0
81.403,519.0
81.404,509.0
81.405,503.0
81.406,520.0
81.407,526.0
81.408,519.0
81.409,508.0
81.41,508.0
81.411,511.0
81.412,504.0
81.413,507.0
81.414,526.0
81.415,528.0
81.416,520.0
81.417,510.0
81.418,504.0
81.419,507.0
81.42,502.0
81.421,515.0
81.422,529.0
81.423,527.0
81.424,523.0
81.425,511.0
81.426,503.0
81.427,506.0
81.428,506.0
81.429,521.0
81.43,528.0
81.431,526.0
81.432,524.0
81.433,510.0
81.434,505.0
81.435,506.0
81.436,510.0
81.437,523.0
81.438,528.0
81.439,527.0
81.44,525.0
81.441,513.0
81.442,508.0
81.443,509.0
81.444,516.0
81.445,526.0
81.446,528.0
81.447,527.0
81.448,523.0
81.449,512.0
81.45,508.0
81.451,510.0
81.452,517.0
81.453,526.0
81.454,527.0
81.455,517.0
81.456,518.0
81.457,509.0
81.458,508.0
81.459,511.0
81.46,518.0
81.461,524.0
81.462,525.0
81.463,522.0
81.464,516.0
81.465,507.0
81.466,506.0
81.467,510.0
81.468,520.0
81.469,519.0
81.47,523.0
81.471,519.0
81.472,511.0
81.473,504.0
81.474,506.0
81.475,511.0
81.476,522.0
81.477,516.0
81.478,523.0
81.479,517.0
81.48,507.0
81.481,503.0
81.482,504.0
81.483,510.0
81.484,518.0
81.485,514.0
81.486,524.0
81.487,517.0
81.488,506.0
81.489,503.0
81.49,505.0
81.491,513.0
81.492,515.0
81.493,514.0
81.494,521.0
81.495,513.0
81.496,503.0
81.497,503.0
81.498,505.0
81.499,516.0
81.5,517.0
81.501,513.0
81.502,519.0
81.503,509.0
81.504,499.0
81.505,502.0
81.506,505.0
81.507,518.0
81.508,521.0
81.509,514.0
81.51,518.0
81.511,508.0
81.512,507.0
81.513,503.0
81.514,509.0
81.515,520.0
81.516,528.0
81.517,518.0
81.518,518.0
81.519,508.0
81.52,502.0
81.521,505.0
81.522,513.0
81.523,525.0
81.524,520.0
81.525,511.0
81.526,506.0
81.527,512.0
81.528,506.0
81.529,502.0
81.53,510.0
81.531,526.0
81.532,524.0
81.533,508.0
81.534,506.0
81.535,529.0
81.536,516.0
81.537,503.0
81.538,510.0
81.539,527.0
81.54,519.0
81.541,505.0
81.542,510.0
81.543,544.0
81.544,522.0
81.545,504.0
81.546,510.0
81.547,528.0
81.548,512.0
81.549,504.0
81.55,531.0
81.551,569.0
81.552,532.0
81.553,501.0
81.554,509.0
81.555,525.0
81.556,518.0
81.557,505.0
81.558,505.0
81.559,523.0
81.56,508.0
81.561,502.0
81.562,519.0
81.563,526.0
81.564,518.0
81.565,505.0
81.566,502.0
81.567,514.0
81.568,503.0
81.569,507.0
81.57,525.0
81.571,523.0
81.572,524.0
81.573,512.0
81.574,503.0
81.575,508.0
81.576,506.0
81.577,517.0
81.578,530.0
81.579,528.0
81.58,525.0
81.581,514.0
81.582,504.0
81.583,507.0
81.584,508.0
81.585,522.0
81.586,529.0
81.587,526.0
81.588,525.0
81.589,514.0
81.59,506.0
81.591,510.0
81.592,514.0
81.593,522.0
81.594,528.0
81.595,525.0
81.596,524.0
81.597,509.0
81.598,505.0
81.599,509.0
81.6,516.0
81.601,524.0
81.602,526.0
81.603,527.0
81.604,519.0
81.605,509.0
81.606,502.0
81.607,508.0
81.608,516.0
81.609,524.0
81.61,523.0
81.611,523.0
81.612,516.0
81.613,504.0
81.614,503.0
81.615,508.0
81.616,515.0
81.617,524.0
81.618,524.0
81.619,525.0
81.62,512.0
81.621,501.0
81.622,504.0
81.623,509.0
81.624,520.0
81.625,520.0
81.626,523.0
81.627,520.0
81.628,510.0
81.629,500.0
81.63,503.0
81.631,510.0
81.632,519.0
81.633,519.0
81.634,523.0
81.635,519.0
81.636,506.0
81.637,500.0
81.638,504.0
81.639,512.0
81.64,522.0
81.641,521.0
81.642,523.0
81.643,516.0
81.644,504.0
81.645,500.0
81.646,503.0
81.647,514.0
81.648,522.0
81.649,521.0
81.65,521.0
81.651,514.0
81.652,503.0
81.653,500.0
81.654,505.0
81.655,517.0
81.656,525.0
81.657,520.0
81.658,522.0
81.659,511.0
81.66,503.0
81.661,501.0
81.662,503.0
81.663,518.0
81.664,527.0
81.665,516.0
81.666,519.0
81.667,506.0
81.668,499.0
81.669,500.0
81.67,505.0
81.671,520.0
81.672,525.0
81.673,517.0
81.674,511.0
81.675,504.0
81.676,500.0
81.677,501.0
81.678,505.0
81.679,520.0
81.68,528.0
81.681,515.0
81.682,508.0
81.683,505.0
81.684,505.0
81.685,502.0
81.686,507.0
81.687,522.0
81.688,523.0
81.689,516.0
81.69,507.0
81.691,507.0
81.692,507.0
81.693,504.0
81.694,510.0
81.695,527.0
81.696,526.0
81.697,514.0
81.698,503.0
81.699,512.0
81.7,511.0
81.701,505.0
81.702,512.0
81.703,529.0
81.704,529.0
81.705,520.0
81.706,506.0
81.707,504.0
81.708,505.0
81.709,504.0
81.71,520.0
81.711,528.0
81.712,529.0
81.713,524.0
81.714,510.0
81.715,507.0
81.716,507.0
81.717,511.0
81.718,525.0
81.719,527.0
81.72,529.0
81.721,524.0
81.722,513.0
81.723,506.0
81.724,509.0
81.725,515.0
81.726,528.0
81.727,526.0
81.728,528.0
81.729,521.0
81.73,512.0
81.731,507.0
81.732,509.0
81.733,522.0
81.734,526.0
81.735,528.0
81.736,527.0
81.737,520.0
81.738,510.0
81.739,507.0
81.74,509.0
81.741,518.0
81.742,525.0
81.743,524.0
81.744,522.0
81.745,517.0
81.746,508.0
81.747,508.0
81.748,512.0
81.749,521.0
81.75,523.0
81.751,525.0
81.752,521.0
81.753,513.0
81.754,506.0
81.755,507.0
81.756,512.0
81.757,520.0
81.758,520.0
81.759,523.0
81.76,517.0
81.761,508.0
81.762,504.0
81.763,504.0
81.764,512.0
81.765,518.0
81.766,520.0
81.767,521.0
81.768,514.0
81.769,506.0
81.77,504.0
81.771,507.0
81.772,514.0
81.773,515.0
81.774,519.0
81.775,521.0
81.776,512.0
81.777,504.0
81.778,504.0
81.779,507.0
81.78,517.0
81.781,514.0
81.782,519.0
81.783,520.0
81.784,508.0
81.785,502.0
81.786,503.0
81.787,507.0
81.788,518.0
81.789,513.0
81.79,516.0
81.791,517.0
81.792,507.0
81.793,499.0
81.794,502.0
81.795,509.0
81.796,522.0
81.797,523.0
81.798,518.0
81.799,516.0
81.8,505.0
81.801,500.0
81.802,504.0
81.803,512.0
81.804,525.0
81.805,518.0
81.806,517.0
81.807,510.0
81.808,505.0
81.809,501.0
81.81,503.0
81.811,513.0
81.812,526.0
81.813,519.0
81.814,513.0
81.815,506.0
81.816,510.0
81.817,503.0
81.818,501.0
81.819,512.0
81.82,527.0
81.821,513.0
81.822,503.0
81.823,510.0
81.824,541.0
81.825,514.0
81.826,503.0
81.827,511.0
81.828,527.0
81.829,507.0
81.83,501.0
81.831,526.0
81.832,562.0
81.833,518.0
81.834,501.0
81.835,511.0
81.836,521.0
81.837,510.0
81.838,500.0
81.839,512.0
81.84,534.0
81.841,507.0
81.842,502.0
81.843,519.0
81.844,524.0
81.845,510.0
81.846,499.0
81.847,508.0
81.848,524.0
81.849,503.0
81.85,506.0
81.851,525.0
81.852,523.0
81.853,519.0
81.854,506.0
81.855,500.0
81.856,509.0
81.857,502.0
81.858,514.0
81.859,528.0
81.86,525.0
81.861,512.0
81.862,502.0
81.863,503.0
81.864,511.0
81.865,505.0
81.866,517.0
81.867,529.0
81.868,529.0
81.869,526.0
81.87,512.0
81.871,508.0
81.872,510.0
81.873,513.0
81.874,526.0
81.875,529.0
81.876,527.0
81.877,523.0
81.878,513.0
81.879,508.0
81.88,511.0
81.881,518.0
81.882,526.0
81.883,525.0
81.884,527.0
81.885,518.0
81.886,509.0
81.887,505.0
81.888,508.0
81.889,519.0
81.89,526.0
81.891,528.0
81.892,525.0
81.893,517.0
81.894,506.0
81.895,507.0
81.896,511.0
81.897,519.0
81.898,525.0
81.899,523.0
81.9,521.0
81.901,513.0
81.902,502.0
81.903,504.0
81.904,510.0
81.905,521.0
81.906,524.0
81.907,525.0
81.908,521.0
81.909,510.0
81.91,503.0
81.911,506.0
81.912,512.0
81.913,521.0
81.914,520.0
81.915,525.0
81.916,520.0
81.917,508.0
81.918,503.0
81.919,507.0
81.92,513.0
81.921,522.0
81.922,521.0
81.923,524.0
81.924,516.0
81.925,505.0
81.926,503.0
81.927,507.0
81.928,515.0
81.929,523.0
81.93,510.0
81.931,522.0
81.932,513.0
81.933,503.0
81.934,502.0
81.935,505.0
81.936,517.0
81.937,524.0
81.938,521.0
81.939,522.0
81.94,511.0
81.941,503.0
81.942,503.0
81.943,507.0
81.944,519.0
81.945,523.0
81.946,517.0
81.947,519.0
81.948,506.0
81.949,500.0
81.95,500.0
81.951,508.0
81.952,520.0
81.953,525.0
81.954,515.0
