77.282,506.0
77.283,508.0
77.284,520.0
77.285,524.0
77.286,520.0
77.287,516.0
77.288,514.0
77.289,511.0
77.29,507.0
77.291,510.0
77.292,520.0
77.293,521.0
77.294,515.0
77.295,512.0
77.296,506.0
77.297,518.0
77.298,510.0
77.299,510.0
77.3,519.0
77.301,523.0
77.302,515.0
77.303,511.0
77.304,518.0
77.305,519.0
77.306,517.0
77.307,509.0
77.308,522.0
77.309,526.0
77.31,518.0
77.311,512.0
77.312,514.0
77.313,516.0
77.314,511.0
77.315,512.0
77.316,527.0
77.317,529.0
77.318,521.0
77.319,514.0
77.32,516.0
77.321,513.0
77.322,511.0
77.323,516.0
77.324,527.0
77.325,531.0
77.326,521.0
77.327,514.0
77.328,515.0
77.329,514.0
77.33,513.0
77.331,520.0
77.332,527.0
77.333,531.0
77.334,527.0
77.335,521.0
77.336,519.0
77.337,517.0
77.338,519.0
77.339,527.0
77.34,528.0
77.341,530.0
77.342,528.0
77.343,522.0
77.344,518.0
77.345,519.0
77.346,521.0
77.347,529.0
77.348,527.0
77.349,526.0
77.35,523.0
77.351,518.0
77.352,516.0
77.353,514.0
77.354,519.0
77.355,525.0
77.356,526.0
77.357,525.0
77.358,521.0
77.359,515.0
77.36,515.0
77.361,515.0
77.362,520.0
77.363,524.0
77.364,528.0
77.365,522.0
77.366,519.0
77.367,515.0
77.368,515.0
77.369,516.0
77.37,521.0
77.371,520.0
77.372,526.0
77.373,522.0
77.374,517.0
77.375,514.0
77.376,513.0
77.377,516.0
77.378,520.0
77.379,516.0
77.38,525.0
77.381,520.0
77.382,516.0
77.383,513.0
77.384,512.0
77.385,515.0
77.386,518.0
77.387,514.0
77.388,520.0
77.389,517.0
77.39,511.0
77.391,510.0
77.392,511.0
77.393,516.0
77.394,512.0
77.395,516.0
77.396,521.0
77.397,516.0
77.398,514.0
77.399,509.0
77.4,513.0
77.401,518.0
77.402,511.0
77.403,516.0
77.404,522.0
77.405,515.0
77.406,510.0
77.407,511.0
77.408,514.0
77.409,521.0
77.41,514.0
77.411,518.0
77.412,519.0
77.413,514.0
77.414,508.0
77.415,510.0
77.416,513.0
77.417,521.0
77.418,513.0
77.419,519.0
77.42,514.0
77.421,511.0
77.422,508.0
77.423,511.0
77.424,514.0
77.425,522.0
77.426,518.0
77.427,515.0
77.428,514.0
77.429,514.0
77.43,510.0
77.431,509.0
77.432,522.0
77.433,522.0
77.434,515.0
77.435,514.0
77.436,524.0
77.437,546.0
77.438,533.0
77.439,525.0
77.44,514.0
77.441,521.0
77.442,514.0
77.443,513.0
77.444,535.0
77.445,563.0
77.446,548.0
77.447,526.0
77.448,514.0
77.449,517.0
77.45,514.0
77.451,519.0
77.452,553.0
77.453,589.0
77.454,559.0
77.455,527.0
77.456,510.0
77.457,510.0
77.458,507.0
77.459,504.0
77.46,534.0
77.461,569.0
77.462,537.0
77.463,505.0
77.464,505.0
77.465,510.0
77.466,500.0
77.467,498.0
77.468,514.0
77.469,538.0
77.47,516.0
77.471,498.0
77.472,509.0
77.473,512.0
77.474,505.0
77.475,499.0
77.476,503.0
77.477,510.0
77.478,499.0
77.479,502.0
77.48,515.0
77.481,518.0
77.482,510.0
77.483,504.0
77.484,506.0
77.485,508.0
77.486,505.0
77.487,512.0
77.488,520.0
77.489,530.0
77.49,518.0
77.491,513.0
77.492,511.0
77.493,511.0
77.494,511.0
77.495,519.0
77.496,521.0
77.497,526.0
77.498,520.0
77.499,516.0
77.5,512.0
77.501,512.0
77.502,515.0
77.503,522.0
77.504,522.0
77.505,524.0
77.506,518.0
77.507,514.0
77.508,512.0
77.509,511.0
77.51,517.0
77.511,523.0
77.512,522.0
77.513,523.0
77.514,518.0
77.515,513.0
77.516,513.0
77.517,513.0
77.518,519.0
77.519,524.0
77.52,523.0
77.521,522.0
77.522,517.0
77.523,514.0
77.524,512.0
77.525,513.0
77.526,521.0
77.527,523.0
77.528,525.0
77.529,523.0
77.53,517.0
77.531,513.0
77.532,515.0
77.533,516.0
77.534,523.0
77.535,520.0
77.536,527.0
77.537,522.0
77.538,516.0
77.539,514.0
77.54,512.0
77.541,516.0
77.542,519.0
77.543,521.0
77.544,524.0
77.545,519.0
77.546,513.0
77.547,511.0
77.548,513.0
77.549,517.0
77.55,522.0
77.551,521.0
77.552,523.0
77.553,515.0
77.554,513.0
77.555,511.0
77.556,512.0
77.557,517.0
77.558,521.0
77.559,521.0
77.56,522.0
77.561,516.0
77.562,512.0
77.563,510.0
77.564,513.0
77.565,520.0
77.566,520.0
77.567,521.0
77.568,521.0
77.569,516.0
77.57,510.0
77.571,509.0
77.572,514.0
77.573,520.0
77.574,523.0
77.575,523.0
77.576,518.0
77.577,515.0
77.578,508.0
77.579,510.0
77.58,514.0
77.581,522.0
77.582,519.0
77.583,517.0
77.584,512.0
77.585,511.0
77.586,506.0
77.587,506.0
77.588,512.0
77.589,518.0
77.59,519.0
77.591,515.0
77.592,513.0
77.593,510.0
77.594,507.0
77.595,507.0
77.596,516.0
77.597,525.0
77.598,527.0
77.599,516.0
77.6,513.0
77.601,512.0
77.602,508.0
77.603,509.0
77.604,515.0
77.605,527.0
77.606,522.0
77.607,513.0
77.608,512.0
77.609,516.0
77.61,511.0
77.611,511.0
77.612,518.0
77.613,526.0
77.614,522.0
77.615,514.0
77.616,514.0
77.617,517.0
77.618,511.0
77.619,511.0
77.62,521.0
77.621,528.0
77.622,522.0
77.623,515.0
77.624,514.0
77.625,517.0
77.626,513.0
77.627,513.0
77.628,524.0
77.629,528.0
77.63,526.0
77.631,521.0
77.632,519.0
77.633,516.0
77.634,513.0
77.635,517.0
77.636,527.0
77.637,528.0
77.638,527.0
77.639,523.0
77.64,519.0
77.641,517.0
77.642,517.0
77.643,523.0
77.644,530.0
77.645,529.0
77.646,530.0
77.647,525.0
77.648,521.0
77.649,517.0
77.65,519.0
77.651,525.0
77.652,528.0
77.653,528.0
77.654,526.0
77.655,519.0
77.656,517.0
77.657,518.0
77.658,517.0
77.659,524.0
77.66,526.0
77.661,527.0
77.662,524.0
77.663,519.0
77.664,515.0
77.665,515.0
77.666,518.0
77.667,524.0
77.668,524.0
77.669,526.0
77.67,523.0
77.671,519.0
77.672,515.0
77.673,514.0
77.674,522.0
77.675,523.0
77.676,522.0
77.677,523.0
77.678,519.0
77.679,515.0
77.68,513.0
77.681,515.0
77.682,519.0
77.683,518.0
77.684,523.0
77.685,521.0
77.686,516.0
77.687,512.0
77.688,513.0
77.689,515.0
77.69,519.0
77.691,513.0
77.692,525.0
77.693,521.0
77.694,518.0
77.695,514.0
77.696,515.0
77.697,516.0
77.698,522.0
77.699,512.0
77.7,524.0
77.701,519.0
77.702,512.0
77.703,512.0
77.704,511.0
77.705,516.0
77.706,516.0
77.707,513.0
77.708,521.0
77.709,519.0
77.71,511.0
77.711,510.0
77.712,515.0
77.713,517.0
77.714,511.0
77.715,511.0
77.716,520.0
77.717,514.0
77.718,509.0
77.719,509.0
77.72,512.0
77.721,516.0
77.722,519.0
77.723,512.0
77.724,517.0
77.725,515.0
77.726,509.0
77.727,509.0
77.728,512.0
77.729,519.0
77.73,516.0
77.731,512.0
77.732,515.0
77.733,513.0
77.734,509.0
77.735,511.0
77.736,517.0
77.737,520.0
77.738,517.0
77.739,513.0
77.74,512.0
77.741,517.0
77.742,513.0
77.743,517.0
77.744,513.0
77.745,521.0
77.746,519.0
77.747,515.0
77.748,519.0
77.749,544.0
77.75,543.0
77.751,532.0
77.752,517.0
77.753,520.0
77.754,517.0
77.755,512.0
77.756,521.0
77.757,556.0
77.758,546.0
77.759,531.0
77.76,513.0
77.761,519.0
77.762,509.0
77.763,511.0
77.764,531.0
77.765,571.0
77.766,563.0
77.767,534.0
77.768,507.0
77.769,513.0
77.77,504.0
77.771,502.0
77.772,526.0
77.773,556.0
77.774,544.0
77.775,514.0
77.776,501.0
77.777,511.0
77.778,509.0
77.779,498.0
77.78,500.0
77.781,514.0
77.782,506.0
77.783,504.0
77.784,509.0
77.785,515.0
77.786,510.0
77.787,502.0
77.788,500.0
77.789,510.0
77.79,505.0
77.791,504.0
77.792,515.0
77.793,518.0
77.794,519.0
77.795,513.0
77.796,507.0
77.797,509.0
77.798,507.0
77.799,513.0
77.8,522.0
77.801,521.0
77.802,519.0
77.803,518.0
77.804,513.0
77.805,513.0
77.806,513.0
77.807,519.0
77.808,522.0
77.809,524.0
77.81,521.0
77.811,515.0
77.812,512.0
77.813,513.0
77.814,515.0
77.815,519.0
77.816,523.0
77.817,525.0
77.818,519.0
77.819,513.0
77.82,511.0
77.821,511.0
77.822,514.0
77.823,520.0
77.824,519.0
77.825,524.0
77.826,517.0
77.827,511.0
77.828,509.0
77.829,512.0
77.83,513.0
77.831,519.0
77.832,521.0
77.833,518.0
77.834,513.0
77.835,506.0
77.836,507.0
77.837,510.0
77.838,514.0
77.839,519.0
77.84,522.0
77.841,522.0
77.842,518.0
77.843,511.0
77.844,513.0
77.845,506.0
77.846,517.0
77.847,519.0
77.848,519.0
77.849,520.0
77.85,517.0
77.851,510.0
77.852,511.0
77.853,513.0
77.854,520.0
77.855,520.0
77.856,524.0
77.857,520.0
77.858,513.0
77.859,511.0
77.86,510.0
77.861,513.0
77.862,517.0
77.863,513.0
77.864,522.0
77.865,517.0
77.866,511.0
77.867,507.0
77.868,509.0
77.869,514.0
77.87,521.0
77.871,516.0
77.872,521.0
77.873,517.0
77.874,509.0
77.875,508.0
77.876,514.0
77.877,516.0
77.878,519.0
77.879,516.0
77.88,518.0
77.881,514.0
77.882,507.0
77.883,507.0
77.884,509.0
77.885,514.0
77.886,520.0
77.887,517.0
77.888,517.0
77.889,512.0
77.89,506.0
77.891,507.0
77.892,508.0
77.893,516.0
77.894,522.0
77.895,516.0
77.896,508.0
77.897,509.0
77.898,504.0
77.899,506.0
77.9,508.0
77.901,516.0
77.902,518.0
77.903,515.0
77.904,510.0
77.905,511.0
77.906,508.0
77.907,506.0
77.908,510.0
77.909,521.0
77.91,521.0
77.911,515.0
77.912,511.0
77.913,512.0
77.914,509.0
77.915,507.0
77.916,511.0
77.917,523.0
77.918,521.0
77.919,510.0
77.92,509.0
77.921,516.0
77.922,515.0
77.923,510.0
77.924,510.0
77.925,524.0
77.926,522.0
77.927,512.0
77.928,510.0
77.929,516.0
77.93,512.0
77.931,508.0
77.932,513.0
77.933,525.0
77.934,526.0
77.935,517.0
77.936,512.0
77.937,524.0
77.938,510.0
77.939,511.0
77.94,518.0
77.941,526.0
77.942,524.0
77.943,519.0
77.944,515.0
77.945,514.0
77.946,512.0
77.947,513.0
77.948,524.0
77.949,518.0
77.95,529.0
77.951,523.0
77.952,519.0
77.953,518.0
77.954,515.0
77.955,517.0
77.956,526.0
77.957,525.0
77.958,527.0
77.959,522.0
77.96,517.0
77.961,517.0
77.962,516.0
77.963,520.0
77.964,527.0
77.965,527.0
77.966,525.0
77.967,519.0
77.968,513.0
77.969,515.0
77.97,510.0
77.971,520.0
77.972,523.0
77.973,527.0
77.974,523.0
77.975,517.0
77.976,513.0
77.977,514.0
77.978,514.0
77.979,521.0
77.98,521.0
77.981,527.0
77.982,520.0
77.983,516.0
77.984,513.0
77.985,511.0
77.986,516.0
77.987,519.0
77.988,520.0
77.989,523.0
77.99,516.0
77.991,513.0
77.992,512.0
77.993,512.0
77.994,515.0
77.995,516.0
77.996,517.0
77.997,522.0
77.998,518.0
77.999,513.0
78.0,510.0
78.001,513.0
78.002,516.0
78.003,514.0
78.004,518.0
78.005,521.0
78.006,517.0
78.007,513.0
78.008,498.0
78.009,513.0
78.01,520.0
78.011,511.0
78.012,520.0
78.013,520.0
78.014,515.0
78.015,512.0
78.016,511.0
78.017,511.0
78.018,519.0
78.019,513.0
78.02,523.0
78.021,519.0
78.022,514.0
78.023,509.0
78.024,510.0
78.025,515.0
78.026,520.0
78.027,511.0
78.028,520.0
78.029,516.0
78.03,510.0
78.031,509.0
78.032,510.0
78.033,514.0
78.034,521.0
78.035,513.0
78.036,515.0
78.037,515.0
78.038,509.0
78.039,509.0
78.04,510.0
78.041,513.0
78.042,523.0
78.043,514.0
78.044,512.0
78.045,515.0
78.046,515.0
78.047,512.0
78.048,511.0
78.049,514.0
78.05,521.0
78.051,514.0
78.052,512.0
78.053,531.0
78.054,539.0
78.055,528.0
78.056,518.0
78.057,515.0
78.058,519.0
78.059,515.0
78.06,515.0
78.061,548.0
78.062,569.0
78.063,546.0
78.064,521.0
78.065,513.0
78.066,512.0
78.067,521.0
78.068,525.0
78.069,575.0
78.07,593.0
78.071,557.0
78.072,518.0
78.073,508.0
78.074,506.0
78.075,505.0
78.076,512.0
78.077,558.0
78.078,568.0
78.079,537.0
78.08,504.0
78.081,505.0
78.082,506.0
78.083,499.0
78.084,504.0
78.085,537.0
78.086,539.0
78.087,508.0
78.088,494.0
78.089,507.0
78.09,511.0
78.091,500.0
78.092,494.0
78.093,504.0
78.094,505.0
78.095,497.0
78.096,503.0
78.097,511.0
78.098,517.0
78.099,508.0
78.1,503.0
78.101,503.0
78.102,505.0
78.103,502.0
78.104,512.0
78.105,516.0
78.106,521.0
78.107,514.0
78.108,508.0
78.109,511.0
78.11,506.0
78.111,510.0
78.112,519.0
78.113,518.0
78.114,520.0
78.115,515.0
78.116,511.0
78.117,511.0
78.118,510.0
78.119,515.0
78.12,521.0
78.121,522.0
78.122,522.0
78.123,517.0
78.124,511.0
78.125,511.0
78.126,509.0
78.127,517.0
78.128,522.0
78.129,523.0
78.13,518.0
78.131,514.0
78.132,510.0
78.133,510.0
78.134,512.0
78.135,518.0
78.136,521.0
78.137,524.0
78.138,507.0
78.139,513.0
78.14,509.0
78.141,514.0
78.142,513.0
78.143,520.0
78.144,521.0
78.145,526.0
78.146,520.0
78.147,515.0
78.148,514.0
78.149,513.0
78.15,515.0
78.151,521.0
78.152,521.0
78.153,523.0
78.154,518.0
78.155,514.0
78.156,511.0
78.157,513.0
78.158,518.0
78.159,521.0
78.16,521.0
78.161,523.0
78.162,518.0
78.163,513.0
78.164,511.0
78.165,512.0
78.166,518.0
78.167,519.0
78.168,522.0
78.169,520.0
78.17,513.0
78.171,508.0
78.172,510.0
78.173,512.0
78.174,517.0
78.175,518.0
78.176,522.0
78.177,518.0
78.178,513.0
78.179,506.0
78.18,509.0
78.181,513.0
78.182,519.0
78.183,519.0
78.184,524.0
78.185,519.0
78.186,513.0
78.187,508.0
78.188,509.0
78.189,514.0
78.19,524.0
78.191,520.0
78.192,523.0
78.193,514.0
78.194,509.0
78.195,506.0
78.196,510.0
78.197,515.0
78.198,523.0
78.199,518.0
78.2,518.0
78.201,513.0
78.202,510.0
78.203,506.0
78.204,507.0
78.205,515.0
78.206,521.0
78.207,518.0
78.208,515.0
78.209,513.0
78.21,511.0
78.211,506.0
78.212,507.0
78.213,515.0
78.214,523.0
78.215,520.0
78.216,513.0
78.217,513.0
78.218,513.0
78.219,508.0
78.22,509.0
78.221,517.0
78.222,523.0
78.223,518.0
78.224,511.0
78.225,517.0
78.226,520.0
78.227,516.0
78.228,509.0
78.229,519.0
78.23,524.0
78.231,517.0
78.232,512.0
78.233,515.0
78.234,519.0
78.235,511.0
78.236,509.0
78.237,525.0
78.238,527.0
78.239,517.0
78.24,512.0
78.241,517.0
78.242,520.0
78.243,512.0
78.244,512.0
78.245,527.0
78.246,530.0
78.247,525.0
78.248,519.0
78.249,516.0
78.25,515.0
78.251,513.0
78.252,520.0
78.253,529.0
78.254,532.0
78.255,526.0
78.256,520.0
78.257,517.0
78.258,518.0
78.259,515.0
78.26,521.0
78.261,527.0
78.262,529.0
78.263,528.0
78.264,518.0
78.265,519.0
78.266,516.0
78.267,519.0
78.268,526.0
78.269,526.0
78.27,528.0
78.271,525.0
78.272,521.0
78.273,517.0
78.274,517.0
78.275,518.0
78.276,525.0
78.277,525.0
78.278,525.0
78.279,524.0
78.28,517.0
78.281,516.0
78.282,515.0
78.283,520.0
78.284,525.0
78.285,526.0
78.286,522.0
78.287,521.0
78.288,519.0
78.289,516.0
78.29,516.0
78.291,518.0
78.292,520.0
78.293,523.0
78.294,520.0
78.295,518.0
78.296,514.0
78.297,513.0
78.298,512.0
78.299,520.0
78.3,518.0
78.301,525.0
78.302,520.0
78.303,514.0
78.304,510.0
78.305,512.0
78.306,516.0
78.307,519.0
78.308,514.0
78.309,525.0
78.31,519.0
78.311,514.0
78.312,512.0
78.313,514.0
78.314,517.0
78.315,517.0
78.316,514.0
78.317,522.0
78.318,518.0
78.319,513.0
78.32,511.0
78.321,511.0
78.322,517.0
78.323,516.0
78.324,517.0
78.325,522.0
78.326,516.0
78.327,511.0
78.328,512.0
78.329,513.0
78.33,520.0
78.331,514.0
78.332,515.0
78.333,520.0
78.334,512.0
78.335,509.0
78.336,511.0
78.337,512.0
78.338,520.0
78.339,516.0
78.34,519.0
78.341,518.0
78.342,515.0
78.343,508.0
78.344,511.0
78.345,515.0
78.346,523.0
78.347,517.0
78.348,516.0
78.349,514.0
78.35,515.0
78.351,509.0
78.352,510.0
78.353,514.0
78.354,524.0
78.355,521.0
78.356,516.0
78.357,514.0
78.358,522.0
78.359,519.0
78.36,515.0
78.361,515.0
78.362,524.0
78.363,517.0
78.364,520.0
78.365,535.0
78.366,570.0
78.367,552.0
78.368,537.0
78.369,518.0
78.37,519.0
78.371,514.0
78.372,512.0
78.373,529.0
78.374,558.0
78.375,540.0
78.376,522.0
78.377,511.0
78.378,516.0
78.379,513.0
78.38,515.0
78.381,550.0
78.382,587.0
78.383,560.0
78.384,525.0
78.385,507.0
78.386,511.0
78.387,505.0
78.388,503.0
78.389,526.0
78.39,560.0
78.391,534.0
78.392,506.0
78.393,509.0
78.394,512.0
78.395,503.0
78.396,497.0
78.397,509.0
78.398,526.0
78.399,507.0
78.4,499.0
78.401,513.0
78.402,517.0
78.403,508.0
78.404,502.0
78.405,506.0
78.406,514.0
78.407,504.0
78.408,505.0
78.409,519.0
78.41,522.0
78.411,518.0
78.412,512.0
78.413,510.0
78.414,509.0
78.415,508.0
78.416,516.0
78.417,520.0
78.418,524.0
78.419,521.0
78.42,515.0
78.421,511.0
78.422,512.0
78.423,512.0
78.424,521.0
78.425,524.0
78.426,527.0
78.427,522.0
78.428,517.0
78.429,513.0
78.43,513.0
78.431,516.0
78.432,523.0
78.433,523.0
78.434,526.0
78.435,520.0
78.436,515.0
78.437,513.0
78.438,514.0
78.439,518.0
78.44,525.0
78.441,524.0
78.442,527.0
78.443,520.0
78.444,517.0
78.445,515.0
78.446,515.0
78.447,521.0
78.448,525.0
78.449,526.0
78.45,524.0
78.451,519.0
78.452,517.0
78.453,516.0
78.454,515.0
78.455,521.0
78.456,524.0
78.457,526.0
78.458,523.0
78.459,519.0
78.46,516.0
78.461,516.0
78.462,518.0
78.463,525.0
78.464,523.0
78.465,526.0
78.466,521.0
78.467,514.0
78.468,510.0
78.469,511.0
78.47,517.0
78.471,523.0
78.472,523.0
78.473,528.0
78.474,523.0
78.475,518.0
78.476,515.0
78.477,514.0
78.478,518.0
78.479,523.0
78.48,521.0
78.481,524.0
78.482,520.0
78.483,514.0
78.484,513.0
78.485,514.0
78.486,520.0
78.487,523.0
78.488,521.0
78.489,521.0
78.49,516.0
78.491,510.0
78.492,509.0
78.493,512.0
78.494,517.0
78.495,519.0
78.496,520.0
78.497,518.0
78.498,510.0
78.499,508.0
78.5,508.0
78.501,511.0
78.502,521.0
78.503,522.0
78.504,520.0
78.505,519.0
78.506,513.0
78.507,508.0
78.508,508.0
78.509,513.0
78.51,521.0
78.511,523.0
78.512,520.0
78.513,515.0
78.514,512.0
78.515,507.0
78.516,509.0
78.517,515.0
78.518,524.0
78.519,525.0
78.52,518.0
78.521,515.0
78.522,513.0
78.523,509.0
78.524,510.0
78.525,514.0
78.526,526.0
78.527,524.0
78.528,517.0
78.529,512.0
78.53,513.0
78.531,509.0
78.532,511.0
78.533,516.0
78.534,528.0
78.535,522.0
78.536,514.0
78.537,514.0
78.538,517.0
78.539,514.0
78.54,511.0
78.541,517.0
78.542,526.0
78.543,525.0
78.544,516.0
78.545,512.0
78.546,517.0
78.547,514.0
78.548,512.0
78.549,521.0
78.55,526.0
78.551,524.0
78.552,516.0
78.553,514.0
78.554,518.0
78.555,513.0
78.556,513.0
78.557,525.0
78.558,528.0
78.559,524.0
78.56,520.0
78.561,517.0
78.562,518.0
78.563,514.0
78.564,517.0
78.565,528.0
78.566,530.0
78.567,531.0
78.568,525.0
78.569,520.0
78.57,519.0
78.571,518.0
78.572,523.0
78.573,531.0
78.574,531.0
78.575,529.0
78.576,526.0
78.577,520.0
78.578,519.0
78.579,522.0
78.58,524.0
78.581,528.0
78.582,530.0
78.583,526.0
78.584,523.0
78.585,520.0
78.586,519.0
78.587,520.0
78.588,524.0
78.589,527.0
78.59,529.0
78.591,524.0
78.592,521.0
78.593,515.0
78.594,515.0
78.595,518.0
78.596,523.0
78.597,521.0
78.598,523.0
78.599,521.0
78.6,516.0
78.601,514.0
78.602,516.0
78.603,518.0
78.604,516.0
78.605,522.0
78.606,522.0
78.607,520.0
78.608,515.0
78.609,514.0
78.61,514.0
78.611,518.0
78.612,516.0
78.613,520.0
78.614,522.0
78.615,516.0
78.616,513.0
78.617,513.0
78.618,514.0
78.619,520.0
78.62,512.0
78.621,522.0
78.622,533.0
78.623,516.0
78.624,512.0
78.625,514.0
78.626,516.0
78.627,520.0
78.628,512.0
78.629,524.0
78.63,519.0
78.631,513.0
78.632,511.0
78.633,514.0
78.634,516.0
78.635,517.0
78.636,510.0
78.637,523.0
78.638,519.0
78.639,513.0
78.64,512.0
78.641,514.0
78.642,517.0
78.643,517.0
78.644,511.0
78.645,519.0
78.646,515.0
78.647,509.0
78.648,510.0
78.649,510.0
78.65,518.0
78.651,515.0
78.652,513.0
78.653,515.0
78.654,516.0
78.655,509.0
78.656,511.0
78.657,512.0
78.658,517.0
78.659,521.0
78.66,514.0
78.661,513.0
78.662,522.0
78.663,517.0
78.664,518.0
78.665,515.0
78.666,519.0
78.667,519.0
78.668,516.0
78.669,520.0
78.67,551.0
78.671,560.0
78.672,544.0
78.673,525.0
78.674,524.0
78.675,517.0
78.676,511.0
78.677,516.0
78.678,545.0
78.679,549.0
78.68,535.0
78.681,512.0
78.682,514.0
78.683,510.0
78.684,517.0
78.685,533.0
78.686,581.0
78.687,583.0
78.688,549.0
78.689,515.0
78.69,509.0
78.691,503.0
78.692,502.0
78.693,518.0
78.694,560.0
78.695,554.0
78.696,524.0
78.697,502.0
78.698,509.0
78.699,504.0
78.7,499.0
78.701,519.0
78.702,554.0
78.703,543.0
78.704,513.0
78.705,499.0
78.706,509.0
78.707,507.0
78.708,499.0
78.709,497.0
78.71,508.0
78.711,501.0
78.712,498.0
78.713,507.0
78.714,514.0
78.715,513.0
78.716,508.0
78.717,500.0
78.718,508.0
78.719,506.0
78.72,504.0
78.721,517.0
78.722,520.0
78.723,519.0
78.724,513.0
78.725,508.0
78.726,507.0
78.727,507.0
78.728,514.0
78.729,522.0
78.73,520.0
78.731,521.0
78.732,515.0
78.733,510.0
78.734,513.0
78.735,510.0
78.736,517.0
78.737,523.0
78.738,524.0
78.739,520.0
78.74,516.0
78.741,511.0
78.742,511.0
78.743,516.0
78.744,518.0
78.745,527.0
78.746,526.0
78.747,521.0
78.748,516.0
78.749,511.0
78.75,513.0
78.751,515.0
78.752,522.0
78.753,522.0
78.754,526.0
78.755,520.0
78.756,517.0
78.757,513.0
78.758,514.0
78.759,518.0
78.76,524.0
78.761,522.0
78.762,521.0
78.763,518.0
78.764,514.0
78.765,511.0
78.766,512.0
78.767,517.0
78.768,522.0
78.769,522.0
78.77,520.0
78.771,515.0
78.772,511.0
78.773,511.0
78.774,514.0
78.775,517.0
78.776,522.0
78.777,524.0
78.778,521.0
78.779,516.0
78.78,510.0
78.781,510.0
78.782,514.0
78.783,521.0
78.784,518.0
78.785,524.0
78.786,522.0
78.787,513.0
78.788,510.0
78.789,510.0
78.79,513.0
78.791,520.0
78.792,519.0
78.793,524.0
78.794,521.0
78.795,515.0
78.796,511.0
78.797,513.0
78.798,518.0
78.799,523.0
78.8,519.0
78.801,524.0
78.802,519.0
78.803,513.0
78.804,511.0
78.805,511.0
78.806,518.0
78.807,528.0
78.808,522.0
78.809,522.0
78.81,517.0
78.811,512.0
78.812,510.0
78.813,509.0
78.814,519.0
78.815,524.0
78.816,518.0
78.817,520.0
78.818,515.0
78.819,508.0
78.82,507.0
78.821,511.0
78.822,520.0
78.823,525.0
78.824,520.0
78.825,518.0
78.826,515.0
78.827,508.0
78.828,509.0
78.829,511.0
78.83,522.0
78.831,522.0
78.832,516.0
78.833,513.0
78.834,513.0
78.835,509.0
78.836,509.0
78.837,510.0
78.838,522.0
78.839,524.0
78.84,516.0
78.841,510.0
78.842,515.0
78.843,515.0
78.844,511.0
78.845,512.0
78.846,524.0
78.847,525.0
78.848,516.0
78.849,515.0
78.85,519.0
78.851,517.0
78.852,512.0
78.853,512.0
78.854,518.0
78.855,524.0
78.856,513.0
78.857,513.0
78.858,517.0
78.859,517.0
78.86,510.0
78.861,515.0
78.862,530.0
78.863,531.0
78.864,525.0
78.865,518.0
78.866,517.0
78.867,515.0
78.868,515.0
78.869,524.0
78.87,528.0
78.871,531.0
78.872,525.0
78.873,518.0
78.874,517.0
78.875,515.0
78.876,517.0
78.877,527.0
78.878,526.0
78.879,535.0
78.88,529.0
78.881,523.0
78.882,520.0
78.883,519.0
78.884,522.0
78.885,531.0
78.886,528.0
78.887,528.0
78.888,526.0
78.889,520.0
78.89,519.0
78.891,518.0
78.892,522.0
78.893,529.0
78.894,529.0
78.895,525.0
78.896,523.0
78.897,515.0
78.898,517.0
78.899,515.0
78.9,521.0
78.901,527.0
78.902,528.0
78.903,525.0
78.904,520.0
78.905,517.0
78.906,517.0
78.907,517.0
78.908,521.0
78.909,521.0
78.91,528.0
78.911,522.0
78.912,518.0
78.913,513.0
78.914,515.0
78.915,515.0
78.916,519.0
78.917,519.0
78.918,527.0
78.919,522.0
78.92,517.0
78.921,515.0
78.922,516.0
78.923,520.0
78.924,519.0
78.925,519.0
78.926,524.0
78.927,520.0
78.928,516.0
78.929,514.0
78.93,516.0
78.931,520.0
78.932,516.0
78.933,520.0
78.934,523.0
78.935,519.0
78.936,513.0
78.937,514.0
78.938,516.0
78.939,520.0
78.94,515.0
78.941,522.0
78.942,522.0
78.943,516.0
78.944,513.0
78.945,513.0
78.946,516.0
78.947,522.0
78.948,512.0
78.949,523.0
78.95,521.0
78.951,515.0
78.952,511.0
78.953,511.0
78.954,517.0
78.955,524.0
78.956,514.0
78.957,519.0
78.958,519.0
78.959,513.0
78.96,510.0
78.961,512.0
78.962,516.0
78.963,522.0
78.964,515.0
78.965,518.0
78.966,515.0
78.967,514.0
78.968,512.0
78.969,512.0
78.97,518.0
78.971,527.0
78.972,520.0
78.973,515.0
78.974,518.0
78.975,518.0
78.976,513.0
78.977,512.0
78.978,517.0
78.979,527.0
78.98,520.0
78.981,517.0
78.982,535.0
78.983,542.0
78.984,531.0
78.985,521.0
78.986,513.0
78.987,522.0
78.988,518.0
78.989,517.0
78.99,545.0
78.991,561.0
78.992,537.0
78.993,518.0
78.994,511.0
78.995,519.0
78.996,520.0
78.997,521.0
78.998,561.0
78.999,577.0
79.0,548.0
79.001,517.0
79.002,512.0
79.003,516.0
79.004,510.0
79.005,512.0
79.006,545.0
79.007,556.0
79.008,527.0
79.009,506.0
79.01,511.0
79.011,516.0
79.012,503.0
79.013,501.0
79.014,520.0
79.015,526.0
79.016,508.0
79.017,506.0
79.018,514.0
79.019,521.0
79.02,506.0
79.021,504.0
79.022,514.0
79.023,516.0
79.024,505.0
79.025,508.0
79.026,519.0
79.027,525.0
79.028,520.0
79.029,512.0
79.03,512.0
79.031,511.0
79.032,513.0
79.033,521.0
79.034,519.0
79.035,523.0
79.036,519.0
79.037,514.0
79.038,513.0
79.039,511.0
79.04,515.0
79.041,523.0
79.042,524.0
79.043,526.0
79.044,522.0
79.045,516.0
79.046,514.0
79.047,514.0
79.048,520.0
79.049,527.0
79.05,527.0
79.051,529.0
79.052,519.0
79.053,516.0
79.054,516.0
79.055,515.0
79.056,522.0
79.057,525.0
79.058,525.0
79.059,522.0
79.06,519.0
79.061,515.0
79.062,515.0
79.063,516.0
79.064,522.0
79.065,525.0
79.066,526.0
79.067,522.0
79.068,515.0
79.069,510.0
79.07,513.0
79.071,515.0
79.072,523.0
79.073,524.0
79.074,525.0
79.075,519.0
79.076,511.0
79.077,509.0
79.078,513.0
79.079,514.0
79.08,523.0
79.081,520.0
79.082,526.0
79.083,520.0
79.084,516.0
79.085,515.0
79.086,514.0
79.087,518.0
79.088,526.0
79.089,526.0
79.09,526.0
79.091,519.0
79.092,515.0
79.093,513.0
79.094,515.0
79.095,520.0
79.096,522.0
79.097,525.0
79.098,524.0
79.099,518.0
79.1,511.0
79.101,513.0
79.102,514.0
79.103,521.0
79.104,523.0
79.105,524.0
79.106,521.0
79.107,516.0
79.108,511.0
79.109,513.0
79.11,515.0
79.111,522.0
79.112,517.0
79.113,522.0
79.114,516.0
79.115,511.0
79.116,508.0
79.117,508.0
79.118,512.0
79.119,521.0
79.12,521.0
79.121,521.0
79.122,518.0
79.123,513.0
79.124,509.0
79.125,509.0
79.126,516.0
79.127,525.0
79.128,520.0
79.129,518.0
79.13,513.0
79.131,512.0
79.132,507.0
79.133,509.0
79.134,515.0
79.135,524.0
79.136,519.0
79.137,514.0
79.138,513.0
79.139,511.0
79.14,508.0
79.141,507.0
79.142,515.0
79.143,525.0
79.144,525.0
79.145,517.0
79.146,514.0
79.147,512.0
79.148,508.0
79.149,510.0
79.15,519.0
79.151,523.0
79.152,519.0
79.153,511.0
79.154,510.0
79.155,519.0
79.156,513.0
79.157,509.0
79.158,518.0
79.159,526.0
79.16,520.0
79.161,515.0
79.162,513.0
79.163,516.0
79.164,512.0
79.165,511.0
79.166,525.0
79.167,529.0
79.168,520.0
79.169,514.0
79.17,514.0
79.171,518.0
79.172,511.0
79.173,514.0
79.174,515.0
79.175,527.0
79.176,523.0
79.177,516.0
79.178,516.0
79.179,516.0
79.18,512.0
79.181,518.0
79.182,529.0
79.183,531.0
79.184,528.0
79.185,521.0
79.186,517.0
79.187,518.0
79.188,516.0
79.189,523.0
79.19,529.0
79.191,531.0
79.192,528.0
79.193,522.0
79.194,518.0
79.195,517.0
79.196,520.0
79.197,526.0
79.198,526.0
79.199,528.0
79.2,520.0
79.201,520.0
79.202,525.0
79.203,517.0
79.204,519.0
79.205,524.0
79.206,525.0
79.207,525.0
79.208,523.0
79.209,517.0
79.21,517.0
79.211,515.0
79.212,519.0
79.213,523.0
79.214,525.0
79.215,523.0
79.216,521.0
79.217,515.0
79.218,515.0
79.219,515.0
79.22,521.0
79.221,520.0
79.222,524.0
79.223,523.0
79.224,520.0
79.225,514.0
79.226,515.0
79.227,516.0
79.228,521.0
79.229,516.0
79.23,524.0
79.231,520.0
79.232,515.0
79.233,513.0
79.234,513.0
79.235,516.0
79.236,521.0
79.237,512.0
79.238,523.0
79.239,518.0
79.24,512.0
79.241,509.0
79.242,511.0
79.243,514.0
79.244,517.0
79.245,515.0
79.246,523.0
79.247,518.0
79.248,511.0
79.249,511.0
79.25,512.0
79.251,517.0
79.252,516.0
79.253,514.0
79.254,521.0
79.255,516.0
79.256,511.0
79.257,509.0
79.258,513.0
79.259,518.0
79.26,514.0
79.261,514.0
79.262,520.0
79.263,515.0
79.264,508.0
79.265,510.0
79.266,512.0
79.267,520.0
79.268,517.0
79.269,516.0
79.27,516.0
79.271,512.0
79.272,508.0
79.273,511.0
79.274,513.0
79.275,520.0
79.276,518.0
79.277,512.0
79.278,514.0
79.279,519.0
79.28,513.0
79.281,512.0
79.282,515.0
79.283,522.0
79.284,520.0
79.285,518.0
79.286,524.0
79.287,547.0
79.288,541.0
79.289,531.0
79.29,522.0
79.291,522.0
79.292,515.0
79.293,513.0
79.294,521.0
79.295,552.0
79.296,542.0
79.297,528.0
79.298,512.0
79.299,519.0
79.3,511.0
79.301,513.0
79.302,530.0
79.303,562.0
79.304,548.0
79.305,526.0
79.306,510.0
79.307,517.0
79.308,507.0
79.309,506.0
79.31,530.0
79.311,566.0
79.312,544.0
79.313,516.0
79.314,508.0
79.315,514.0
79.316,508.0
79.317,502.0
79.318,521.0
79.319,549.0
79.32,526.0
79.321,504.0
79.322,508.0
79.323,514.0
79.324,509.0
79.325,503.0
79.326,504.0
79.327,513.0
79.328,503.0
79.329,505.0
79.33,515.0
79.331,520.0
79.332,513.0
79.333,506.0
79.334,506.0
79.335,513.0
79.336,506.0
79.337,510.0
79.338,521.0
79.339,525.0
79.34,523.0
79.341,519.0
79.342,517.0
79.343,514.0
79.344,512.0
79.345,520.0
79.346,524.0
79.347,525.0
79.348,524.0
79.349,518.0
79.35,513.0
79.351,515.0
79.352,515.0
79.353,521.0
79.354,522.0
79.355,530.0
79.356,523.0
79.357,516.0
79.358,512.0
79.359,514.0
79.36,517.0
79.361,523.0
79.362,521.0
79.363,523.0
79.364,519.0
79.365,513.0
79.366,513.0
79.367,512.0
79.368,516.0
79.369,522.0
79.37,522.0
79.371,523.0
79.372,518.0
79.373,513.0
79.374,511.0
79.375,512.0
79.376,518.0
79.377,522.0
79.378,531.0
79.379,522.0
79.38,518.0
79.381,514.0
79.382,513.0
79.383,515.0
79.384,520.0
79.385,522.0
79.386,526.0
79.387,520.0
79.388,516.0
79.389,511.0
79.39,512.0
79.391,514.0
79.392,522.0
79.393,520.0
79.394,526.0
79.395,521.0
79.396,516.0
79.397,511.0
79.398,512.0
79.399,515.0
79.4,520.0
79.401,518.0
79.402,521.0
79.403,517.0
79.404,512.0
79.405,507.0
79.406,514.0
79.407,515.0
79.408,519.0
79.409,515.0
79.41,521.0
79.411,516.0
79.412,509.0
79.413,506.0
79.414,509.0
79.415,516.0
79.416,521.0
79.417,519.0
79.418,521.0
79.419,516.0
79.42,512.0
79.421,508.0
79.422,512.0
79.423,518.0
79.424,522.0
79.425,519.0
79.426,520.0
79.427,519.0
79.428,508.0
79.429,508.0
79.43,511.0
79.431,515.0
79.432,519.0
79.433,518.0
79.434,514.0
79.435,509.0
79.436,505.0
79.437,506.0
79.438,506.0
79.439,519.0
79.44,522.0
79.441,516.0
79.442,514.0
79.443,511.0
79.444,506.0
79.445,506.0
79.446,511.0
79.447,523.0
79.448,522.0
79.449,515.0
79.45,513.0
79.451,512.0
79.452,508.0
79.453,507.0
79.454,513.0
79.455,523.0
79.456,520.0
79.457,514.0
79.458,510.0
79.459,514.0
79.46,511.0
79.461,511.0
79.462,513.0
79.463,524.0
79.464,521.0
79.465,513.0
79.466,511.0
79.467,518.0
79.468,515.0
79.469,511.0
79.47,515.0
79.471,525.0
79.472,521.0
79.473,512.0
79.474,511.0
79.475,519.0
79.476,515.0
79.477,511.0
79.478,519.0
79.479,526.0
79.48,528.0
79.481,522.0
79.482,516.0
79.483,516.0
79.484,513.0
79.485,516.0
79.486,524.0
79.487,526.0
79.488,528.0
79.489,522.0
79.49,516.0
79.491,515.0
79.492,515.0
79.493,519.0
79.494,527.0
79.495,525.0
79.496,527.0
79.497,522.0
79.498,515.0
79.499,518.0
79.5,515.0
79.501,519.0
79.502,527.0
79.503,526.0
79.504,526.0
79.505,521.0
79.506,516.0
79.507,518.0
79.508,517.0
79.509,521.0
79.51,527.0
79.511,529.0
79.512,524.0
79.513,520.0
79.514,516.0
79.515,516.0
79.516,514.0
79.517,522.0
79.518,524.0
79.519,529.0
79.52,522.0
79.521,517.0
79.522,513.0
79.523,514.0
79.524,517.0
79.525,521.0
79.526,521.0
79.527,525.0
79.528,520.0
79.529,519.0
79.53,515.0
79.531,515.0
79.532,519.0
79.533,518.0
79.534,520.0
79.535,522.0
79.536,517.0
79.537,512.0
79.538,513.0
79.539,513.0
79.54,521.0
79.541,515.0
79.542,521.0
79.543,519.0
79.544,517.0
79.545,513.0
79.546,512.0
79.547,513.0
79.548,519.0
79.549,510.0
79.55,521.0
79.551,520.0
79.552,518.0
79.553,512.0
79.554,512.0
79.555,516.0
79.556,519.0
79.557,511.0
79.558,522.0
79.559,521.0
79.56,515.0
79.561,512.0
79.562,513.0
79.563,517.0
79.564,512.0
79.565,510.0
79.566,521.0
79.567,522.0
79.568,510.0
79.569,509.0
79.57,513.0
79.571,516.0
79.572,519.0
79.573,510.0
79.574,517.0
79.575,514.0
79.576,509.0
79.577,509.0
79.578,509.0
79.579,516.0
79.58,522.0
79.581,513.0
79.582,515.0
79.583,515.0
79.584,510.0
79.585,510.0
79.586,511.0
79.587,517.0
79.588,524.0
79.589,515.0
79.59,513.0
79.591,519.0
79.592,517.0
79.593,514.0
79.594,512.0
79.595,517.0
79.596,519.0
79.597,517.0
79.598,519.0
79.599,560.0
79.6,558.0
79.601,544.0
79.602,520.0
79.603,515.0
79.604,515.0
79.605,514.0
79.606,520.0
79.607,560.0
79.608,565.0
79.609,542.0
79.61,515.0
79.611,512.0
79.612,507.0
79.613,526.0
79.614,546.0
79.615,603.0
79.616,605.0
79.617,565.0
79.618,516.0
79.619,504.0
79.62,507.0
79.621,495.0
79.622,507.0
79.623,538.0
79.624,537.0
79.625,510.0
79.626,495.0
79.627,507.0
79.628,512.0
79.629,495.0
79.63,498.0
79.631,515.0
79.632,513.0
79.633,498.0
79.634,500.0
79.635,510.0
79.636,509.0
79.637,501.0
79.638,500.0
79.639,507.0
79.64,504.0
79.641,499.0
79.642,509.0
79.643,514.0
79.644,517.0
79.645,511.0
79.646,505.0
79.647,509.0
79.648,506.0
79.649,509.0
79.65,518.0
79.651,517.0
79.652,522.0
79.653,515.0
79.654,513.0
79.655,512.0
79.656,510.0
79.657,516.0
79.658,519.0
79.659,524.0
79.66,522.0
79.661,517.0
79.662,513.0
79.663,514.0
79.664,512.0
79.665,520.0
79.666,524.0
79.667,523.0
79.668,520.0
79.669,516.0
79.67,507.0
79.671,512.0
79.672,514.0
79.673,518.0
79.674,521.0
79.675,525.0
79.676,518.0
79.677,514.0
79.678,511.0
79.679,513.0
79.68,515.0
79.681,521.0
79.682,520.0
79.683,519.0
79.684,515.0
79.685,512.0
79.686,508.0
79.687,511.0
79.688,516.0
79.689,522.0
79.69,523.0
79.691,525.0
79.692,520.0
79.693,513.0
79.694,510.0
79.695,515.0
79.696,516.0
79.697,522.0
79.698,523.0
79.699,522.0
79.7,519.0
79.701,513.0
79.702,513.0
79.703,513.0
79.704,520.0
79.705,522.0
79.706,524.0
79.707,521.0
79.708,521.0
79.709,511.0
79.71,512.0
79.711,514.0
79.712,520.0
79.713,519.0
79.714,525.0
79.715,520.0
79.716,515.0
79.717,512.0
79.718,512.0
79.719,515.0
79.72,523.0
79.721,520.0
79.722,524.0
79.723,519.0
79.724,513.0
79.725,510.0
79.726,512.0
79.727,516.0
79.728,520.0
79.729,513.0
79.73,520.0
79.731,515.0
79.732,510.0
79.733,505.0
79.734,509.0
79.735,514.0
79.736,522.0
79.737,521.0
79.738,521.0
79.739,517.0
79.74,511.0
79.741,509.0
79.742,509.0
79.743,518.0
79.744,524.0
79.745,518.0
79.746,515.0
79.747,513.0
79.748,508.0
79.749,507.0
79.75,507.0
79.751,517.0
79.752,522.0
79.753,517.0
79.754,514.0
79.755,511.0
79.756,509.0
79.757,507.0
79.758,508.0
79.759,520.0
79.76,521.0
79.761,517.0
79.762,513.0
79.763,513.0
79.764,513.0
79.765,509.0
79.766,510.0
79.767,520.0
79.768,523.0
79.769,515.0
79.77,509.0
79.771,519.0
79.772,521.0
79.773,515.0
79.774,511.0
79.775,522.0
79.776,525.0
79.777,519.0
79.778,512.0
79.779,515.0
79.78,514.0
79.781,510.0
79.782,513.0
79.783,527.0
79.784,526.0
79.785,519.0
79.786,512.0
79.787,514.0
79.788,515.0
79.789,511.0
79.79,517.0
79.791,527.0
79.792,529.0
79.793,525.0
79.794,518.0
79.795,516.0
79.796,515.0
79.797,514.0
79.798,523.0
79.799,529.0
79.8,532.0
79.801,528.0
79.802,523.0
79.803,520.0
79.804,517.0
79.805,519.0
79.806,528.0
79.807,528.0
79.808,529.0
79.809,526.0
79.81,522.0
79.811,519.0
79.812,515.0
79.813,519.0
79.814,527.0
79.815,523.0
79.816,525.0
79.817,520.0
79.818,513.0
79.819,513.0
79.82,515.0
79.821,519.0
79.822,525.0
79.823,527.0
79.824,523.0
79.825,520.0
79.826,514.0
79.827,513.0
79.828,515.0
79.829,520.0
79.83,521.0
79.831,525.0
79.832,527.0
79.833,518.0
79.834,513.0
79.835,514.0
79.836,514.0
79.837,520.0
79.838,516.0
79.839,526.0
79.84,521.0
79.841,517.0
79.842,512.0
79.843,515.0
79.844,515.0
79.845,520.0
79.846,516.0
79.847,524.0
79.848,517.0
79.849,513.0
79.85,511.0
79.851,517.0
79.852,516.0
79.853,516.0
79.854,514.0
79.855,521.0
79.856,517.0
79.857,513.0
79.858,511.0
79.859,514.0
79.86,517.0
79.861,515.0
79.862,516.0
79.863,521.0
79.864,517.0
79.865,511.0
79.866,510.0
79.867,514.0
79.868,518.0
79.869,514.0
79.87,519.0
79.871,520.0
79.872,515.0
79.873,512.0
79.874,513.0
79.875,515.0
79.876,521.0
79.877,511.0
79.878,519.0
79.879,516.0
79.88,512.0
79.881,507.0
79.882,507.0
79.883,512.0
79.884,521.0
79.885,516.0
79.886,517.0
79.887,515.0
79.888,511.0
79.889,507.0
79.89,509.0
79.891,513.0
79.892,523.0
79.893,515.0
79.894,513.0
79.895,514.0
79.896,515.0
79.897,510.0
79.898,511.0
79.899,514.0
79.9,524.0
79.901,516.0
79.902,514.0
79.903,521.0
79.904,535.0
79.905,523.0
79.906,517.0
79.907,512.0
79.908,523.0
79.909,514.0
79.91,514.0
79.911,530.0
79.912,552.0
79.913,533.0
79.914,517.0
79.915,511.0
79.916,521.0
79.917,514.0
79.918,511.0
79.919,532.0
79.92,564.0
79.921,537.0
79.922,515.0
79.923,509.0
79.924,519.0
79.925,514.0
79.926,510.0
79.927,544.0
79.928,568.0
79.929,536.0
79.93,510.0
79.931,510.0
79.932,515.0
79.933,505.0
79.934,507.0
79.935,528.0
79.936,547.0
79.937,520.0
79.938,502.0
79.939,512.0
79.94,517.0
79.941,507.0
79.942,503.0
79.943,506.0
79.944,511.0
79.945,502.0
79.946,505.0
79.947,518.0
79.948,522.0
79.949,512.0
79.95,507.0
79.951,506.0
79.952,511.0
79.953,505.0
79.954,512.0
79.955,520.0
79.956,525.0
79.957,522.0
79.958,521.0
79.959,518.0
79.96,513.0
79.961,514.0
79.962,525.0
79.963,522.0
79.964,527.0
79.965,521.0
79.966,516.0
79.967,513.0
79.968,515.0
79.969,519.0
79.97,524.0
79.971,521.0
79.972,523.0
79.973,520.0
79.974,516.0
79.975,514.0
79.976,512.0
79.977,516.0
79.978,525.0
79.979,522.0
79.98,524.0
79.981,519.0
79.982,513.0
79.983,511.0
79.984,513.0
79.985,519.0
79.986,528.0
79.987,525.0
79.988,520.0
79.989,516.0
79.99,511.0
79.991,512.0
79.992,525.0
79.993,520.0
79.994,523.0
79.995,526.0
79.996,523.0
79.997,517.0
79.998,514.0
79.999,513.0
80.0,512.0
80.001,522.0
80.002,523.0
80.003,526.0
80.004,521.0
80.005,517.0
80.006,512.0
80.007,513.0
80.008,517.0
80.009,522.0
80.01,521.0
80.011,523.0
80.012,520.0
80.013,514.0
80.014,510.0
80.015,512.0
80.016,516.0
80.017,521.0
80.018,521.0
80.019,523.0
80.02,519.0
80.021,512.0
80.022,512.0
80.023,514.0
80.024,519.0
80.025,521.0
80.026,522.0
80.027,522.0
80.028,516.0
80.029,509.0
80.03,510.0
80.031,511.0
80.032,517.0
80.033,521.0
80.034,521.0
80.035,519.0
80.036,516.0
80.037,509.0
80.038,509.0
80.039,513.0
80.04,520.0
80.041,522.0
80.042,523.0
80.043,517.0
80.044,513.0
80.045,508.0
80.046,509.0
80.047,514.0
80.048,521.0
80.049,519.0
80.05,516.0
80.051,511.0
80.052,511.0
80.053,509.0
80.054,507.0
80.055,511.0
80.056,524.0
80.057,522.0
80.058,519.0
80.059,515.0
80.06,512.0
80.061,507.0
80.062,509.0
80.063,516.0
80.064,525.0
80.065,522.0
80.066,515.0
80.067,511.0
80.068,513.0
80.069,509.0
80.07,510.0
80.071,515.0
80.072,523.0
80.073,520.0
80.074,510.0
80.075,512.0
80.076,516.0
80.077,511.0
80.078,509.0
80.079,517.0
80.08,526.0
80.081,521.0
80.082,514.0
80.083,512.0
80.084,521.0
80.085,511.0
80.086,511.0
80.087,522.0
80.088,526.0
80.089,521.0
80.09,515.0
80.091,512.0
80.092,517.0
80.093,510.0
80.094,518.0
80.095,525.0
80.096,528.0
80.097,525.0
80.098,519.0
80.099,515.0
80.1,517.0
80.101,513.0
80.102,518.0
80.103,527.0
80.104,528.0
80.105,525.0
80.106,520.0
80.107,517.0
80.108,518.0
80.109,514.0
80.11,517.0
80.111,528.0
80.112,529.0
80.113,529.0
80.114,524.0
80.115,520.0
80.116,518.0
80.117,519.0
80.118,524.0
80.119,528.0
80.12,529.0
80.121,528.0
80.122,523.0
80.123,519.0
80.124,519.0
80.125,516.0
80.126,524.0
80.127,527.0
80.128,527.0
80.129,524.0
80.13,523.0
80.131,517.0
80.132,516.0
80.133,517.0
80.134,524.0
80.135,522.0
80.136,524.0
80.137,519.0
80.138,516.0
80.139,512.0
80.14,512.0
80.141,518.0
80.142,520.0
80.143,522.0
80.144,521.0
80.145,517.0
80.146,512.0
80.147,511.0
80.148,510.0
80.149,518.0
80.15,515.0
80.151,523.0
80.152,521.0
80.153,517.0
80.154,511.0
80.155,511.0
80.156,513.0
80.157,517.0
80.158,512.0
80.159,523.0
80.16,521.0
80.161,515.0
80.162,513.0
80.163,511.0
80.164,512.0
80.165,514.0
80.166,511.0
80.167,524.0
80.168,523.0
80.169,513.0
80.17,511.0
80.171,512.0
80.172,516.0
80.173,516.0
80.174,512.0
80.175,520.0
80.176,517.0
80.177,510.0
80.178,510.0
80.179,512.0
80.18,515.0
80.181,515.0
80.182,511.0
80.183,519.0
80.184,514.0
80.185,508.0
80.186,510.0
80.187,511.0
80.188,516.0
80.189,515.0
80.19,511.0
80.191,516.0
80.192,513.0
80.193,506.0
80.194,508.0
80.195,511.0
80.196,518.0
80.197,517.0
80.198,513.0
80.199,514.0
80.2,513.0
80.201,507.0
80.202,509.0
80.203,512.0
80.204,520.0
80.205,522.0
80.206,513.0
80.207,512.0
80.208,519.0
80.209,512.0
80.21,515.0
80.211,514.0
80.212,522.0
80.213,519.0
80.214,515.0
80.215,520.0
80.216,544.0
80.217,540.0
80.218,531.0
80.219,514.0
80.22,518.0
80.221,516.0
80.222,516.0
80.223,528.0
80.224,562.0
80.225,546.0
80.226,532.0
80.227,510.0
80.228,516.0
80.229,510.0
80.23,523.0
80.231,554.0
80.232,595.0
80.233,580.0
80.234,543.0
80.235,514.0
80.236,509.0
80.237,500.0
80.238,496.0
80.239,515.0
80.24,543.0
80.241,535.0
80.242,506.0
80.243,500.0
80.244,509.0
80.245,502.0
80.246,494.0
80.247,503.0
80.248,524.0
80.249,511.0
80.25,497.0
80.251,506.0
80.252,512.0
80.253,509.0
80.254,501.0
80.255,499.0
80.256,506.0
80.257,500.0
80.258,502.0
80.259,515.0
80.26,515.0
80.261,518.0
80.262,510.0
80.263,507.0
80.264,516.0
80.265,507.0
80.266,511.0
80.267,517.0
80.268,523.0
80.269,518.0
80.27,513.0
80.271,509.0
80.272,509.0
80.273,509.0
80.274,516.0
80.275,519.0
80.276,522.0
80.277,524.0
80.278,513.0
80.279,510.0
80.28,510.0
80.281,511.0
80.282,518.0
80.283,517.0
80.284,523.0
80.285,516.0
80.286,512.0
80.287,508.0
80.288,510.0
80.289,512.0
80.29,520.0
80.291,518.0
80.292,523.0
80.293,516.0
80.294,512.0
80.295,510.0
80.296,512.0
80.297,514.0
80.298,519.0
80.299,519.0
80.3,519.0
80.301,518.0
80.302,507.0
80.303,507.0
80.304,512.0
80.305,517.0
80.306,521.0
80.307,523.0
80.308,521.0
80.309,518.0
80.31,513.0
80.311,510.0
80.312,512.0
80.313,518.0
80.314,519.0
80.315,520.0
80.316,515.0
80.317,509.0
80.318,504.0
80.319,504.0
80.32,511.0
80.321,515.0
80.322,515.0
80.323,524.0
80.324,518.0
80.325,512.0
80.326,507.0
80.327,508.0
80.328,513.0
80.329,518.0
80.33,516.0
80.331,522.0
80.332,517.0
80.333,511.0
80.334,508.0
80.335,508.0
80.336,515.0
80.337,520.0
80.338,515.0
80.339,520.0
80.34,514.0
80.341,508.0
80.342,507.0
80.343,508.0
80.344,514.0
80.345,519.0
80.346,513.0
80.347,516.0
80.348,511.0
80.349,507.0
80.35,505.0
80.351,506.0
80.352,514.0
80.353,522.0
80.354,519.0
80.355,517.0
80.356,513.0
80.357,507.0
80.358,507.0
80.359,510.0
80.36,517.0
80.361,518.0
80.362,517.0
80.363,512.0
80.364,509.0
80.365,505.0
80.366,505.0
80.367,508.0
80.368,518.0
80.369,519.0
80.37,515.0
80.371,512.0
80.372,513.0
80.373,507.0
80.374,506.0
80.375,510.0
80.376,520.0
80.377,521.0
80.378,513.0
80.379,511.0
80.38,510.0
80.381,510.0
80.382,509.0
80.383,511.0
80.384,522.0
80.385,517.0
80.386,508.0
80.387,507.0
80.388,518.0
80.389,517.0
80.39,514.0
80.391,507.0
80.392,524.0
80.393,526.0
80.394,519.0
80.395,511.0
80.396,512.0
80.397,510.0
80.398,508.0
80.399,515.0
80.4,523.0
80.401,525.0
80.402,516.0
80.403,512.0
80.404,512.0
80.405,512.0
80.406,509.0
80.407,520.0
80.408,524.0
80.409,526.0
80.41,522.0
80.411,513.0
80.412,517.0
80.413,512.0
80.414,515.0
80.415,520.0
80.416,523.0
80.417,528.0
80.418,524.0
80.419,520.0
80.42,516.0
80.421,516.0
80.422,517.0
80.423,527.0
80.424,527.0
80.425,527.0
80.426,522.0
80.427,519.0
80.428,517.0
80.429,517.0
80.43,520.0
80.431,526.0
80.432,525.0
80.433,523.0
80.434,521.0
80.435,515.0
80.436,513.0
80.437,514.0
80.438,521.0
80.439,524.0
80.44,523.0
80.441,519.0
80.442,516.0
80.443,512.0
80.444,513.0
80.445,514.0
80.446,517.0
80.447,517.0
80.448,525.0
80.449,518.0
80.45,516.0
80.451,512.0
80.452,511.0
80.453,513.0
80.454,515.0
80.455,517.0
80.456,521.0
80.457,516.0
80.458,512.0
80.459,508.0
80.46,510.0
80.461,513.0
80.462,513.0
80.463,514.0
80.464,521.0
80.465,516.0
80.466,513.0
80.467,511.0
80.468,512.0
80.469,517.0
80.47,512.0
80.471,516.0
80.472,519.0
80.473,514.0
80.474,510.0
80.475,511.0
80.476,511.0
80.477,516.0
80.478,512.0
80.479,520.0
80.48,519.0
80.481,513.0
80.482,509.0
80.483,510.0
80.484,514.0
80.485,517.0
80.486,510.0
80.487,521.0
80.488,516.0
80.489,511.0
80.49,509.0
80.491,510.0
80.492,514.0
80.493,516.0
80.494,509.0
80.495,518.0
80.496,515.0
80.497,508.0
80.498,508.0
80.499,510.0
80.5,513.0
80.501,520.0
80.502,513.0
80.503,516.0
80.504,515.0
80.505,509.0
80.506,509.0
80.507,509.0
80.508,514.0
80.509,521.0
80.51,513.0
80.511,511.0
80.512,516.0
80.513,516.0
80.514,513.0
80.515,511.0
80.516,516.0
80.517,520.0
80.518,516.0
80.519,514.0
80.52,532.0
80.521,537.0
80.522,529.0
80.523,517.0
80.524,514.0
80.525,519.0
80.526,519.0
80.527,521.0
80.528,556.0
80.529,565.0
80.53,544.0
80.531,519.0
80.532,511.0
80.533,516.0
80.534,515.0
80.535,518.0
80.536,557.0
80.537,569.0
80.538,539.0
80.539,512.0
80.54,511.0
80.541,512.0
80.542,507.0
80.543,512.0
80.544,550.0
80.545,546.0
80.546,523.0
80.547,502.0
80.548,512.0
80.549,512.0
80.55,504.0
80.551,508.0
80.552,524.0
80.553,532.0
80.554,510.0
80.555,499.0
80.556,514.0
80.557,516.0
80.558,507.0
80.559,503.0
80.56,510.0
80.561,513.0
80.562,502.0
80.563,508.0
80.564,521.0
80.565,522.0
80.566,509.0
80.567,506.0
80.568,511.0
80.569,510.0
80.57,508.0
80.571,517.0
80.572,522.0
80.573,525.0
80.574,522.0
80.575,515.0
80.576,514.0
80.577,514.0
80.578,517.0
80.579,523.0
80.58,525.0
80.581,524.0
80.582,519.0
80.583,516.0
80.584,515.0
80.585,513.0
80.586,520.0
80.587,527.0
80.588,524.0
80.589,524.0
80.59,520.0
80.591,515.0
80.592,515.0
80.593,515.0
80.594,522.0
80.595,526.0
80.596,527.0
80.597,521.0
80.598,517.0
80.599,513.0
80.6,514.0
80.601,514.0
80.602,522.0
80.603,525.0
80.604,528.0
80.605,520.0
80.606,517.0
80.607,514.0
80.608,513.0
80.609,517.0
80.61,523.0
80.611,523.0
80.612,526.0
80.613,520.0
80.614,516.0
80.615,513.0
80.616,512.0
80.617,517.0
80.618,522.0
80.619,523.0
80.62,523.0
80.621,519.0
80.622,511.0
80.623,511.0
80.624,512.0
80.625,516.0
80.626,521.0
80.627,522.0
80.628,523.0
80.629,517.0
80.63,511.0
80.631,510.0
80.632,514.0
80.633,519.0
80.634,519.0
80.635,523.0
80.636,521.0
80.637,516.0
80.638,511.0
80.639,511.0
80.64,515.0
80.641,521.0
80.642,520.0
80.643,523.0
80.644,521.0
80.645,518.0
80.646,511.0
80.647,511.0
80.648,516.0
80.649,521.0
80.65,521.0
80.651,524.0
80.652,518.0
80.653,514.0
80.654,510.0
80.655,511.0
80.656,517.0
80.657,525.0
80.658,523.0
80.659,522.0
80.66,518.0
80.661,513.0
80.662,508.0
80.663,510.0
80.664,517.0
80.665,527.0
80.666,517.0
80.667,515.0
80.668,512.0
80.669,508.0
80.67,506.0
80.671,506.0
80.672,514.0
80.673,524.0
80.674,519.0
80.675,516.0
80.676,514.0
80.677,509.0
80.678,508.0
80.679,510.0
80.68,517.0
80.681,523.0
80.682,519.0
80.683,515.0
80.684,514.0
80.685,508.0
80.686,507.0
80.687,509.0
80.688,520.0
80.689,527.0
80.69,519.0
80.691,512.0
80.692,509.0
80.693,517.0
80.694,510.0
80.695,510.0
80.696,521.0
80.697,524.0
80.698,518.0
80.699,512.0
80.7,516.0
80.701,518.0
80.702,511.0
80.703,510.0
80.704,524.0
80.705,526.0
80.706,517.0
80.707,513.0
80.708,514.0
80.709,518.0
80.71,512.0
80.711,514.0
80.712,527.0
80.713,529.0
80.714,523.0
80.715,519.0
80.716,515.0
80.717,516.0
80.718,513.0
80.719,521.0
80.72,528.0
80.721,531.0
80.722,525.0
80.723,519.0
80.724,517.0
80.725,517.0
80.726,516.0
80.727,525.0
80.728,528.0
80.729,530.0
80.73,527.0
80.731,523.0
80.732,517.0
80.733,517.0
80.734,519.0
80.735,527.0
80.736,527.0
80.737,528.0
80.738,526.0
80.739,521.0
80.74,518.0
80.741,517.0
80.742,519.0
80.743,525.0
80.744,525.0
80.745,526.0
80.746,523.0
80.747,518.0
80.748,517.0
80.749,516.0
80.75,520.0
80.751,524.0
80.752,524.0
80.753,523.0
80.754,519.0
80.755,515.0
80.756,514.0
80.757,514.0
80.758,520.0
80.759,520.0
80.76,524.0
80.761,519.0
80.762,516.0
80.763,512.0
80.764,512.0
80.765,518.0
80.766,519.0
80.767,516.0
80.768,528.0
80.769,520.0
80.77,514.0
80.771,510.0
80.772,513.0
80.773,515.0
80.774,517.0
80.775,513.0
80.776,525.0
80.777,522.0
80.778,517.0
80.779,513.0
80.78,516.0
80.781,519.0
80.782,519.0
80.783,516.0
80.784,523.0
80.785,518.0
80.786,515.0
80.787,513.0
80.788,513.0
80.789,518.0
80.79,515.0
80.791,516.0
80.792,522.0
80.793,515.0
80.794,512.0
80.795,510.0
80.796,513.0
80.797,517.0
80.798,513.0
80.799,514.0
80.8,518.0
80.801,514.0
80.802,507.0
80.803,507.0
80.804,511.0
80.805,518.0
80.806,512.0
80.807,515.0
80.808,514.0
80.809,512.0
80.81,502.0
80.811,507.0
80.812,512.0
80.813,519.0
80.814,516.0
80.815,515.0
80.816,513.0
80.817,513.0
80.818,507.0
80.819,508.0
80.82,511.0
80.821,528.0
80.822,518.0
80.823,511.0
80.824,512.0
80.825,518.0
80.826,513.0
80.827,510.0
80.828,512.0
80.829,521.0
80.83,513.0
80.831,521.0
80.832,535.0
80.833,571.0
80.834,551.0
80.835,533.0
80.836,513.0
80.837,514.0
80.838,509.0
80.839,513.0
80.84,543.0
80.841,576.0
80.842,552.0
80.843,525.0
80.844,505.0
80.845,507.0
80.846,507.0
80.847,512.0
80.848,546.0
80.849,581.0
80.85,548.0
80.851,516.0
80.852,497.0
80.853,502.0
80.854,497.0
80.855,499.0
80.856,522.0
80.857,551.0
80.858,521.0
80.859,499.0
80.86,501.0
80.861,507.0
80.862,498.0
80.863,496.0
80.864,501.0
80.865,520.0
80.866,503.0
80.867,495.0
80.868,508.0
80.869,510.0
80.87,504.0
80.871,499.0
80.872,499.0
80.873,504.0
80.874,498.0
80.875,501.0
80.876,514.0
80.877,519.0
80.878,514.0
80.879,507.0
80.88,504.0
80.881,507.0
80.882,504.0
80.883,511.0
80.884,515.0
80.885,520.0
80.886,517.0
80.887,512.0
80.888,508.0
80.889,507.0
80.89,510.0
80.891,516.0
80.892,517.0
80.893,521.0
80.894,515.0
80.895,508.0
80.896,506.0
80.897,507.0
80.898,511.0
80.899,517.0
80.9,517.0
80.901,517.0
80.902,512.0
80.903,507.0
80.904,506.0
80.905,508.0
80.906,512.0
80.907,517.0
80.908,518.0
80.909,517.0
80.91,513.0
80.911,509.0
80.912,509.0
80.913,509.0
80.914,514.0
80.915,518.0
80.916,520.0
80.917,518.0
80.918,514.0
80.919,511.0
80.92,510.0
80.921,510.0
80.922,517.0
80.923,519.0
80.924,520.0
80.925,517.0
80.926,513.0
80.927,509.0
80.928,509.0
80.929,510.0
80.93,516.0
80.931,516.0
80.932,521.0
80.933,514.0
80.934,510.0
80.935,505.0
80.936,507.0
80.937,511.0
80.938,516.0
80.939,515.0
80.94,521.0
80.941,515.0
80.942,509.0
80.943,510.0
80.944,508.0
80.945,514.0
80.946,520.0
80.947,518.0
80.948,519.0
80.949,515.0
80.95,509.0
80.951,507.0
80.952,509.0
80.953,513.0
80.954,519.0
80.955,515.0
80.956,518.0
80.957,513.0
80.958,508.0
80.959,508.0
80.96,508.0
80.961,516.0
80.962,516.0
80.963,516.0
80.964,515.0
80.965,511.0
80.966,506.0
80.967,505.0
80.968,508.0
80.969,518.0
80.97,521.0
80.971,518.0
80.972,514.0
80.973,510.0
80.974,506.0
80.975,507.0
80.976,510.0
80.977,520.0
80.978,520.0
80.979,515.0
80.98,511.0
80.981,510.0
80.982,506.0
80.983,506.0
80.984,512.0
80.985,521.0
80.986,517.0
80.987,514.0
80.988,508.0
80.989,512.0
80.99,509.0
80.991,510.0
80.992,513.0
80.993,524.0
80.994,520.0
80.995,511.0
80.996,511.0
80.997,512.0
80.998,510.0
80.999,508.0
81.0,513.0
81.001,525.0
81.002,521.0
81.003,512.0
81.004,512.0
81.005,518.0
81.006,513.0
81.007,508.0
81.008,515.0
81.009,526.0
81.01,528.0
81.011,519.0
81.012,513.0
81.013,515.0
81.014,510.0
81.015,513.0
81.016,522.0
81.017,524.0
81.018,520.0
81.019,516.0
81.02,513.0
81.021,516.0
81.022,513.0
81.023,513.0
81.024,524.0
81.025,526.0
81.026,529.0
81.027,527.0
81.028,519.0
81.029,519.0
81.03,516.0
81.031,522.0
81.032,530.0
81.033,529.0
81.034,532.0
81.035,528.0
81.036,523.0
81.037,521.0
81.038,519.0
81.039,524.0
81.04,528.0
81.041,530.0
81.042,528.0
81.043,524.0
81.044,519.0
81.045,517.0
81.046,519.0
81.047,524.0
81.048,527.0
81.049,530.0
81.05,525.0
81.051,519.0
81.052,517.0
81.053,516.0
81.054,517.0
81.055,522.0
81.056,522.0
81.057,526.0
81.058,523.0
81.059,519.0
81.06,512.0
81.061,516.0
81.062,518.0
81.063,517.0
81.064,523.0
81.065,523.0
81.066,518.0
81.067,515.0
81.068,512.0
81.069,511.0
81.07,517.0
81.071,517.0
81.072,521.0
81.073,520.0
81.074,517.0
81.075,513.0
81.076,512.0
81.077,513.0
81.078,518.0
81.079,515.0
81.08,522.0
81.081,521.0
81.082,517.0
81.083,513.0
81.084,512.0
81.085,514.0
81.086,520.0
81.087,511.0
81.088,523.0
81.089,519.0
81.09,513.0
81.091,511.0
81.092,511.0
81.093,516.0
81.094,518.0
81.095,510.0
81.096,525.0
81.097,520.0
81.098,513.0
81.099,507.0
81.1,511.0
81.101,513.0
81.102,519.0
81.103,510.0
81.104,522.0
81.105,517.0
81.106,512.0
81.107,511.0
81.108,513.0
81.109,518.0
81.11,517.0
81.111,511.0
81.112,520.0
81.113,518.0
81.114,511.0
81.115,509.0
81.116,513.0
81.117,519.0
81.118,523.0
81.119,519.0
81.12,518.0
81.121,516.0
81.122,510.0
81.123,509.0
81.124,512.0
81.125,519.0
81.126,517.0
81.127,516.0
81.128,514.0
81.129,521.0
81.13,517.0
81.131,518.0
81.132,515.0
81.133,520.0
81.134,522.0
81.135,517.0
81.136,517.0
81.137,538.0
81.138,535.0
81.139,529.0
81.14,516.0
81.141,520.0
81.142,519.0
81.143,518.0
81.144,524.0
81.145,555.0
81.146,559.0
81.147,543.0
81.148,519.0
81.149,518.0
81.15,512.0
81.151,514.0
81.152,527.0
81.153,566.0
81.154,562.0
81.155,538.0
81.156,511.0
81.157,517.0
81.158,510.0
81.159,506.0
81.16,521.0
81.161,556.0
81.162,547.0
81.163,520.0
81.164,505.0
81.165,514.0
81.166,511.0
81.167,501.0
81.168,508.0
81.169,537.0
81.17,524.0
81.171,504.0
81.172,507.0
81.173,528.0
81.174,514.0
81.175,505.0
81.176,503.0
81.177,509.0
81.178,506.0
81.179,505.0
81.18,514.0
81.181,518.0
81.182,519.0
81.183,513.0
81.184,507.0
81.185,510.0
81.186,509.0
81.187,512.0
81.188,522.0
81.189,523.0
81.19,525.0
81.191,521.0
81.192,516.0
81.193,514.0
81.194,515.0
81.195,519.0
81.196,525.0
81.197,525.0
81.198,522.0
81.199,515.0
81.2,514.0
81.201,513.0
81.202,514.0
81.203,518.0
81.204,524.0
81.205,525.0
81.206,519.0
81.207,516.0
81.208,511.0
81.209,512.0
81.21,512.0
81.211,521.0
81.212,524.0
81.213,527.0
81.214,522.0
81.215,516.0
81.216,511.0
81.217,514.0
81.218,514.0
81.219,521.0
81.22,524.0
81.221,526.0
81.222,520.0
81.223,514.0
81.224,512.0
81.225,512.0
81.226,517.0
81.227,521.0
81.228,522.0
81.229,521.0
81.23,518.0
81.231,512.0
81.232,511.0
81.233,512.0
81.234,516.0
81.235,524.0
81.236,521.0
81.237,521.0
81.238,516.0
81.239,512.0
81.24,512.0
81.241,513.0
81.242,520.0
81.243,516.0
81.244,523.0
81.245,518.0
81.246,513.0
81.247,508.0
81.248,510.0
81.249,510.0
81.25,519.0
81.251,518.0
81.252,525.0
81.253,518.0
81.254,512.0
81.255,508.0
81.256,508.0
81.257,514.0
81.258,515.0
81.259,510.0
81.26,519.0
81.261,513.0
81.262,509.0
81.263,505.0
81.264,507.0
81.265,513.0
81.266,519.0
81.267,518.0
81.268,519.0
81.269,521.0
81.27,510.0
81.271,503.0
81.272,508.0
81.273,513.0
81.274,521.0
81.275,515.0
81.276,515.0
81.277,511.0
81.278,506.0
81.279,504.0
81.28,506.0
81.281,513.0
81.282,520.0
81.283,514.0
81.284,511.0
81.285,508.0
81.286,504.0
81.287,505.0
81.288,505.0
81.289,513.0
81.29,521.0
81.291,516.0
81.292,511.0
81.293,509.0
81.294,503.0
81.295,504.0
81.296,508.0
81.297,517.0
81.298,520.0
81.299,513.0
81.3,509.0
81.301,509.0
81.302,507.0
81.303,506.0
81.304,507.0
81.305,515.0
81.306,519.0
81.307,511.0
81.308,506.0
81.309,511.0
81.31,511.0
81.311,507.0
81.312,508.0
81.313,519.0
81.314,519.0
81.315,509.0
81.316,505.0
81.317,515.0
81.318,516.0
81.319,511.0
81.32,508.0
81.321,522.0
81.322,519.0
81.323,511.0
81.324,507.0
81.325,513.0
81.326,510.0
81.327,506.0
81.328,511.0
81.329,521.0
81.33,524.0
81.331,518.0
81.332,513.0
81.333,512.0
81.334,509.0
81.335,510.0
81.336,519.0
81.337,524.0
81.338,526.0
81.339,520.0
81.34,515.0
81.341,515.0
81.342,511.0
81.343,511.0
81.344,522.0
81.345,523.0
81.346,526.0
81.347,523.0
81.348,517.0
81.349,516.0
81.35,514.0
81.351,516.0
81.352,525.0
81.353,524.0
81.354,522.0
81.355,518.0
81.356,512.0
81.357,513.0
81.358,511.0
81.359,516.0
81.36,521.0
81.361,520.0
81.362,520.0
81.363,518.0
81.364,513.0
81.365,511.0
81.366,511.0
81.367,516.0
81.368,519.0
81.369,522.0
81.37,519.0
81.371,515.0
81.372,512.0
81.373,511.0
81.374,511.0
81.375,517.0
81.376,518.0
81.377,522.0
81.378,517.0
81.379,515.0
81.38,507.0
81.381,510.0
81.382,511.0
81.383,513.0
81.384,512.0
81.385,518.0
81.386,515.0
81.387,510.0
81.388,507.0
81.389,510.0
81.39,513.0
81.391,510.0
81.392,515.0
81.393,517.0
81.394,512.0
81.395,509.0
81.396,509.0
81.397,513.0
81.398,514.0
81.399,509.0
81.4,518.0
81.401,518.0
81.402,513.0
81.403,513.0
81.404,506.0
81.405,510.0
81.406,513.0
81.407,508.0
81.408,517.0
81.409,519.0
81.41,511.0
81.411,506.0
81.412,513.0
81.413,511.0
81.414,518.0
81.415,508.0
81.416,517.0
81.417,515.0
81.418,510.0
81.419,506.0
81.42,508.0
81.421,512.0
81.422,518.0
81.423,510.0
81.424,515.0
81.425,513.0
81.426,507.0
81.427,507.0
81.428,506.0
81.429,513.0
81.43,523.0
81.431,516.0
81.432,514.0
81.433,512.0
81.434,509.0
81.435,506.0
81.436,507.0
81.437,514.0
81.438,522.0
81.439,514.0
81.44,509.0
81.441,518.0
81.442,522.0
81.443,517.0
81.444,512.0
81.445,511.0
81.446,523.0
81.447,514.0
81.448,513.0
81.449,533.0
81.45,549.0
81.451,534.0
81.452,517.0
81.453,511.0
81.454,515.0
81.455,514.0
81.456,519.0
81.457,550.0
81.458,572.0
81.459,544.0
81.46,518.0
81.461,509.0
81.462,512.0
81.463,512.0
81.464,513.0
81.465,546.0
81.466,562.0
81.467,536.0
81.468,508.0
81.469,507.0
81.47,509.0
81.471,499.0
81.472,502.0
81.473,519.0
81.474,531.0
81.475,509.0
81.476,498.0
81.477,512.0
81.478,516.0
81.479,503.0
81.48,499.0
81.481,511.0
81.482,517.0
81.483,502.0
81.484,503.0
81.485,515.0
81.486,520.0
81.487,513.0
81.488,506.0
81.489,508.0
81.49,507.0
81.491,502.0
81.492,514.0
81.493,520.0
81.494,533.0
81.495,517.0
81.496,512.0
81.497,511.0
81.498,510.0
81.499,514.0
81.5,519.0
81.501,521.0
81.502,525.0
81.503,519.0
81.504,515.0
81.505,513.0
81.506,513.0
81.507,517.0
81.508,524.0
81.509,525.0
81.51,527.0
81.511,522.0
81.512,516.0
81.513,513.0
81.514,517.0
81.515,519.0
81.516,524.0
81.517,522.0
81.518,523.0
81.519,519.0
81.52,514.0
81.521,514.0
81.522,514.0
81.523,521.0
81.524,524.0
81.525,527.0
81.526,521.0
81.527,517.0
81.528,512.0
81.529,520.0
81.53,514.0
81.531,521.0
81.532,523.0
81.533,526.0
81.534,522.0
81.535,515.0
81.536,514.0
81.537,513.0
81.538,521.0
81.539,522.0
81.54,523.0
81.541,524.0
81.542,520.0
81.543,515.0
81.544,513.0
81.545,513.0
81.546,517.0
81.547,522.0
81.548,522.0
81.549,522.0
81.55,520.0
81.551,514.0
81.552,512.0
81.553,511.0
81.554,517.0
81.555,521.0
81.556,522.0
81.557,521.0
81.558,516.0
81.559,510.0
81.56,510.0
81.561,513.0
81.562,518.0
81.563,521.0
81.564,521.0
81.565,520.0
81.566,517.0
81.567,512.0
81.568,510.0
81.569,515.0
81.57,520.0
81.571,522.0
81.572,524.0
81.573,521.0
81.574,516.0
81.575,512.0
81.576,513.0
81.577,515.0
81.578,521.0
81.579,519.0
81.58,522.0
81.581,516.0
81.582,513.0
81.583,508.0
81.584,509.0
81.585,515.0
81.586,523.0
81.587,520.0
81.588,519.0
81.589,516.0
81.59,512.0
81.591,508.0
81.592,509.0
81.593,515.0
81.594,524.0
81.595,520.0
81.596,517.0
81.597,515.0
81.598,511.0
81.599,508.0
81.6,507.0
81.601,516.0
81.602,523.0
81.603,521.0
81.604,517.0
81.605,515.0
81.606,514.0
81.607,509.0
81.608,511.0
81.609,518.0
81.61,525.0
81.611,522.0
81.612,513.0
81.613,513.0
81.614,517.0
81.615,512.0
81.616,510.0
81.617,521.0
81.618,523.0
81.619,523.0
81.62,515.0
81.621,515.0
81.622,518.0
81.623,514.0
81.624,513.0
81.625,523.0
81.626,530.0
81.627,526.0
81.628,520.0
81.629,518.0
81.63,519.0
81.631,513.0
81.632,516.0
81.633,527.0
81.634,531.0
81.635,525.0
81.636,521.0
81.637,517.0
81.638,516.0
81.639,514.0
81.64,519.0
81.641,533.0
81.642,530.0
81.643,530.0
81.644,523.0
81.645,517.0
81.646,518.0
81.647,517.0
81.648,524.0
81.649,531.0
81.65,532.0
81.651,529.0
81.652,524.0
81.653,521.0
81.654,516.0
81.655,521.0
81.656,526.0
81.657,527.0
81.658,532.0
81.659,528.0
81.66,523.0
81.661,518.0
81.662,517.0
81.663,519.0
81.664,528.0
81.665,524.0
81.666,526.0
81.667,524.0
81.668,518.0
81.669,516.0
81.67,515.0
81.671,519.0
81.672,524.0
81.673,521.0
81.674,525.0
81.675,521.0
81.676,516.0
81.677,514.0
81.678,517.0
81.679,523.0
81.68,523.0
81.681,526.0
81.682,525.0
81.683,519.0
81.684,516.0
81.685,514.0
81.686,515.0
81.687,521.0
81.688,520.0
81.689,526.0
81.69,520.0
81.691,516.0
81.692,512.0
81.693,513.0
81.694,514.0
81.695,519.0
81.696,514.0
81.697,525.0
81.698,522.0
81.699,516.0
81.7,513.0
81.701,513.0
81.702,516.0
81.703,519.0
81.704,512.0
81.705,524.0
81.706,521.0
81.707,515.0
81.708,512.0
81.709,514.0
81.71,517.0
81.711,516.0
81.712,514.0
81.713,524.0
81.714,520.0
81.715,512.0
81.716,513.0
81.717,514.0
81.718,519.0
81.719,517.0
81.72,517.0
81.721,523.0
81.722,518.0
81.723,512.0
81.724,512.0
81.725,515.0
81.726,518.0
81.727,516.0
81.728,516.0
81.729,517.0
81.73,516.0
81.731,510.0
81.732,513.0
81.733,513.0
81.734,521.0
81.735,518.0
81.736,520.0
81.737,518.0
81.738,518.0
81.739,510.0
81.74,512.0
81.741,515.0
81.742,524.0
81.743,519.0
81.744,517.0
81.745,517.0
81.746,527.0
81.747,520.0
81.748,518.0
81.749,518.0
81.75,527.0
81.751,521.0
81.752,516.0
81.753,529.0
81.754,539.0
81.755,532.0
81.756,527.0
81.757,517.0
81.758,523.0
81.759,518.0
81.76,519.0
81.761,529.0
81.762,557.0
81.763,548.0
81.764,531.0
81.765,515.0
81.766,520.0
81.767,514.0
81.768,514.0
81.769,529.0
81.77,557.0
81.771,541.0
81.772,521.0
81.773,511.0
81.774,518.0
81.775,514.0
81.776,513.0
81.777,538.0
81.778,570.0
81.779,549.0
81.78,517.0
81.781,510.0
81.782,513.0
81.783,508.0
81.784,503.0
81.785,511.0
81.786,530.0
81.787,514.0
81.788,504.0
81.789,514.0
81.79,518.0
81.791,513.0
81.792,507.0
81.793,508.0
81.794,516.0
81.795,504.0
81.796,508.0
81.797,520.0
81.798,523.0
81.799,520.0
81.8,514.0
81.801,512.0
81.802,513.0
81.803,509.0
81.804,516.0
81.805,525.0
81.806,527.0
81.807,526.0
81.808,522.0
81.809,518.0
81.81,518.0
81.811,516.0
81.812,525.0
81.813,526.0
81.814,530.0
81.815,526.0
81.816,522.0
81.817,517.0
81.818,517.0
81.819,518.0
81.82,526.0
81.821,524.0
81.822,528.0
81.823,523.0
81.824,516.0
81.825,515.0
81.826,514.0
81.827,518.0
81.828,524.0
81.829,524.0
81.83,527.0
81.831,521.0
81.832,514.0
81.833,512.0
81.834,517.0
81.835,517.0
81.836,526.0
81.837,524.0
81.838,524.0
81.839,521.0
81.84,517.0
81.841,514.0
81.842,517.0
81.843,522.0
81.844,526.0
81.845,525.0
81.846,522.0
81.847,520.0
81.848,516.0
81.849,514.0
81.85,516.0
81.851,521.0
81.852,523.0
81.853,526.0
81.854,523.0
81.855,516.0
81.856,514.0
81.857,514.0
81.858,515.0
81.859,521.0
81.86,523.0
81.861,526.0
81.862,521.0
81.863,515.0
81.864,512.0
81.865,513.0
81.866,517.0
81.867,521.0
81.868,519.0
81.869,525.0
81.87,522.0
81.871,515.0
81.872,511.0
81.873,514.0
81.874,519.0
81.875,523.0
81.876,518.0
81.877,522.0
81.878,519.0
81.879,514.0
81.88,510.0
81.881,512.0
81.882,519.0
81.883,524.0
81.884,522.0
81.885,522.0
81.886,520.0
81.887,513.0
81.888,512.0
81.889,513.0
81.89,520.0
81.891,521.0
81.892,517.0
81.893,513.0
81.894,514.0
81.895,508.0
81.896,507.0
81.897,511.0
81.898,520.0
81.899,522.0
81.9,518.0
81.901,514.0
81.902,513.0
81.903,507.0
81.904,509.0
81.905,512.0
81.906,522.0
81.907,526.0
81.908,519.0
81.909,516.0
81.91,514.0
81.911,510.0
81.912,511.0
81.913,515.0
81.914,526.0
81.915,523.0
81.916,519.0
81.917,514.0
81.918,515.0
81.919,509.0
81.92,510.0
81.921,516.0
81.922,527.0
81.923,524.0
81.924,515.0
81.925,512.0
81.926,519.0
81.927,513.0
81.928,512.0
81.929,516.0
81.93,527.0
81.931,525.0
81.932,517.0
81.933,512.0
81.934,520.0
81.935,513.0
81.936,511.0
81.937,519.0
81.938,526.0
81.939,528.0
81.94,521.0
81.941,516.0
81.942,516.0
81.943,515.0
81.944,515.0
81.945,522.0
81.946,529.0
81.947,525.0
81.948,521.0
81.949,517.0
81.95,517.0
81.951,514.0
81.952,516.0
81.953,527.0
81.954,528.0
81.955,532.0
81.956,528.0
81.957,521.0
81.958,520.0
81.959,518.0
81.96,521.0
81.961,529.0
81.962,530.0
81.963,529.0
81.964,526.0
81.965,521.0
81.966,520.0
81.967,517.0
81.968,524.0
81.969,529.0
81.97,531.0
81.971,524.0
81.972,522.0
81.973,522.0
81.974,519.0
81.975,518.0
81.976,523.0
81.977,527.0
81.978,530.0
81.979,527.0
81.98,521.0
81.981,518.0
81.982,519.0
81.983,520.0
81.984,523.0
81.985,524.0
81.986,527.0
81.987,524.0
81.988,520.0
81.989,515.0
81.99,516.0
81.991,520.0
81.992,521.0
81.993,521.0
81.994,527.0
81.995,524.0
81.996,519.0
81.997,515.0
81.998,515.0
81.999,520.0
82.0,519.0
82.001,522.0
82.002,524.0
82.003,521.0
82.004,515.0
82.005,514.0
82.006,514.0
82.007,519.0
82.008,516.0
82.009,522.0
82.01,523.0
82.011,515.0
82.012,512.0
82.013,513.0
82.014,515.0
82.015,520.0
82.016,512.0
82.017,524.0
82.018,523.0
82.019,514.0
82.02,513.0
82.021,512.0
82.022,515.0
82.023,518.0
82.024,509.0
82.025,522.0
82.026,518.0
82.027,512.0
82.028,511.0
82.029,511.0
82.03,516.0
82.031,518.0
82.032,512.0
82.033,518.0
82.034,517.0
82.035,508.0
82.036,509.0
82.037,510.0
82.038,516.0
82.039,519.0
82.04,511.0
82.041,517.0
82.042,514.0
82.043,509.0
82.044,507.0
82.045,510.0
82.046,518.0
82.047,525.0
82.048,514.0
82.049,514.0
82.05,514.0
82.051,509.0
82.052,510.0
82.053,510.0
82.054,516.0
82.055,521.0
82.056,513.0
82.057,509.0
82.058,525.0
82.059,527.0
82.06,523.0
82.061,516.0
82.062,515.0
82.063,519.0
82.064,514.0
82.065,513.0
82.066,532.0
82.067,545.0
82.068,531.0
82.069,515.0
82.07,516.0
82.071,515.0
82.072,523.0
82.073,531.0
82.074,574.0
82.075,583.0
82.076,556.0
82.077,521.0
82.078,512.0
82.079,510.0
82.08,512.0
82.081,519.0
82.082,560.0
82.083,568.0
82.084,538.0
82.085,507.0
82.086,509.0
82.087,511.0
82.088,500.0
82.089,500.0
82.09,516.0
82.091,520.0
82.092,505.0
82.093,500.0
82.094,514.0
82.095,517.0
82.096,504.0
82.097,503.0
82.098,510.0
82.099,506.0
82.1,503.0
82.101,510.0
82.102,521.0
82.103,523.0
82.104,515.0
82.105,510.0
82.106,515.0
82.107,509.0
82.108,512.0
82.109,519.0
82.11,517.0
82.111,523.0
82.112,517.0
82.113,513.0
82.114,514.0
82.115,511.0
82.116,517.0
82.117,525.0
82.118,523.0
82.119,523.0
82.12,520.0
82.121,515.0
82.122,515.0
82.123,514.0
82.124,520.0
82.125,526.0
82.126,525.0
82.127,524.0
82.128,518.0
82.129,514.0
82.13,515.0
82.131,514.0
82.132,522.0
82.133,525.0
82.134,526.0
82.135,521.0
82.136,519.0
82.137,513.0
82.138,515.0
82.139,515.0
82.14,522.0
82.141,524.0
82.142,525.0
82.143,520.0
82.144,514.0
82.145,511.0
82.146,513.0
82.147,515.0
82.148,522.0
82.149,521.0
82.15,525.0
82.151,519.0
82.152,514.0
82.153,510.0
82.154,513.0
82.155,517.0
82.156,522.0
82.157,524.0
82.158,524.0
82.159,518.0
82.16,514.0
82.161,516.0
82.162,515.0
82.163,519.0
82.164,522.0
82.165,523.0
82.166,523.0
82.167,518.0
82.168,515.0
82.169,509.0
82.17,514.0
82.171,521.0
82.172,523.0
82.173,523.0
82.174,524.0
82.175,517.0
82.176,513.0
82.177,514.0
82.178,517.0
82.179,521.0
82.18,521.0
82.181,526.0
82.182,521.0
82.183,514.0
82.184,509.0
82.185,510.0
82.186,516.0
82.187,522.0
82.188,520.0
82.189,522.0
82.19,518.0
82.191,512.0
82.192,509.0
82.193,510.0
82.194,517.0
82.195,524.0
82.196,521.0
82.197,522.0
82.198,516.0
82.199,512.0
82.2,510.0
82.201,511.0
82.202,517.0
82.203,526.0
82.204,520.0
82.205,519.0
82.206,517.0
82.207,510.0
82.208,508.0
82.209,511.0
82.21,519.0
82.211,525.0
82.212,518.0
82.213,513.0
82.214,513.0
82.215,509.0
82.216,509.0
82.217,508.0
82.218,518.0
82.219,526.0
82.22,521.0
82.221,514.0
82.222,513.0
82.223,512.0
82.224,510.0
82.225,510.0
82.226,521.0
82.227,526.0
82.228,516.0
82.229,512.0
82.23,517.0
82.231,523.0
82.232,517.0
82.233,510.0
82.234,520.0
82.235,525.0
82.236,516.0
82.237,512.0
82.238,514.0
82.239,520.0
82.24,514.0
82.241,512.0
82.242,526.0
82.243,530.0
82.244,519.0
82.245,514.0
82.246,516.0
82.247,519.0
82.248,511.0
82.249,514.0
82.25,514.0
82.251,528.0
82.252,524.0
82.253,518.0
82.254,516.0
82.255,515.0
82.256,514.0
82.257,520.0
82.258,529.0
82.259,534.0
82.26,529.0
82.261,525.0
82.262,520.0
82.263,519.0
82.264,519.0
82.265,527.0
82.266,529.0
82.267,532.0
82.268,528.0
82.269,524.0
82.27,520.0
82.271,520.0
82.272,521.0
82.273,528.0
82.274,530.0
82.275,529.0
82.276,525.0
82.277,521.0
82.278,520.0
82.279,518.0
82.28,522.0
82.281,528.0
