131.198,549.0
131.199,599.0
131.2,582.0
131.201,525.0
131.202,495.0
131.203,530.0
131.204,507.0
131.205,497.0
131.206,585.0
131.207,621.0
131.208,613.0
131.209,569.0
131.21,519.0
131.211,519.0
131.212,505.0
131.213,540.0
131.214,627.0
131.215,639.0
131.216,628.0
131.217,584.0
131.218,533.0
131.219,528.0
131.22,528.0
131.221,574.0
131.222,637.0
131.223,646.0
131.224,629.0
131.225,585.0
131.226,542.0
131.227,535.0
131.228,545.0
131.229,598.0
131.23,630.0
131.231,639.0
131.232,611.0
131.233,564.0
131.234,528.0
131.235,528.0
131.236,545.0
131.237,599.0
131.238,622.0
131.239,627.0
131.24,594.0
131.241,549.0
131.242,524.0
131.243,522.0
131.244,548.0
131.245,596.0
131.246,612.0
131.247,617.0
131.248,587.0
131.249,541.0
131.25,519.0
131.251,521.0
131.252,557.0
131.253,592.0
131.254,606.0
131.255,601.0
131.256,569.0
131.257,527.0
131.258,516.0
131.259,521.0
131.26,564.0
131.261,574.0
131.262,598.0
131.263,575.0
131.264,537.0
131.265,498.0
131.266,499.0
131.267,508.0
131.268,561.0
131.269,554.0
131.27,598.0
131.271,579.0
131.272,535.0
131.273,501.0
131.274,503.0
131.275,523.0
131.276,570.0
131.277,539.0
131.278,591.0
131.279,559.0
131.28,513.0
131.281,488.0
131.282,498.0
131.283,524.0
131.284,559.0
131.285,532.0
131.286,584.0
131.287,549.0
131.288,503.0
131.289,491.0
131.29,499.0
131.291,525.0
131.292,545.0
131.293,541.0
131.294,582.0
131.295,539.0
131.296,496.0
131.297,491.0
131.298,505.0
131.299,540.0
131.3,538.0
131.301,549.0
131.302,570.0
131.303,525.0
131.304,486.0
131.305,492.0
131.306,509.0
131.307,551.0
131.308,533.0
131.309,553.0
131.31,560.0
131.311,519.0
131.312,485.0
131.313,501.0
131.314,519.0
131.315,570.0
131.316,540.0
131.317,562.0
131.318,542.0
131.319,517.0
131.32,499.0
131.321,518.0
131.322,529.0
131.323,586.0
131.324,562.0
131.325,558.0
131.326,537.0
131.327,525.0
131.328,516.0
131.329,530.0
131.33,534.0
131.331,594.0
131.332,550.0
131.333,540.0
131.334,534.0
131.335,564.0
131.336,553.0
131.337,550.0
131.338,538.0
131.339,607.0
131.34,549.0
131.341,523.0
131.342,616.0
131.343,772.0
131.344,717.0
131.345,637.0
131.346,535.0
131.347,585.0
131.348,533.0
131.349,507.0
131.35,690.0
131.351,852.0
131.352,755.0
131.353,619.0
131.354,527.0
131.355,540.0
131.356,514.0
131.357,532.0
131.358,875.0
131.359,1006.0
131.36,912.0
131.361,657.0
131.362,502.0
131.363,500.0
131.364,477.0
131.365,536.0
131.366,966.0
131.367,1007.0
131.368,855.0
131.369,557.0
131.37,456.0
131.371,461.0
131.372,415.0
131.373,491.0
131.374,846.0
131.375,918.0
131.376,705.0
131.377,446.0
131.378,442.0
131.379,441.0
131.38,379.0
131.381,454.0
131.382,727.0
131.383,734.0
131.384,532.0
131.385,389.0
131.386,472.0
131.387,463.0
131.388,379.0
131.389,415.0
131.39,562.0
131.391,547.0
131.392,423.0
131.393,413.0
131.394,503.0
131.395,487.0
131.396,406.0
131.397,413.0
131.398,504.0
131.399,475.0
131.4,415.0
131.401,472.0
131.402,528.0
131.403,519.0
131.404,453.0
131.405,425.0
131.406,467.0
131.407,447.0
131.408,451.0
131.409,538.0
131.41,561.0
131.411,554.0
131.412,498.0
131.413,458.0
131.414,482.0
131.415,464.0
131.416,502.0
131.417,589.0
131.418,605.0
131.419,589.0
131.42,533.0
131.421,489.0
131.422,494.0
131.423,495.0
131.424,551.0
131.425,613.0
131.426,613.0
131.427,594.0
131.428,543.0
131.429,508.0
131.43,513.0
131.431,526.0
131.432,584.0
131.433,613.0
131.434,615.0
131.435,586.0
131.436,531.0
131.437,505.0
131.438,508.0
131.439,529.0
131.44,591.0
131.441,611.0
131.442,622.0
131.443,588.0
131.444,539.0
131.445,515.0
131.446,519.0
131.447,549.0
131.448,601.0
131.449,606.0
131.45,603.0
131.451,570.0
131.452,524.0
131.453,510.0
131.454,514.0
131.455,556.0
131.456,604.0
131.457,614.0
131.458,600.0
131.459,561.0
131.46,517.0
131.461,509.0
131.462,519.0
131.463,567.0
131.464,608.0
131.465,611.0
131.466,592.0
131.467,548.0
131.468,508.0
131.469,505.0
131.47,524.0
131.471,579.0
131.472,593.0
131.473,608.0
131.474,572.0
131.475,523.0
131.476,490.0
131.477,497.0
131.478,519.0
131.479,578.0
131.48,578.0
131.481,606.0
131.482,568.0
131.483,518.0
131.484,492.0
131.485,500.0
131.486,530.0
131.487,581.0
131.488,566.0
131.489,590.0
131.49,552.0
131.491,498.0
131.492,483.0
131.493,499.0
131.494,534.0
131.495,579.0
131.496,569.0
131.497,581.0
131.498,537.0
131.499,482.0
131.5,479.0
131.501,497.0
131.502,541.0
131.503,576.0
131.504,573.0
131.505,574.0
131.506,525.0
131.507,477.0
131.508,479.0
131.509,504.0
131.51,554.0
131.511,566.0
131.512,570.0
131.513,559.0
131.514,508.0
131.515,472.0
131.516,484.0
131.517,509.0
131.518,571.0
131.519,556.0
131.52,580.0
131.521,553.0
131.522,504.0
131.523,480.0
131.524,490.0
131.525,519.0
131.526,590.0
131.527,575.0
131.528,581.0
131.529,542.0
131.53,503.0
131.531,491.0
131.532,498.0
131.533,530.0
131.534,610.0
131.535,593.0
131.536,583.0
131.537,543.0
131.538,509.0
131.539,499.0
131.54,506.0
131.541,544.0
131.542,628.0
131.543,596.0
131.544,558.0
131.545,525.0
131.546,521.0
131.547,522.0
131.548,511.0
131.549,544.0
131.55,622.0
131.551,576.0
131.552,536.0
131.553,529.0
131.554,563.0
131.555,567.0
131.556,523.0
131.557,553.0
131.558,623.0
131.559,574.0
131.56,527.0
131.561,543.0
131.562,571.0
131.563,571.0
131.564,520.0
131.565,566.0
131.566,620.0
131.567,558.0
131.568,516.0
131.569,578.0
131.57,637.0
131.571,611.0
131.572,521.0
131.573,586.0
131.574,620.0
131.575,544.0
131.576,508.0
131.577,603.0
131.578,646.0
131.579,604.0
131.58,512.0
131.581,597.0
131.582,599.0
131.583,522.0
131.584,509.0
131.585,625.0
131.586,649.0
131.587,582.0
131.588,506.0
131.589,596.0
131.59,605.0
131.591,524.0
131.592,501.0
131.593,574.0
131.594,590.0
131.595,527.0
131.596,518.0
131.597,610.0
131.598,619.0
131.599,549.0
131.6,502.0
131.601,524.0
131.602,513.0
131.603,496.0
131.604,563.0
131.605,632.0
131.606,634.0
131.607,589.0
131.608,531.0
131.609,523.0
131.61,510.0
131.611,532.0
131.612,614.0
131.613,641.0
131.614,634.0
131.615,591.0
131.616,536.0
131.617,526.0
131.618,517.0
131.619,551.0
131.62,625.0
131.621,632.0
131.622,634.0
131.623,596.0
131.624,546.0
131.625,534.0
131.626,532.0
131.627,577.0
131.628,637.0
131.629,635.0
131.63,618.0
131.631,581.0
131.632,538.0
131.633,523.0
131.634,528.0
131.635,583.0
131.636,622.0
131.637,635.0
131.638,608.0
131.639,565.0
131.64,530.0
131.641,525.0
131.642,534.0
131.643,585.0
131.644,607.0
131.645,619.0
131.646,587.0
131.647,545.0
131.648,517.0
131.649,515.0
131.65,540.0
131.651,580.0
131.652,595.0
131.653,603.0
131.654,574.0
131.655,531.0
131.656,511.0
131.657,513.0
131.658,547.0
131.659,573.0
131.66,588.0
131.661,589.0
131.662,555.0
131.663,514.0
131.664,504.0
131.665,511.0
131.666,551.0
131.667,560.0
131.668,586.0
131.669,577.0
131.67,538.0
131.671,503.0
131.672,496.0
131.673,508.0
131.674,559.0
131.675,541.0
131.676,587.0
131.677,568.0
131.678,522.0
131.679,492.0
131.68,497.0
131.681,513.0
131.682,564.0
131.683,524.0
131.684,591.0
131.685,566.0
131.686,515.0
131.687,497.0
131.688,500.0
131.689,525.0
131.69,562.0
131.691,525.0
131.692,587.0
131.693,555.0
131.694,503.0
131.695,491.0
131.696,499.0
131.697,530.0
131.698,554.0
131.699,538.0
131.7,588.0
131.701,546.0
131.702,499.0
131.703,495.0
131.704,506.0
131.705,544.0
131.706,549.0
131.707,544.0
131.708,570.0
131.709,531.0
131.71,491.0
131.711,499.0
131.712,512.0
131.713,553.0
131.714,534.0
131.715,539.0
131.716,548.0
131.717,529.0
131.718,499.0
131.719,514.0
131.72,521.0
131.721,562.0
131.722,535.0
131.723,554.0
131.724,539.0
131.725,551.0
131.726,530.0
131.727,544.0
131.728,534.0
131.729,589.0
131.73,551.0
131.731,550.0
131.732,539.0
131.733,584.0
131.734,564.0
131.735,563.0
131.736,540.0
131.737,607.0
131.738,586.0
131.739,547.0
131.74,546.0
131.741,606.0
131.742,575.0
131.743,559.0
131.744,535.0
131.745,607.0
131.746,572.0
131.747,530.0
131.748,626.0
131.749,814.0
131.75,729.0
131.751,637.0
131.752,528.0
131.753,585.0
131.754,529.0
131.755,529.0
131.756,790.0
131.757,1005.0
131.758,862.0
131.759,681.0
131.76,507.0
131.761,539.0
131.762,492.0
131.763,485.0
131.764,758.0
131.765,948.0
131.766,756.0
131.767,566.0
131.768,477.0
131.769,513.0
131.77,471.0
131.771,482.0
131.772,804.0
131.773,958.0
131.774,738.0
131.775,507.0
131.776,461.0
131.777,482.0
131.778,452.0
131.779,531.0
131.78,930.0
131.781,984.0
131.782,751.0
131.783,468.0
131.784,452.0
131.785,449.0
131.786,404.0
131.787,504.0
131.788,857.0
131.789,918.0
131.79,639.0
131.791,400.0
131.792,447.0
131.793,455.0
131.794,373.0
131.795,383.0
131.796,514.0
131.797,498.0
131.798,390.0
131.799,392.0
131.8,489.0
131.801,504.0
131.802,428.0
131.803,394.0
131.804,441.0
131.805,433.0
131.806,401.0
131.807,468.0
131.808,537.0
131.809,529.0
131.81,462.0
131.811,422.0
131.812,443.0
131.813,433.0
131.814,452.0
131.815,538.0
131.816,563.0
131.817,547.0
131.818,485.0
131.819,450.0
131.82,464.0
131.821,454.0
131.822,488.0
131.823,579.0
131.824,582.0
131.825,584.0
131.826,532.0
131.827,488.0
131.828,487.0
131.829,487.0
131.83,542.0
131.831,607.0
131.832,605.0
131.833,598.0
131.834,548.0
131.835,507.0
131.836,509.0
131.837,523.0
131.838,579.0
131.839,614.0
131.84,613.0
131.841,590.0
131.842,535.0
131.843,501.0
131.844,509.0
131.845,529.0
131.846,587.0
131.847,609.0
131.848,619.0
131.849,582.0
131.85,530.0
131.851,505.0
131.852,511.0
131.853,543.0
131.854,594.0
131.855,609.0
131.856,609.0
131.857,576.0
131.858,525.0
131.859,508.0
131.86,513.0
131.861,553.0
131.862,596.0
131.863,605.0
131.864,598.0
131.865,563.0
131.866,517.0
131.867,505.0
131.868,516.0
131.869,564.0
131.87,599.0
131.871,606.0
131.872,588.0
131.873,546.0
131.874,502.0
131.875,499.0
131.876,515.0
131.877,570.0
131.878,587.0
131.879,600.0
131.88,573.0
131.881,530.0
131.882,493.0
131.883,495.0
131.884,517.0
131.885,578.0
131.886,567.0
131.887,600.0
131.888,566.0
131.889,522.0
131.89,484.0
131.891,493.0
131.892,523.0
131.893,582.0
131.894,562.0
131.895,586.0
131.896,552.0
131.897,498.0
131.898,478.0
131.899,492.0
131.9,529.0
131.901,573.0
131.902,568.0
131.903,586.0
131.904,545.0
131.905,492.0
131.906,482.0
131.907,497.0
131.908,540.0
131.909,576.0
131.91,562.0
131.911,573.0
131.912,527.0
131.913,479.0
131.914,476.0
131.915,499.0
131.916,546.0
131.917,578.0
131.918,573.0
131.919,567.0
131.92,519.0
131.921,476.0
131.922,481.0
131.923,510.0
131.924,570.0
131.925,588.0
131.926,590.0
131.927,558.0
131.928,510.0
131.929,476.0
131.93,486.0
131.931,519.0
131.932,593.0
131.933,585.0
131.934,581.0
131.935,541.0
131.936,499.0
131.937,478.0
131.938,487.0
131.939,523.0
131.94,608.0
131.941,591.0
131.942,569.0
131.943,531.0
131.944,500.0
131.945,488.0
131.946,494.0
131.947,533.0
131.948,623.0
131.949,584.0
131.95,538.0
131.951,515.0
131.952,525.0
131.953,528.0
131.954,509.0
131.955,527.0
131.956,614.0
131.957,576.0
131.958,534.0
131.959,521.0
131.96,547.0
131.961,548.0
131.962,514.0
131.963,545.0
131.964,621.0
131.965,574.0
131.966,525.0
131.967,537.0
131.968,579.0
131.969,570.0
131.97,518.0
131.971,561.0
131.972,614.0
131.973,547.0
131.974,506.0
131.975,598.0
131.976,680.0
131.977,654.0
131.978,529.0
131.979,567.0
131.98,604.0
131.981,525.0
131.982,506.0
131.983,685.0
131.984,771.0
131.985,707.0
131.986,524.0
131.987,575.0
131.988,600.0
131.989,525.0
131.99,482.0
131.991,542.0
131.992,559.0
131.993,519.0
131.994,493.0
131.995,591.0
131.996,600.0
131.997,531.0
131.998,485.0
131.999,533.0
132.0,529.0
132.001,495.0
132.002,523.0
132.003,606.0
132.004,615.0
132.005,553.0
132.006,500.0
132.007,522.0
132.008,507.0
132.009,496.0
132.01,565.0
132.011,618.0
132.012,619.0
132.013,568.0
132.014,511.0
132.015,514.0
132.016,505.0
132.017,513.0
132.018,600.0
132.019,632.0
132.02,641.0
132.021,603.0
132.022,549.0
132.023,532.0
132.024,524.0
132.025,556.0
132.026,632.0
132.027,641.0
132.028,641.0
132.029,608.0
132.03,558.0
132.031,540.0
132.032,541.0
132.033,583.0
132.034,637.0
132.035,636.0
132.036,623.0
132.037,588.0
132.038,545.0
132.039,537.0
132.04,542.0
132.041,591.0
132.042,625.0
132.043,631.0
132.044,608.0
132.045,570.0
132.046,533.0
132.047,528.0
132.048,544.0
132.049,590.0
132.05,609.0
132.051,625.0
132.052,592.0
132.053,553.0
132.054,522.0
132.055,520.0
132.056,543.0
132.057,582.0
132.058,598.0
132.059,601.0
132.06,570.0
132.061,527.0
132.062,507.0
132.063,507.0
132.064,539.0
132.065,571.0
132.066,590.0
132.067,593.0
132.068,560.0
132.069,519.0
132.07,504.0
132.071,508.0
132.072,548.0
132.073,557.0
132.074,579.0
132.075,567.0
132.076,526.0
132.077,489.0
132.078,486.0
132.079,500.0
132.08,547.0
132.081,534.0
132.082,578.0
132.083,560.0
132.084,512.0
132.085,481.0
132.086,487.0
132.087,504.0
132.088,555.0
132.089,519.0
132.09,584.0
132.091,562.0
132.092,512.0
132.093,486.0
132.094,496.0
132.095,523.0
132.096,564.0
132.097,524.0
132.098,584.0
132.099,546.0
132.1,494.0
132.101,480.0
132.102,495.0
132.103,525.0
132.104,556.0
132.105,530.0
132.106,578.0
132.107,542.0
132.108,493.0
132.109,489.0
132.11,499.0
132.111,535.0
132.112,542.0
132.113,529.0
132.114,559.0
132.115,521.0
132.116,478.0
132.117,487.0
132.118,504.0
132.119,541.0
132.12,530.0
132.121,527.0
132.122,540.0
132.123,523.0
132.124,490.0
132.125,507.0
132.126,517.0
132.127,552.0
132.128,536.0
132.129,538.0
132.13,529.0
132.131,551.0
132.132,537.0
132.133,556.0
132.134,539.0
132.135,571.0
132.136,559.0
132.137,544.0
132.138,527.0
132.139,571.0
132.14,554.0
132.141,561.0
132.142,532.0
132.143,600.0
132.144,580.0
132.145,535.0
132.146,536.0
132.147,635.0
132.148,599.0
132.149,583.0
132.15,534.0
132.151,603.0
132.152,551.0
132.153,529.0
132.154,663.0
132.155,914.0
132.156,831.0
132.157,720.0
132.158,537.0
132.159,576.0
132.16,515.0
132.161,487.0
132.162,682.0
132.163,918.0
132.164,792.0
132.165,637.0
132.166,502.0
132.167,535.0
132.168,487.0
132.169,474.0
132.17,730.0
132.171,948.0
132.172,776.0
132.173,580.0
132.174,475.0
132.175,509.0
132.176,456.0
132.177,457.0
132.178,730.0
132.179,902.0
132.18,717.0
132.181,506.0
132.182,462.0
132.183,505.0
132.184,433.0
132.185,457.0
132.186,755.0
132.187,872.0
132.188,668.0
132.189,454.0
132.19,469.0
132.191,501.0
132.192,411.0
132.193,406.0
132.194,547.0
132.195,591.0
132.196,473.0
132.197,411.0
132.198,513.0
132.199,527.0
132.2,430.0
132.201,418.0
132.202,508.0
132.203,525.0
132.204,439.0
132.205,441.0
132.206,538.0
132.207,543.0
132.208,452.0
132.209,435.0
132.21,495.0
132.211,494.0
132.212,445.0
132.213,498.0
132.214,565.0
132.215,560.0
132.216,489.0
132.217,450.0
132.218,481.0
132.219,474.0
132.22,472.0
132.221,555.0
132.222,593.0
132.223,611.0
132.224,568.0
132.225,516.0
132.226,505.0
132.227,502.0
132.228,546.0
132.229,614.0
132.23,610.0
132.231,608.0
132.232,563.0
132.233,517.0
132.234,511.0
132.235,503.0
132.236,555.0
132.237,613.0
132.238,607.0
132.239,595.0
132.24,548.0
132.241,508.0
132.242,512.0
132.243,519.0
132.244,577.0
132.245,620.0
132.246,615.0
132.247,593.0
132.248,544.0
132.249,509.0
132.25,512.0
132.251,532.0
132.252,584.0
132.253,606.0
132.254,613.0
132.255,569.0
132.256,520.0
132.257,493.0
132.258,502.0
132.259,531.0
132.26,581.0
132.261,602.0
132.262,604.0
132.263,570.0
132.264,521.0
132.265,502.0
132.266,514.0
132.267,549.0
132.268,593.0
132.269,605.0
132.27,594.0
132.271,559.0
132.272,510.0
132.273,501.0
132.274,511.0
132.275,555.0
132.276,594.0
132.277,602.0
132.278,582.0
132.279,542.0
132.28,498.0
132.281,495.0
132.282,511.0
132.283,562.0
132.284,582.0
132.285,597.0
132.286,579.0
132.287,533.0
132.288,496.0
132.289,498.0
132.29,519.0
132.291,576.0
132.292,567.0
132.293,598.0
132.294,563.0
132.295,511.0
132.296,480.0
132.297,489.0
132.298,518.0
132.299,575.0
132.3,554.0
132.301,586.0
132.302,546.0
132.303,493.0
132.304,474.0
132.305,484.0
132.306,523.0
132.307,566.0
132.308,542.0
132.309,569.0
132.31,527.0
132.311,475.0
132.312,466.0
132.313,483.0
132.314,525.0
132.315,565.0
132.316,547.0
132.317,568.0
132.318,521.0
132.319,474.0
132.32,474.0
132.321,493.0
132.322,540.0
132.323,576.0
132.324,572.0
132.325,558.0
132.326,508.0
132.327,470.0
132.328,478.0
132.329,500.0
132.33,558.0
132.331,566.0
132.332,569.0
132.333,549.0
132.334,503.0
132.335,473.0
132.336,485.0
132.337,511.0
132.338,582.0
132.339,571.0
132.34,570.0
132.341,536.0
132.342,502.0
132.343,486.0
132.344,493.0
132.345,519.0
132.346,601.0
132.347,592.0
132.348,563.0
132.349,525.0
132.35,508.0
132.351,500.0
132.352,502.0
132.353,527.0
132.354,618.0
132.355,600.0
132.356,557.0
132.357,520.0
132.358,521.0
132.359,516.0
132.36,509.0
132.361,539.0
132.362,632.0
132.363,589.0
132.364,536.0
132.365,523.0
132.366,546.0
132.367,540.0
132.368,515.0
132.369,546.0
132.37,619.0
132.371,575.0
132.372,526.0
132.373,535.0
132.374,596.0
132.375,584.0
132.376,523.0
132.377,558.0
132.378,610.0
132.379,554.0
132.38,506.0
132.381,590.0
132.382,691.0
132.383,659.0
132.384,532.0
132.385,556.0
132.386,605.0
132.387,536.0
132.388,497.0
132.389,591.0
132.39,645.0
132.391,604.0
132.392,506.0
132.393,574.0
132.394,620.0
132.395,539.0
132.396,493.0
132.397,543.0
132.398,554.0
132.399,519.0
132.4,498.0
132.401,591.0
132.402,614.0
132.403,539.0
132.404,493.0
132.405,525.0
132.406,529.0
132.407,497.0
132.408,520.0
132.409,602.0
132.41,617.0
132.411,561.0
132.412,504.0
132.413,502.0
132.414,497.0
132.415,489.0
132.416,560.0
132.417,614.0
132.418,631.0
132.419,587.0
132.42,528.0
132.421,509.0
132.422,504.0
132.423,521.0
132.424,600.0
132.425,623.0
132.426,622.0
132.427,585.0
132.428,532.0
132.429,516.0
132.43,508.0
132.431,538.0
132.432,609.0
132.433,624.0
132.434,620.0
132.435,585.0
132.436,536.0
132.437,520.0
132.438,520.0
132.439,561.0
132.44,620.0
132.441,620.0
132.442,606.0
132.443,570.0
132.444,524.0
132.445,517.0
132.446,521.0
132.447,569.0
132.448,604.0
132.449,611.0
132.45,583.0
132.451,544.0
132.452,506.0
132.453,502.0
132.454,516.0
132.455,565.0
132.456,587.0
132.457,601.0
132.458,569.0
132.459,527.0
132.46,496.0
132.461,496.0
132.462,517.0
132.463,560.0
132.464,573.0
132.465,585.0
132.466,556.0
132.467,515.0
132.468,490.0
132.469,489.0
132.47,521.0
132.471,548.0
132.472,560.0
132.473,568.0
132.474,534.0
132.475,493.0
132.476,477.0
132.477,481.0
132.478,521.0
132.479,535.0
132.48,556.0
132.481,556.0
132.482,517.0
132.483,477.0
132.484,471.0
132.485,482.0
132.486,529.0
132.487,520.0
132.488,555.0
132.489,543.0
132.49,496.0
132.491,466.0
132.492,466.0
132.493,481.0
132.494,533.0
132.495,501.0
132.496,563.0
132.497,539.0
132.498,491.0
132.499,467.0
132.5,473.0
132.501,494.0
132.502,539.0
132.503,498.0
132.504,559.0
132.505,528.0
132.506,476.0
132.507,463.0
132.508,474.0
132.509,501.0
132.51,529.0
132.511,496.0
132.512,551.0
132.513,518.0
132.514,470.0
132.515,465.0
132.516,475.0
132.517,506.0
132.518,520.0
132.519,499.0
132.52,535.0
132.521,504.0
132.522,463.0
132.523,470.0
132.524,482.0
132.525,512.0
132.526,519.0
132.527,510.0
132.528,520.0
132.529,504.0
132.53,481.0
132.531,493.0
132.532,496.0
132.533,528.0
132.534,535.0
132.535,524.0
132.536,518.0
132.537,517.0
132.538,498.0
132.539,504.0
132.54,501.0
132.541,550.0
132.542,542.0
132.543,525.0
132.544,513.0
132.545,552.0
132.546,531.0
132.547,526.0
132.548,506.0
132.549,567.0
132.55,534.0
132.551,511.0
132.552,548.0
132.553,764.0
132.554,738.0
132.555,668.0
132.556,536.0
132.557,554.0
132.558,531.0
132.559,491.0
132.56,586.0
132.561,847.0
132.562,771.0
132.563,654.0
132.564,495.0
132.565,540.0
132.566,498.0
132.567,457.0
132.568,582.0
132.569,786.0
132.57,687.0
132.571,560.0
132.572,465.0
132.573,529.0
132.574,476.0
132.575,454.0
132.576,669.0
132.577,893.0
132.578,728.0
132.579,543.0
132.58,452.0
132.581,499.0
132.582,452.0
132.583,455.0
132.584,735.0
132.585,946.0
132.586,727.0
132.587,497.0
132.588,434.0
132.589,483.0
132.59,415.0
132.591,422.0
132.592,652.0
132.593,765.0
132.594,585.0
132.595,416.0
132.596,452.0
132.597,492.0
132.598,403.0
132.599,408.0
132.6,583.0
132.601,625.0
132.602,483.0
132.603,394.0
132.604,487.0
132.605,510.0
132.606,418.0
132.607,405.0
132.608,491.0
132.609,499.0
132.61,416.0
132.611,423.0
132.612,522.0
132.613,540.0
132.614,462.0
132.615,421.0
132.616,450.0
132.617,450.0
132.618,431.0
132.619,496.0
132.62,555.0
132.621,573.0
132.622,514.0
132.623,461.0
132.624,459.0
132.625,457.0
132.626,481.0
132.627,559.0
132.628,579.0
132.629,584.0
132.63,530.0
132.631,483.0
132.632,478.0
132.633,476.0
132.634,518.0
132.635,590.0
132.636,601.0
132.637,604.0
132.638,565.0
132.639,518.0
132.64,508.0
132.641,512.0
132.642,560.0
132.643,611.0
132.644,600.0
132.645,588.0
132.646,543.0
132.647,503.0
132.648,502.0
132.649,513.0
132.65,568.0
132.651,604.0
132.652,599.0
132.653,575.0
132.654,533.0
132.655,496.0
132.656,502.0
132.657,520.0
132.658,573.0
132.659,598.0
132.66,601.0
132.661,570.0
132.662,520.0
132.663,492.0
132.664,499.0
132.665,525.0
132.666,573.0
132.667,593.0
132.668,589.0
132.669,555.0
132.67,505.0
132.671,484.0
132.672,494.0
132.673,533.0
132.674,576.0
132.675,594.0
132.676,579.0
132.677,542.0
132.678,495.0
132.679,485.0
132.68,497.0
132.681,539.0
132.682,574.0
132.683,587.0
132.684,579.0
132.685,541.0
132.686,494.0
132.687,491.0
132.688,508.0
132.689,560.0
132.69,578.0
132.691,596.0
132.692,577.0
132.693,535.0
132.694,497.0
132.695,496.0
132.696,517.0
132.697,570.0
132.698,564.0
132.699,602.0
132.7,568.0
132.701,519.0
132.702,487.0
132.703,493.0
132.704,522.0
132.705,576.0
132.706,546.0
132.707,586.0
132.708,550.0
132.709,498.0
132.71,473.0
132.711,487.0
132.712,523.0
132.713,570.0
132.714,548.0
132.715,573.0
132.716,533.0
132.717,478.0
132.718,467.0
132.719,487.0
132.72,528.0
132.721,572.0
132.722,555.0
132.723,573.0
132.724,524.0
132.725,476.0
132.726,473.0
132.727,495.0
132.728,546.0
132.729,562.0
132.73,554.0
132.731,559.0
132.732,510.0
132.733,473.0
132.734,484.0
132.735,501.0
132.736,555.0
132.737,573.0
132.738,571.0
132.739,557.0
132.74,516.0
132.741,488.0
132.742,497.0
132.743,516.0
132.744,584.0
132.745,603.0
132.746,598.0
132.747,564.0
132.748,522.0
132.749,496.0
132.75,501.0
132.751,534.0
132.752,605.0
132.753,614.0
132.754,581.0
132.755,542.0
132.756,525.0
132.757,510.0
132.758,509.0
132.759,538.0
132.76,625.0
132.761,615.0
132.762,560.0
132.763,535.0
132.764,548.0
132.765,547.0
132.766,525.0
132.767,541.0
132.768,627.0
132.769,599.0
132.77,546.0
132.771,536.0
132.772,579.0
132.773,575.0
132.774,533.0
132.775,547.0
132.776,635.0
132.777,594.0
132.778,538.0
132.779,545.0
132.78,582.0
132.781,565.0
132.782,524.0
132.783,570.0
132.784,627.0
132.785,576.0
132.786,524.0
132.787,592.0
132.788,690.0
132.789,650.0
132.79,537.0
132.791,576.0
132.792,619.0
132.793,551.0
132.794,517.0
132.795,644.0
132.796,745.0
132.797,686.0
132.798,531.0
132.799,578.0
132.8,621.0
132.801,542.0
132.802,506.0
132.803,600.0
132.804,665.0
132.805,596.0
132.806,507.0
132.807,605.0
132.808,634.0
132.809,569.0
132.81,514.0
132.811,527.0
132.812,540.0
132.813,507.0
132.814,527.0
132.815,626.0
132.816,656.0
132.817,596.0
132.818,537.0
132.819,519.0
132.82,514.0
132.821,515.0
132.822,584.0
132.823,639.0
132.824,655.0
132.825,608.0
132.826,549.0
132.827,527.0
132.828,523.0
132.829,538.0
132.83,614.0
132.831,641.0
132.832,650.0
132.833,616.0
132.834,564.0
132.835,540.0
132.836,531.0
132.837,566.0
132.838,635.0
132.839,644.0
132.84,639.0
132.841,609.0
132.842,560.0
132.843,544.0
132.844,541.0
132.845,577.0
132.846,636.0
132.847,631.0
132.848,611.0
132.849,577.0
132.85,532.0
132.851,519.0
132.852,523.0
132.853,572.0
132.854,616.0
132.855,620.0
132.856,595.0
132.857,558.0
132.858,516.0
132.859,514.0
132.86,525.0
132.861,578.0
132.862,600.0
132.863,611.0
132.864,572.0
132.865,530.0
132.866,494.0
132.867,499.0
132.868,519.0
132.869,564.0
132.87,576.0
132.871,604.0
132.872,574.0
132.873,534.0
132.874,506.0
132.875,507.0
132.876,535.0
132.877,564.0
132.878,570.0
132.879,585.0
132.88,550.0
132.881,510.0
132.882,492.0
132.883,496.0
132.884,533.0
132.885,548.0
132.886,570.0
132.887,572.0
132.888,534.0
132.889,494.0
132.89,488.0
132.891,499.0
132.892,542.0
132.893,536.0
132.894,570.0
132.895,568.0
132.896,522.0
132.897,489.0
132.898,487.0
132.899,503.0
132.9,554.0
132.901,521.0
132.902,574.0
132.903,551.0
132.904,499.0
132.905,476.0
132.906,483.0
132.907,505.0
132.908,552.0
132.909,509.0
132.91,573.0
132.911,544.0
132.912,490.0
132.913,475.0
132.914,485.0
132.915,513.0
132.916,546.0
132.917,516.0
132.918,570.0
132.919,538.0
132.92,488.0
132.921,480.0
132.922,495.0
132.923,530.0
132.924,550.0
132.925,518.0
132.926,552.0
132.927,520.0
132.928,477.0
132.929,484.0
132.93,498.0
132.931,531.0
132.932,545.0
132.933,528.0
132.934,540.0
132.935,518.0
132.936,486.0
132.937,500.0
132.938,516.0
132.939,545.0
132.94,549.0
132.941,533.0
132.942,534.0
132.943,545.0
132.944,532.0
132.945,539.0
132.946,530.0
132.947,561.0
132.948,572.0
132.949,544.0
132.95,525.0
132.951,573.0
132.952,563.0
132.953,555.0
132.954,532.0
132.955,585.0
132.956,595.0
132.957,531.0
132.958,525.0
132.959,628.0
132.96,608.0
132.961,580.0
132.962,529.0
132.963,588.0
132.964,573.0
132.965,515.0
132.966,576.0
132.967,813.0
132.968,741.0
132.969,660.0
132.97,526.0
132.971,568.0
132.972,532.0
132.973,484.0
132.974,605.0
132.975,853.0
132.976,746.0
132.977,619.0
132.978,493.0
132.979,548.0
132.98,499.0
132.981,453.0
132.982,590.0
132.983,779.0
132.984,654.0
132.985,527.0
132.986,475.0
132.987,525.0
132.988,478.0
132.989,469.0
132.99,737.0
132.991,964.0
132.992,763.0
132.993,535.0
132.994,468.0
132.995,513.0
132.996,444.0
132.997,463.0
132.998,759.0
132.999,945.0
133.0,728.0
133.001,479.0
133.002,463.0
133.003,483.0
133.004,408.0
133.005,440.0
133.006,701.0
133.007,800.0
133.008,598.0
133.009,411.0
133.01,458.0
133.011,503.0
133.012,427.0
133.013,386.0
133.014,425.0
133.015,449.0
133.016,401.0
133.017,424.0
133.018,526.0
133.019,557.0
133.02,486.0
133.021,432.0
133.022,427.0
133.023,434.0
133.024,439.0
133.025,501.0
133.026,545.0
133.027,555.0
133.028,473.0
133.029,428.0
133.03,444.0
133.031,453.0
133.032,456.0
133.033,532.0
133.034,575.0
133.035,581.0
133.036,528.0
133.037,476.0
133.038,471.0
133.039,472.0
133.04,509.0
133.041,581.0
133.042,596.0
133.043,598.0
133.044,556.0
133.045,512.0
133.046,503.0
133.047,505.0
133.048,552.0
133.049,607.0
133.05,603.0
133.051,587.0
133.052,543.0
133.053,501.0
133.054,499.0
133.055,508.0
133.056,563.0
133.057,600.0
133.058,602.0
133.059,578.0
133.06,530.0
133.061,495.0
133.062,498.0
133.063,513.0
133.064,570.0
133.065,593.0
133.066,599.0
133.067,568.0
133.068,517.0
133.069,489.0
133.07,495.0
133.071,521.0
133.072,571.0
133.073,591.0
133.074,591.0
133.075,559.0
133.076,506.0
133.077,485.0
133.078,494.0
133.079,525.0
133.08,574.0
133.081,584.0
133.082,576.0
133.083,540.0
133.084,491.0
133.085,481.0
133.086,491.0
133.087,530.0
133.088,573.0
133.089,588.0
133.09,567.0
133.091,527.0
133.092,481.0
133.093,477.0
133.094,492.0
133.095,538.0
133.096,560.0
133.097,579.0
133.098,559.0
133.099,518.0
133.1,476.0
133.101,476.0
133.102,498.0
133.103,553.0
133.104,546.0
133.105,574.0
133.106,549.0
133.107,498.0
133.108,461.0
133.109,469.0
133.11,496.0
133.111,551.0
133.112,528.0
133.113,576.0
133.114,539.0
133.115,484.0
133.116,457.0
133.117,471.0
133.118,508.0
133.119,556.0
133.12,526.0
133.121,563.0
133.122,522.0
133.123,471.0
133.124,457.0
133.125,469.0
133.126,513.0
133.127,557.0
133.128,530.0
133.129,561.0
133.13,515.0
133.131,466.0
133.132,462.0
133.133,480.0
133.134,528.0
133.135,566.0
133.136,546.0
133.137,555.0
133.138,507.0
133.139,465.0
133.14,465.0
133.141,484.0
133.142,540.0
133.143,585.0
133.144,573.0
133.145,550.0
133.146,501.0
133.147,465.0
133.148,471.0
133.149,496.0
133.15,566.0
133.151,588.0
133.152,563.0
133.153,529.0
133.154,488.0
133.155,467.0
133.156,472.0
133.157,499.0
133.158,572.0
133.159,580.0
133.16,526.0
133.161,497.0
133.162,513.0
133.163,518.0
133.164,507.0
133.165,501.0
133.166,582.0
133.167,573.0
133.168,524.0
133.169,498.0
133.17,531.0
133.171,531.0
133.172,514.0
133.173,503.0
133.174,597.0
133.175,576.0
133.176,513.0
133.177,514.0
133.178,563.0
133.179,563.0
133.18,520.0
133.181,514.0
133.182,599.0
133.183,567.0
133.184,497.0
133.185,550.0
133.186,672.0
133.187,652.0
133.188,547.0
133.189,520.0
133.19,579.0
133.191,532.0
133.192,484.0
133.193,625.0
133.194,825.0
133.195,760.0
133.196,565.0
133.197,516.0
133.198,568.0
133.199,512.0
133.2,464.0
133.201,573.0
133.202,675.0
133.203,618.0
133.204,486.0
133.205,545.0
133.206,587.0
133.207,531.0
133.208,477.0
133.209,495.0
133.21,521.0
133.211,484.0
133.212,482.0
133.213,580.0
133.214,612.0
133.215,550.0
133.216,494.0
133.217,491.0
133.218,502.0
133.219,478.0
133.22,512.0
133.221,607.0
133.222,623.0
133.223,555.0
133.224,500.0
133.225,501.0
133.226,505.0
133.227,485.0
133.228,543.0
133.229,613.0
133.23,638.0
133.231,606.0
133.232,543.0
133.233,519.0
133.234,511.0
133.235,527.0
133.236,599.0
133.237,625.0
133.238,640.0
133.239,614.0
133.24,563.0
133.241,536.0
133.242,528.0
133.243,555.0
133.244,624.0
133.245,627.0
133.246,629.0
133.247,599.0
133.248,554.0
133.249,535.0
133.25,528.0
133.251,565.0
133.252,621.0
133.253,625.0
133.254,612.0
133.255,583.0
133.256,539.0
133.257,525.0
133.258,525.0
133.259,572.0
133.26,610.0
133.261,610.0
133.262,590.0
133.263,560.0
133.264,517.0
133.265,510.0
133.266,519.0
133.267,569.0
133.268,586.0
133.269,603.0
133.27,569.0
133.271,538.0
133.272,504.0
133.273,502.0
133.274,519.0
133.275,565.0
133.276,570.0
133.277,584.0
133.278,547.0
133.279,506.0
133.28,482.0
133.281,486.0
133.282,509.0
133.283,544.0
133.284,559.0
133.285,579.0
133.286,546.0
133.287,505.0
133.288,489.0
133.289,492.0
133.29,526.0
133.291,546.0
133.292,555.0
133.293,568.0
133.294,528.0
133.295,491.0
133.296,483.0
133.297,488.0
133.298,530.0
133.299,525.0
133.3,551.0
133.301,554.0
133.302,512.0
133.303,482.0
133.304,481.0
133.305,494.0
133.306,541.0
133.307,515.0
133.308,574.0
133.309,557.0
133.31,507.0
133.311,483.0
133.312,487.0
133.313,509.0
133.314,556.0
133.315,514.0
133.316,582.0
133.317,553.0
133.318,500.0
133.319,485.0
133.32,493.0
133.321,520.0
133.322,556.0
133.323,514.0
133.324,569.0
133.325,538.0
133.326,491.0
133.327,482.0
133.328,493.0
133.329,525.0
133.33,548.0
133.331,513.0
133.332,553.0
133.333,524.0
133.334,483.0
133.335,485.0
133.336,498.0
133.337,531.0
133.338,553.0
133.339,521.0
133.34,537.0
133.341,523.0
133.342,497.0
133.343,508.0
133.344,512.0
133.345,538.0
133.346,578.0
133.347,539.0
133.348,533.0
133.349,539.0
133.35,518.0
133.351,529.0
133.352,522.0
133.353,570.0
133.354,600.0
133.355,555.0
133.356,530.0
133.357,566.0
133.358,558.0
133.359,548.0
133.36,527.0
133.361,590.0
133.362,592.0
133.363,535.0
133.364,552.0
133.365,732.0
133.366,728.0
133.367,656.0
133.368,545.0
133.369,583.0
133.37,548.0
133.371,532.0
133.372,643.0
133.373,986.0
133.374,923.0
133.375,775.0
133.376,547.0
133.377,546.0
133.378,515.0
133.379,477.0
133.38,598.0
133.381,876.0
133.382,771.0
133.383,627.0
133.384,479.0
133.385,535.0
133.386,487.0
133.387,470.0
133.388,691.0
133.389,961.0
133.39,789.0
133.391,591.0
133.392,463.0
133.393,516.0
133.394,466.0
133.395,450.0
133.396,681.0
133.397,929.0
133.398,727.0
133.399,513.0
133.4,450.0
133.401,518.0
133.402,444.0
133.403,411.0
133.404,535.0
133.405,666.0
133.406,531.0
133.407,425.0
133.408,489.0
133.409,529.0
133.41,452.0
133.411,420.0
133.412,488.0
133.413,548.0
133.414,456.0
133.415,428.0
133.416,522.0
133.417,568.0
133.418,481.0
133.419,438.0
133.42,467.0
133.421,485.0
133.422,442.0
133.423,474.0
133.424,570.0
133.425,591.0
133.426,501.0
133.427,455.0
133.428,470.0
133.429,480.0
133.43,461.0
133.431,517.0
133.432,589.0
133.433,614.0
133.434,568.0
133.435,512.0
133.436,496.0
133.437,493.0
133.438,520.0
133.439,588.0
133.44,595.0
133.441,613.0
133.442,575.0
133.443,526.0
133.444,510.0
133.445,500.0
133.446,537.0
133.447,602.0
133.448,608.0
133.449,608.0
133.45,567.0
133.451,520.0
133.452,510.0
133.453,511.0
133.454,560.0
133.455,604.0
133.456,614.0
133.457,602.0
133.458,559.0
133.459,518.0
133.46,511.0
133.461,518.0
133.462,574.0
133.463,618.0
133.464,617.0
133.465,597.0
133.466,551.0
133.467,516.0
133.468,517.0
133.469,531.0
133.47,588.0
133.471,614.0
133.472,621.0
133.473,591.0
133.474,545.0
133.475,513.0
133.476,517.0
133.477,540.0
133.478,591.0
133.479,605.0
133.48,611.0
133.481,575.0
133.482,526.0
133.483,501.0
133.484,512.0
133.485,543.0
133.486,594.0
133.487,602.0
133.488,603.0
133.489,570.0
133.49,523.0
133.491,507.0
133.492,515.0
133.493,551.0
133.494,590.0
133.495,595.0
133.496,588.0
133.497,553.0
133.498,510.0
133.499,502.0
133.5,515.0
133.501,558.0
133.502,576.0
133.503,592.0
133.504,578.0
133.505,539.0
133.506,495.0
133.507,495.0
133.508,513.0
133.509,562.0
133.51,564.0
133.511,584.0
133.512,554.0
133.513,508.0
133.514,473.0
133.515,479.0
133.516,505.0
133.517,560.0
133.518,542.0
133.519,579.0
133.52,544.0
133.521,493.0
133.522,462.0
133.523,470.0
133.524,507.0
133.525,563.0
133.526,534.0
133.527,565.0
133.528,526.0
133.529,473.0
133.53,454.0
133.531,469.0
133.532,512.0
133.533,560.0
133.534,537.0
133.535,552.0
133.536,510.0
133.537,459.0
133.538,451.0
133.539,470.0
133.54,519.0
133.541,572.0
133.542,550.0
133.543,556.0
133.544,512.0
133.545,465.0
133.546,463.0
133.547,483.0
133.548,539.0
133.549,577.0
133.55,551.0
133.551,550.0
133.552,503.0
133.553,467.0
133.554,471.0
133.555,492.0
133.556,566.0
133.557,575.0
133.558,555.0
133.559,522.0
133.56,497.0
133.561,480.0
133.562,486.0
133.563,500.0
133.564,578.0
133.565,602.0
133.566,557.0
133.567,521.0
133.568,506.0
133.569,500.0
133.57,497.0
133.571,511.0
133.572,602.0
133.573,611.0
133.574,551.0
133.575,517.0
133.576,520.0
133.577,513.0
133.578,507.0
133.579,519.0
133.58,608.0
133.581,599.0
133.582,536.0
133.583,514.0
133.584,548.0
133.585,540.0
133.586,517.0
133.587,523.0
133.588,613.0
133.589,583.0
133.59,521.0
133.591,533.0
133.592,595.0
133.593,582.0
133.594,528.0
133.595,539.0
133.596,614.0
133.597,584.0
133.598,516.0
133.599,555.0
133.6,630.0
133.601,598.0
133.602,522.0
133.603,560.0
133.604,629.0
133.605,580.0
133.606,517.0
133.607,527.0
133.608,577.0
133.609,541.0
133.61,506.0
133.611,582.0
133.612,634.0
133.613,570.0
133.614,517.0
133.615,517.0
133.616,561.0
133.617,528.0
133.618,513.0
133.619,607.0
133.62,635.0
133.621,581.0
133.622,527.0
133.623,521.0
133.624,537.0
133.625,508.0
133.626,538.0
133.627,639.0
133.628,660.0
133.629,624.0
133.63,566.0
133.631,532.0
133.632,530.0
133.633,528.0
133.634,595.0
133.635,653.0
133.636,660.0
133.637,626.0
133.638,570.0
133.639,541.0
133.64,537.0
133.641,550.0
133.642,618.0
133.643,639.0
133.644,656.0
133.645,631.0
133.646,580.0
133.647,554.0
133.648,547.0
133.649,573.0
133.65,641.0
133.651,639.0
133.652,635.0
133.653,611.0
133.654,562.0
133.655,543.0
133.656,539.0
133.657,572.0
133.658,631.0
133.659,635.0
133.66,612.0
133.661,582.0
133.662,536.0
133.663,527.0
133.664,529.0
133.665,570.0
133.666,615.0
133.667,625.0
133.668,608.0
133.669,579.0
133.67,536.0
133.671,530.0
133.672,532.0
133.673,580.0
133.674,603.0
133.675,616.0
133.676,591.0
133.677,560.0
133.678,519.0
133.679,518.0
133.68,534.0
133.681,581.0
133.682,581.0
133.683,608.0
133.684,579.0
133.685,540.0
133.686,513.0
133.687,514.0
133.688,540.0
133.689,576.0
133.69,571.0
133.691,591.0
133.692,553.0
133.693,513.0
133.694,494.0
133.695,498.0
133.696,532.0
133.697,553.0
133.698,561.0
133.699,578.0
133.7,540.0
133.701,500.0
133.702,490.0
133.703,499.0
133.704,542.0
133.705,545.0
133.706,570.0
133.707,572.0
133.708,524.0
133.709,490.0
133.71,487.0
133.711,503.0
133.712,552.0
133.713,531.0
133.714,575.0
133.715,567.0
133.716,513.0
133.717,488.0
133.718,493.0
133.719,512.0
133.72,561.0
133.721,525.0
133.722,583.0
133.723,556.0
133.724,502.0
133.725,485.0
133.726,491.0
133.727,525.0
133.728,554.0
133.729,515.0
133.73,561.0
133.731,533.0
133.732,486.0
133.733,480.0
133.734,497.0
133.735,525.0
133.736,552.0
133.737,519.0
133.738,554.0
133.739,525.0
133.74,490.0
133.741,495.0
133.742,511.0
133.743,534.0
133.744,578.0
133.745,534.0
133.746,549.0
133.747,528.0
133.748,505.0
133.749,512.0
133.75,523.0
133.751,546.0
133.752,578.0
133.753,543.0
133.754,536.0
133.755,549.0
133.756,541.0
133.757,542.0
133.758,536.0
133.759,564.0
133.76,578.0
133.761,551.0
133.762,528.0
133.763,626.0
133.764,654.0
133.765,616.0
133.766,554.0
133.767,575.0
133.768,584.0
133.769,537.0
133.77,561.0
133.771,802.0
133.772,834.0
133.773,742.0
133.774,570.0
133.775,566.0
133.776,558.0
133.777,497.0
133.778,532.0
133.779,757.0
133.78,738.0
133.781,643.0
133.782,516.0
133.783,549.0
133.784,534.0
133.785,481.0
133.786,581.0
133.787,842.0
133.788,760.0
133.789,615.0
133.79,484.0
133.791,548.0
133.792,510.0
133.793,455.0
133.794,583.0
133.795,806.0
133.796,709.0
133.797,554.0
133.798,468.0
133.799,534.0
133.8,493.0
133.801,439.0
133.802,544.0
133.803,688.0
133.804,579.0
133.805,474.0
133.806,487.0
133.807,556.0
133.808,484.0
133.809,441.0
133.81,530.0
133.811,653.0
133.812,549.0
133.813,465.0
133.814,514.0
133.815,576.0
133.816,495.0
133.817,450.0
133.818,505.0
133.819,568.0
133.82,492.0
133.821,465.0
133.822,552.0
133.823,586.0
133.824,511.0
133.825,466.0
133.826,491.0
133.827,530.0
133.828,479.0
133.829,493.0
133.83,588.0
133.831,606.0
133.832,552.0
133.833,497.0
133.834,490.0
133.835,513.0
133.836,496.0
133.837,553.0
133.838,619.0
133.839,639.0
133.84,584.0
133.841,530.0
133.842,511.0
133.843,517.0
133.844,536.0
133.845,601.0
133.846,626.0
133.847,641.0
133.848,598.0
133.849,549.0
133.85,527.0
133.851,528.0
133.852,563.0
133.853,625.0
133.854,631.0
133.855,625.0
133.856,583.0
133.857,536.0
133.858,524.0
133.859,528.0
133.86,571.0
133.861,630.0
133.862,630.0
133.863,618.0
133.864,577.0
133.865,535.0
133.866,528.0
133.867,535.0
133.868,585.0
133.869,625.0
133.87,627.0
133.871,605.0
133.872,562.0
133.873,526.0
133.874,525.0
133.875,539.0
133.876,592.0
133.877,616.0
133.878,619.0
133.879,589.0
133.88,540.0
133.881,513.0
133.882,518.0
133.883,537.0
133.884,588.0
133.885,603.0
133.886,613.0
133.887,582.0
133.888,535.0
133.889,511.0
133.89,515.0
133.891,543.0
133.892,589.0
133.893,601.0
133.894,598.0
133.895,566.0
133.896,520.0
133.897,502.0
133.898,512.0
133.899,547.0
133.9,589.0
133.901,593.0
133.902,585.0
133.903,550.0
133.904,505.0
133.905,497.0
133.906,509.0
133.907,549.0
133.908,573.0
133.909,586.0
133.91,572.0
133.911,534.0
133.912,489.0
133.913,488.0
133.914,507.0
133.915,557.0
133.916,552.0
133.917,579.0
133.918,549.0
133.919,499.0
133.92,463.0
133.921,471.0
133.922,499.0
133.923,554.0
133.924,541.0
133.925,586.0
133.926,556.0
133.927,501.0
133.928,472.0
133.929,482.0
133.93,518.0
133.931,569.0
133.932,540.0
133.933,576.0
133.934,540.0
133.935,485.0
133.936,464.0
133.937,481.0
133.938,524.0
133.939,564.0
133.94,536.0
133.941,566.0
133.942,521.0
133.943,471.0
133.944,465.0
133.945,482.0
133.946,525.0
133.947,564.0
133.948,537.0
133.949,559.0
133.95,517.0
133.951,476.0
133.952,480.0
133.953,500.0
133.954,543.0
133.955,600.0
133.956,578.0
133.957,566.0
133.958,519.0
133.959,485.0
133.96,485.0
133.961,508.0
133.962,569.0
133.963,612.0
133.964,581.0
133.965,556.0
133.966,515.0
133.967,491.0
133.968,494.0
133.969,519.0
133.97,590.0
133.971,619.0
133.972,567.0
133.973,532.0
133.974,514.0
133.975,504.0
133.976,505.0
133.977,522.0
133.978,608.0
133.979,624.0
133.98,560.0
133.981,524.0
133.982,524.0
133.983,518.0
133.984,516.0
133.985,529.0
133.986,616.0
133.987,607.0
133.988,543.0
133.989,515.0
133.99,552.0
133.991,546.0
133.992,525.0
133.993,529.0
133.994,622.0
133.995,599.0
133.996,531.0
133.997,520.0
133.998,583.0
133.999,566.0
134.0,526.0
134.001,541.0
134.002,626.0
134.003,588.0
134.004,511.0
134.005,556.0
134.006,660.0
134.007,619.0
134.008,537.0
134.009,559.0
134.01,613.0
134.011,554.0
134.012,502.0
134.013,563.0
134.014,655.0
134.015,601.0
134.016,514.0
134.017,566.0
134.018,619.0
134.019,576.0
134.02,521.0
134.021,517.0
134.022,534.0
134.023,509.0
134.024,513.0
134.025,606.0
134.026,641.0
134.027,598.0
134.028,540.0
134.029,515.0
134.03,521.0
134.031,504.0
134.032,544.0
134.033,632.0
134.034,648.0
134.035,602.0
134.036,546.0
134.037,519.0
134.038,520.0
134.039,514.0
134.04,578.0
134.041,638.0
134.042,651.0
134.043,612.0
134.044,557.0
134.045,529.0
134.046,528.0
134.047,534.0
134.048,608.0
134.049,637.0
134.05,654.0
134.051,630.0
134.052,580.0
134.053,550.0
134.054,545.0
134.055,568.0
134.056,630.0
134.057,640.0
134.058,638.0
134.059,611.0
134.06,565.0
134.061,542.0
134.062,541.0
134.063,571.0
134.064,625.0
134.065,629.0
134.066,617.0
134.067,589.0
134.068,545.0
134.069,530.0
134.07,531.0
134.071,572.0
134.072,609.0
134.073,618.0
134.074,595.0
134.075,563.0
134.076,522.0
134.077,515.0
134.078,523.0
134.079,572.0
134.08,592.0
134.081,609.0
134.082,583.0
134.083,547.0
134.084,510.0
134.085,510.0
134.086,524.0
134.087,571.0
134.088,569.0
134.089,605.0
134.09,570.0
134.091,535.0
134.092,503.0
134.093,510.0
134.094,529.0
134.095,570.0
134.096,564.0
134.097,584.0
134.098,547.0
134.099,506.0
134.1,490.0
134.101,496.0
134.102,524.0
134.103,551.0
134.104,555.0
134.105,576.0
134.106,534.0
134.107,496.0
134.108,488.0
134.109,498.0
134.11,534.0
134.111,535.0
134.112,560.0
134.113,573.0
134.114,527.0
134.115,491.0
134.116,490.0
134.117,504.0
134.118,548.0
134.119,532.0
134.12,582.0
134.121,575.0
134.122,523.0
134.123,495.0
134.124,502.0
134.125,516.0
134.126,559.0
134.127,524.0
134.128,586.0
134.129,566.0
134.13,511.0
134.131,493.0
134.132,504.0
134.133,524.0
134.134,570.0
134.135,530.0
134.136,572.0
134.137,548.0
134.138,498.0
134.139,490.0
134.14,502.0
134.141,527.0
134.142,564.0
134.143,527.0
134.144,553.0
134.145,532.0
134.146,499.0
134.147,502.0
134.148,511.0
134.149,531.0
134.15,570.0
134.151,529.0
134.152,540.0
134.153,538.0
134.154,530.0
134.155,536.0
134.156,526.0
134.157,535.0
134.158,585.0
134.159,541.0
134.16,532.0
134.161,560.0
134.162,566.0
134.163,559.0
134.164,534.0
134.165,553.0
134.166,614.0
134.167,557.0
134.168,523.0
134.169,587.0
134.17,602.0
134.171,574.0
134.172,532.0
134.173,563.0
134.174,590.0
134.175,537.0
134.176,567.0
134.177,798.0
134.178,855.0
134.179,740.0
134.18,571.0
134.181,553.0
134.182,545.0
134.183,509.0
134.184,587.0
134.185,917.0
134.186,920.0
134.187,763.0
134.188,539.0
134.189,529.0
134.19,519.0
134.191,469.0
134.192,557.0
134.193,832.0
134.194,778.0
134.195,621.0
134.196,470.0
134.197,528.0
134.198,492.0
134.199,445.0
134.2,563.0
134.201,791.0
134.202,701.0
134.203,537.0
134.204,454.0
134.205,527.0
134.206,476.0
134.207,439.0
134.208,584.0
134.209,853.0
134.21,703.0
134.211,504.0
134.212,466.0
134.213,522.0
134.214,459.0
134.215,425.0
134.216,557.0
134.217,735.0
134.218,590.0
134.219,443.0
134.22,478.0
134.221,539.0
134.222,483.0
134.223,432.0
134.224,459.0
134.225,517.0
134.226,450.0
134.227,440.0
134.228,531.0
134.229,578.0
134.23,523.0
134.231,472.0
134.232,460.0
134.233,479.0
134.234,456.0
134.235,493.0
134.236,584.0
134.237,601.0
134.238,526.0
134.239,476.0
134.24,474.0
134.241,490.0
134.242,474.0
134.243,526.0
134.244,602.0
134.245,627.0
134.246,569.0
134.247,517.0
134.248,495.0
134.249,501.0
134.25,519.0
134.251,583.0
134.252,618.0
134.253,626.0
134.254,590.0
134.255,543.0
134.256,521.0
134.257,524.0
134.258,558.0
134.259,616.0
134.26,619.0
134.261,616.0
134.262,580.0
134.263,530.0
134.264,518.0
134.265,519.0
134.266,562.0
134.267,616.0
134.268,619.0
134.269,609.0
134.27,573.0
134.271,534.0
134.272,525.0
134.273,531.0
134.274,580.0
134.275,619.0
134.276,615.0
134.277,595.0
134.278,557.0
134.279,519.0
134.28,514.0
134.281,525.0
134.282,579.0
134.283,613.0
134.284,615.0
134.285,583.0
134.286,535.0
134.287,504.0
134.288,507.0
134.289,526.0
134.29,581.0
134.291,602.0
134.292,614.0
134.293,579.0
134.294,533.0
134.295,508.0
134.296,515.0
134.297,543.0
134.298,593.0
134.299,602.0
134.3,602.0
134.301,566.0
134.302,517.0
134.303,502.0
134.304,512.0
134.305,544.0
134.306,587.0
134.307,594.0
134.308,591.0
134.309,554.0
134.31,506.0
134.311,497.0
134.312,510.0
134.313,553.0
134.314,580.0
134.315,590.0
134.316,581.0
134.317,536.0
134.318,491.0
134.319,490.0
134.32,510.0
134.321,562.0
134.322,573.0
134.323,593.0
134.324,572.0
134.325,521.0
134.326,481.0
134.327,484.0
134.328,513.0
134.329,565.0
134.33,553.0
134.331,587.0
134.332,558.0
134.333,505.0
134.334,473.0
134.335,484.0
134.336,519.0
134.337,570.0
134.338,534.0
134.339,571.0
134.34,535.0
134.341,482.0
134.342,462.0
134.343,476.0
134.344,518.0
134.345,577.0
134.346,552.0
134.347,578.0
134.348,538.0
134.349,488.0
134.35,473.0
134.351,490.0
134.352,533.0
134.353,594.0
134.354,569.0
134.355,569.0
134.356,524.0
134.357,478.0
134.358,477.0
134.359,491.0
134.36,542.0
134.361,606.0
134.362,566.0
134.363,555.0
134.364,512.0
134.365,478.0
134.366,481.0
134.367,498.0
134.368,562.0
134.369,606.0
134.37,565.0
134.371,531.0
134.372,509.0
134.373,493.0
134.374,498.0
134.375,504.0
134.376,572.0
134.377,605.0
134.378,555.0
134.379,523.0
134.38,524.0
134.381,530.0
134.382,531.0
134.383,515.0
134.384,595.0
134.385,622.0
134.386,564.0
134.387,528.0
134.388,528.0
134.389,523.0
134.39,518.0
134.391,523.0
134.392,613.0
134.393,618.0
134.394,538.0
134.395,521.0
134.396,580.0
134.397,576.0
134.398,547.0
134.399,520.0
134.4,616.0
134.401,595.0
134.402,518.0
134.403,549.0
134.404,663.0
134.405,648.0
134.406,568.0
134.407,529.0
134.408,617.0
134.409,592.0
134.41,516.0
134.411,535.0
134.412,619.0
134.413,590.0
134.414,522.0
134.415,554.0
134.416,618.0
134.417,585.0
134.418,522.0
134.419,518.0
134.42,566.0
134.421,532.0
134.422,504.0
134.423,576.0
134.424,623.0
134.425,583.0
134.426,526.0
134.427,518.0
134.428,554.0
134.429,517.0
134.43,511.0
134.431,611.0
134.432,647.0
134.433,599.0
134.434,546.0
134.435,518.0
134.436,527.0
134.437,507.0
134.438,544.0
134.439,638.0
134.44,659.0
134.441,628.0
134.442,576.0
134.443,535.0
134.444,532.0
134.445,529.0
134.446,584.0
134.447,643.0
134.448,655.0
134.449,631.0
134.45,580.0
134.451,545.0
134.452,543.0
134.453,551.0
134.454,616.0
134.455,640.0
134.456,646.0
134.457,617.0
134.458,570.0
134.459,538.0
134.46,536.0
134.461,558.0
134.462,623.0
134.463,637.0
134.464,633.0
134.465,605.0
134.466,558.0
134.467,535.0
134.468,531.0
134.469,563.0
134.47,616.0
134.471,622.0
134.472,615.0
134.473,588.0
134.474,542.0
134.475,528.0
134.476,528.0
134.477,567.0
134.478,605.0
134.479,615.0
134.48,600.0
134.481,573.0
134.482,531.0
134.483,522.0
134.484,527.0
134.485,572.0
134.486,589.0
134.487,607.0
134.488,587.0
134.489,554.0
134.49,515.0
134.491,513.0
134.492,522.0
134.493,574.0
134.494,572.0
134.495,617.0
134.496,575.0
134.497,537.0
134.498,506.0
134.499,506.0
134.5,528.0
134.501,565.0
134.502,553.0
134.503,589.0
134.504,556.0
134.505,514.0
134.506,495.0
134.507,498.0
134.508,525.0
134.509,547.0
134.51,542.0
134.511,575.0
134.512,539.0
134.513,497.0
134.514,485.0
134.515,496.0
134.516,527.0
134.517,535.0
134.518,544.0
134.519,565.0
134.52,518.0
134.521,482.0
134.522,482.0
134.523,497.0
134.524,536.0
134.525,522.0
134.526,559.0
134.527,569.0
134.528,517.0
134.529,487.0
134.53,491.0
134.531,509.0
134.532,552.0
134.533,520.0
134.534,570.0
134.535,550.0
134.536,498.0
134.537,480.0
134.538,490.0
134.539,514.0
134.54,554.0
134.541,517.0
134.542,555.0
134.543,530.0
134.544,494.0
134.545,489.0
134.546,505.0
134.547,523.0
134.548,555.0
134.549,519.0
134.55,545.0
134.551,530.0
134.552,513.0
134.553,520.0
134.554,527.0
134.555,532.0
134.556,589.0
134.557,544.0
134.558,540.0
134.559,537.0
134.56,540.0
134.561,542.0
134.562,537.0
134.563,539.0
134.564,586.0
134.565,542.0
134.566,527.0
134.567,575.0
134.568,598.0
134.569,591.0
134.57,554.0
134.571,547.0
134.572,582.0
134.573,544.0
134.574,527.0
134.575,698.0
134.576,758.0
134.577,687.0
134.578,584.0
134.579,549.0
134.58,562.0
134.581,521.0
134.582,534.0
134.583,785.0
134.584,863.0
134.585,752.0
134.586,577.0
134.587,536.0
134.588,545.0
134.589,493.0
134.59,542.0
134.591,838.0
134.592,850.0
134.593,718.0
134.594,523.0
134.595,521.0
134.596,519.0
134.597,455.0
134.598,527.0
134.599,784.0
134.6,750.0
134.601,619.0
134.602,470.0
134.603,520.0
134.604,492.0
134.605,444.0
134.606,589.0
134.607,857.0
134.608,778.0
134.609,595.0
134.61,451.0
134.611,522.0
134.612,487.0
134.613,417.0
134.614,487.0
134.615,616.0
134.616,546.0
134.617,455.0
134.618,464.0
134.619,526.0
134.62,494.0
134.621,432.0
134.622,463.0
134.623,559.0
134.624,498.0
134.625,446.0
134.626,507.0
134.627,559.0
134.628,507.0
134.629,450.0
134.63,469.0
134.631,531.0
134.632,476.0
134.633,462.0
134.634,555.0
134.635,591.0
134.636,530.0
134.637,476.0
134.638,470.0
134.639,500.0
134.64,474.0
134.641,501.0
134.642,592.0
134.643,616.0
134.644,594.0
134.645,540.0
134.646,507.0
134.647,507.0
134.648,514.0
134.649,570.0
134.65,621.0
134.651,637.0
134.652,610.0
134.653,561.0
134.654,529.0
134.655,528.0
134.656,551.0
134.657,607.0
134.658,624.0
134.659,628.0
134.66,591.0
134.661,542.0
134.662,520.0
134.663,523.0
134.664,555.0
134.665,614.0
134.666,618.0
134.667,620.0
134.668,587.0
134.669,541.0
134.67,524.0
134.671,529.0
134.672,569.0
134.673,617.0
134.674,618.0
134.675,610.0
134.676,572.0
134.677,529.0
134.678,520.0
134.679,527.0
134.68,572.0
134.681,613.0
134.682,610.0
134.683,592.0
134.684,550.0
134.685,509.0
134.686,506.0
134.687,519.0
134.688,574.0
134.689,605.0
134.69,610.0
134.691,579.0
134.692,531.0
134.693,498.0
134.694,504.0
134.695,521.0
134.696,580.0
134.697,596.0
134.698,613.0
134.699,575.0
134.7,528.0
134.701,501.0
134.702,506.0
134.703,532.0
134.704,582.0
134.705,587.0
134.706,602.0
134.707,569.0
134.708,521.0
134.709,503.0
134.71,509.0
134.711,541.0
134.712,585.0
134.713,582.0
134.714,589.0
134.715,550.0
134.716,501.0
134.717,492.0
134.718,506.0
134.719,545.0
134.72,580.0
134.721,585.0
134.722,578.0
134.723,536.0
134.724,488.0
134.725,487.0
134.726,505.0
134.727,554.0
134.728,561.0
134.729,579.0
134.73,564.0
134.731,515.0
134.732,473.0
134.733,482.0
134.734,508.0
134.735,559.0
134.736,553.0
134.737,579.0
134.738,552.0
134.739,498.0
134.74,466.0
134.741,478.0
134.742,512.0
134.743,570.0
134.744,555.0
134.745,580.0
134.746,546.0
134.747,491.0
134.748,469.0
134.749,481.0
134.75,521.0
134.751,581.0
134.752,554.0
134.753,579.0
134.754,540.0
134.755,489.0
134.756,475.0
134.757,491.0
134.758,536.0
134.759,594.0
134.76,562.0
134.761,569.0
134.762,527.0
134.763,483.0
134.764,481.0
134.765,492.0
134.766,543.0
134.767,606.0
134.768,571.0
134.769,547.0
134.77,507.0
134.771,484.0
134.772,489.0
134.773,495.0
134.774,555.0
134.775,612.0
134.776,569.0
134.777,528.0
134.778,508.0
134.779,512.0
134.78,521.0
134.781,506.0
134.782,572.0
134.783,623.0
134.784,560.0
134.785,518.0
134.786,520.0
134.787,533.0
134.788,531.0
134.789,507.0
134.79,578.0
134.791,612.0
134.792,539.0
134.793,510.0
134.794,554.0
134.795,574.0
134.796,565.0
134.797,515.0
134.798,590.0
134.799,600.0
134.8,525.0
134.801,512.0
134.802,611.0
134.803,627.0
134.804,591.0
134.805,514.0
134.806,595.0
134.807,595.0
134.808,514.0
134.809,517.0
134.81,641.0
134.811,637.0
134.812,570.0
134.813,512.0
134.814,603.0
134.815,585.0
134.816,509.0
134.817,504.0
134.818,588.0
134.819,566.0
134.82,514.0
134.821,538.0
134.822,615.0
134.823,584.0
134.824,517.0
134.825,499.0
134.826,550.0
134.827,523.0
134.828,496.0
134.829,561.0
134.83,607.0
134.831,579.0
134.832,528.0
134.833,504.0
134.834,527.0
134.835,505.0
134.836,505.0
134.837,603.0
134.838,630.0
134.839,619.0
134.84,573.0
134.841,526.0
134.842,521.0
134.843,511.0
134.844,552.0
134.845,634.0
134.846,642.0
134.847,625.0
134.848,583.0
134.849,538.0
134.85,529.0
134.851,531.0
134.852,583.0
134.853,642.0
134.854,645.0
134.855,630.0
134.856,587.0
134.857,547.0
134.858,541.0
134.859,554.0
134.86,609.0
134.861,632.0
134.862,646.0
134.863,616.0
134.864,574.0
134.865,540.0
134.866,536.0
134.867,557.0
134.868,609.0
134.869,621.0
134.87,623.0
134.871,596.0
134.872,554.0
134.873,527.0
134.874,523.0
134.875,552.0
134.876,594.0
134.877,607.0
134.878,598.0
134.879,571.0
134.88,527.0
134.881,511.0
134.882,514.0
134.883,550.0
134.884,585.0
134.885,597.0
134.886,581.0
134.887,553.0
134.888,514.0
134.889,500.0
134.89,508.0
134.891,554.0
134.892,563.0
134.893,593.0
134.894,577.0
134.895,544.0
134.896,508.0
134.897,501.0
134.898,515.0
134.899,565.0
134.9,553.0
134.901,590.0
134.902,564.0
134.903,524.0
134.904,495.0
134.905,493.0
134.906,514.0
134.907,555.0
134.908,534.0
134.909,585.0
134.91,551.0
134.911,513.0
134.912,488.0
134.913,495.0
134.914,522.0
134.915,554.0
134.916,536.0
134.917,572.0
134.918,537.0
134.919,494.0
134.92,486.0
134.921,490.0
134.922,525.0
134.923,537.0
134.924,541.0
134.925,566.0
134.926,522.0
134.927,484.0
134.928,482.0
134.929,491.0
134.93,536.0
134.931,528.0
134.932,550.0
134.933,556.0
134.934,508.0
134.935,479.0
134.936,482.0
134.937,498.0
134.938,542.0
134.939,514.0
134.94,540.0
134.941,534.0
134.942,491.0
134.943,471.0
134.944,488.0
134.945,501.0
134.946,550.0
134.947,517.0
134.948,543.0
134.949,521.0
134.95,496.0
134.951,492.0
134.952,507.0
134.953,508.0
134.954,570.0
134.955,528.0
134.956,541.0
134.957,524.0
134.958,513.0
134.959,512.0
134.96,519.0
134.961,523.0
134.962,584.0
134.963,543.0
134.964,534.0
134.965,531.0
134.966,542.0
134.967,535.0
134.968,525.0
134.969,529.0
134.97,602.0
134.971,548.0
134.972,519.0
134.973,583.0
134.974,645.0
134.975,617.0
134.976,562.0
134.977,533.0
134.978,594.0
134.979,543.0
134.98,510.0
134.981,646.0
134.982,751.0
134.983,677.0
134.984,565.0
134.985,530.0
134.986,574.0
134.987,517.0
134.988,504.0
134.989,687.0
134.99,775.0
134.991,672.0
134.992,534.0
134.993,529.0
134.994,558.0
134.995,495.0
134.996,515.0
134.997,742.0
134.998,775.0
134.999,644.0
135.0,500.0
135.001,525.0
135.002,536.0
135.003,470.0
135.004,522.0
135.005,764.0
135.006,768.0
135.007,611.0
135.008,476.0
135.009,526.0
135.01,519.0
135.011,450.0
135.012,511.0
135.013,692.0
135.014,652.0
135.015,517.0
135.016,452.0
135.017,550.0
135.018,515.0
135.019,444.0
135.02,519.0
135.021,668.0
135.022,597.0
135.023,474.0
135.024,474.0
135.025,560.0
135.026,533.0
135.027,459.0
135.028,464.0
135.029,511.0
135.03,474.0
135.031,455.0
135.032,530.0
135.033,590.0
135.034,574.0
135.035,516.0
135.036,478.0
135.037,486.0
135.038,471.0
135.039,505.0
135.04,596.0
135.041,609.0
135.042,594.0
135.043,543.0
135.044,499.0
135.045,500.0
135.046,497.0
135.047,545.0
135.048,613.0
135.049,615.0
135.05,575.0
135.051,521.0
135.052,489.0
135.053,494.0
135.054,497.0
135.055,553.0
135.056,616.0
135.057,623.0
135.058,601.0
135.059,550.0
135.06,517.0
135.061,518.0
135.062,538.0
135.063,598.0
135.064,619.0
135.065,639.0
135.066,601.0
135.067,555.0
135.068,525.0
135.069,529.0
135.07,559.0
135.071,608.0
135.072,609.0
135.073,613.0
135.074,577.0
135.075,530.0
135.076,511.0
135.077,514.0
135.078,548.0
135.079,603.0
135.08,611.0
135.081,608.0
135.082,574.0
135.083,530.0
135.084,518.0
135.085,525.0
135.086,569.0
135.087,609.0
135.088,609.0
135.089,592.0
135.09,556.0
135.091,519.0
135.092,514.0
135.093,524.0
135.094,575.0
135.095,600.0
135.096,594.0
135.097,569.0
135.098,526.0
135.099,491.0
135.1,495.0
135.101,512.0
135.102,576.0
135.103,582.0
135.104,601.0
135.105,569.0
135.106,522.0
135.107,492.0
135.108,497.0
135.109,524.0
135.11,579.0
135.111,578.0
135.112,594.0
135.113,559.0
135.114,513.0
135.115,490.0
135.116,496.0
135.117,527.0
135.118,575.0
135.119,566.0
135.12,582.0
135.121,546.0
135.122,499.0
135.123,486.0
135.124,498.0
135.125,535.0
135.126,562.0
135.127,559.0
135.128,565.0
135.129,522.0
135.13,474.0
135.131,472.0
135.132,489.0
135.133,536.0
135.134,556.0
135.135,565.0
135.136,560.0
135.137,506.0
135.138,464.0
135.139,470.0
135.14,495.0
135.141,550.0
135.142,552.0
135.143,570.0
135.144,553.0
135.145,500.0
135.146,465.0
135.147,474.0
135.148,505.0
135.149,573.0
135.15,539.0
135.151,566.0
135.152,534.0
135.153,486.0
135.154,465.0
135.155,475.0
135.156,510.0
135.157,581.0
135.158,576.0
135.159,583.0
135.16,543.0
135.161,496.0
135.162,476.0
135.163,486.0
135.164,531.0
135.165,606.0
135.166,583.0
135.167,570.0
135.168,529.0
135.169,490.0
135.17,479.0
135.171,489.0
135.172,538.0
135.173,612.0
135.174,575.0
135.175,546.0
135.176,511.0
135.177,492.0
135.178,493.0
135.179,490.0
135.18,541.0
135.181,609.0
135.182,565.0
135.183,529.0
135.184,514.0
135.185,508.0
135.186,513.0
135.187,501.0
135.188,557.0
135.189,614.0
135.19,554.0
135.191,519.0
135.192,532.0
135.193,546.0
135.194,537.0
135.195,506.0
135.196,568.0
135.197,619.0
135.198,555.0
135.199,510.0
135.2,547.0
135.201,570.0
135.202,552.0
135.203,506.0
135.204,588.0
135.205,612.0
135.206,532.0
135.207,509.0
135.208,612.0
135.209,637.0
135.21,594.0
135.211,508.0
135.212,584.0
135.213,598.0
135.214,520.0
135.215,507.0
135.216,629.0
135.217,635.0
135.218,565.0
135.219,502.0
135.22,603.0
135.221,594.0
135.222,519.0
135.223,494.0
135.224,557.0
135.225,545.0
135.226,496.0
135.227,529.0
135.228,612.0
135.229,614.0
135.23,550.0
135.231,501.0
135.232,515.0
135.233,500.0
135.234,495.0
135.235,574.0
135.236,628.0
135.237,616.0
135.238,570.0
135.239,517.0
135.24,513.0
135.241,502.0
135.242,528.0
135.243,616.0
135.244,636.0
135.245,608.0
135.246,561.0
135.247,512.0
135.248,514.0
135.249,501.0
135.25,537.0
135.251,627.0
135.252,635.0
135.253,627.0
135.254,586.0
135.255,539.0
135.256,531.0
135.257,528.0
135.258,580.0
135.259,630.0
135.26,635.0
135.261,622.0
135.262,583.0
135.263,544.0
135.264,539.0
135.265,547.0
135.266,600.0
135.267,628.0
135.268,636.0
135.269,603.0
135.27,561.0
135.271,529.0
135.272,519.0
135.273,536.0
135.274,587.0
135.275,607.0
135.276,612.0
135.277,584.0
135.278,540.0
135.279,514.0
135.28,515.0
135.281,542.0
135.282,580.0
135.283,599.0
135.284,597.0
135.285,559.0
135.286,516.0
135.287,500.0
135.288,505.0
135.289,541.0
135.29,569.0
135.291,591.0
135.292,585.0
135.293,554.0
135.294,512.0
135.295,501.0
135.296,509.0
135.297,552.0
135.298,558.0
135.299,583.0
135.3,569.0
135.301,530.0
135.302,494.0
135.303,492.0
135.304,508.0
135.305,558.0
135.306,536.0
135.307,588.0
135.308,561.0
135.309,521.0
135.31,491.0
135.311,496.0
135.312,517.0
135.313,562.0
135.314,530.0
135.315,586.0
135.316,553.0
135.317,511.0
135.318,488.0
135.319,492.0
135.32,524.0
135.321,558.0
135.322,535.0
135.323,574.0
135.324,536.0
135.325,492.0
135.326,481.0
135.327,490.0
135.328,528.0
135.329,540.0
135.33,544.0
135.331,574.0
135.332,532.0
135.333,490.0
135.334,484.0
135.335,500.0
135.336,539.0
135.337,540.0
135.338,549.0
135.339,562.0
135.34,517.0
135.341,482.0
135.342,489.0
135.343,505.0
135.344,555.0
135.345,525.0
135.346,538.0
135.347,539.0
135.348,502.0
135.349,477.0
135.35,496.0
135.351,510.0
135.352,561.0
135.353,531.0
135.354,547.0
135.355,527.0
135.356,513.0
135.357,500.0
135.358,516.0
135.359,522.0
135.36,579.0
135.361,539.0
135.362,540.0
135.363,526.0
135.364,541.0
135.365,532.0
135.366,536.0
135.367,531.0
135.368,603.0
135.369,575.0
135.37,532.0
135.371,528.0
135.372,565.0
135.373,549.0
135.374,535.0
135.375,531.0
135.376,609.0
135.377,561.0
135.378,517.0
135.379,591.0
135.38,708.0
135.381,648.0
135.382,586.0
135.383,528.0
135.384,586.0
135.385,530.0
135.386,519.0
135.387,741.0
135.388,917.0
135.389,781.0
135.39,630.0
135.391,520.0
135.392,554.0
135.393,507.0
135.394,483.0
135.395,680.0
135.396,809.0
135.397,670.0
135.398,530.0
135.399,502.0
135.4,537.0
135.401,476.0
135.402,475.0
135.403,683.0
135.404,763.0
135.405,625.0
135.406,489.0
135.407,506.0
135.408,528.0
135.409,459.0
135.41,493.0
135.411,732.0
135.412,777.0
135.413,607.0
135.414,460.0
135.415,507.0
135.416,513.0
135.417,436.0
135.418,482.0
135.419,671.0
135.42,669.0
135.421,519.0
135.422,439.0
135.423,533.0
135.424,535.0
135.425,453.0
135.426,431.0
135.427,491.0
135.428,476.0
135.429,440.0
135.43,484.0
135.431,573.0
135.432,565.0
135.433,494.0
135.434,451.0
135.435,469.0
135.436,457.0
135.437,471.0
135.438,544.0
135.439,584.0
135.44,554.0
135.441,493.0
135.442,461.0
135.443,487.0
135.444,471.0
135.445,491.0
135.446,577.0
135.447,603.0
135.448,584.0
135.449,525.0
135.45,485.0
135.451,498.0
135.452,486.0
135.453,533.0
135.454,615.0
135.455,621.0
135.456,612.0
135.457,563.0
135.458,521.0
135.459,519.0
135.46,526.0
135.461,580.0
135.462,628.0
135.463,633.0
135.464,616.0
135.465,569.0
135.466,531.0
135.467,531.0
135.468,544.0
135.469,602.0
135.47,624.0
135.471,622.0
135.472,589.0
135.473,537.0
135.474,509.0
135.475,514.0
135.476,539.0
135.477,592.0
135.478,611.0
135.479,618.0
135.48,584.0
135.481,536.0
135.482,511.0
135.483,519.0
135.484,552.0
135.485,597.0
135.486,606.0
135.487,603.0
135.488,568.0
135.489,522.0
135.49,508.0
135.491,514.0
135.492,555.0
135.493,597.0
135.494,599.0
135.495,583.0
135.496,548.0
135.497,504.0
135.498,498.0
135.499,509.0
135.5,559.0
135.501,587.0
135.502,591.0
135.503,570.0
135.504,527.0
135.505,487.0
135.506,489.0
135.507,508.0
135.508,563.0
135.509,576.0
135.51,594.0
135.511,564.0
135.512,520.0
135.513,486.0
135.514,490.0
135.515,513.0
135.516,570.0
135.517,561.0
135.518,586.0
135.519,552.0
135.52,502.0
135.521,477.0
135.522,486.0
135.523,518.0
135.524,567.0
135.525,561.0
135.526,576.0
135.527,540.0
135.528,491.0
135.529,474.0
135.53,487.0
135.531,524.0
135.532,561.0
135.533,555.0
135.534,562.0
135.535,523.0
135.536,470.0
135.537,465.0
135.538,485.0
135.539,528.0
135.54,546.0
135.541,541.0
135.542,546.0
135.543,497.0
135.544,452.0
135.545,457.0
135.546,479.0
135.547,529.0
135.548,550.0
135.549,556.0
135.55,543.0
135.551,490.0
135.552,454.0
135.553,462.0
135.554,489.0
135.555,554.0
135.556,560.0
135.557,567.0
135.558,538.0
135.559,489.0
135.56,460.0
135.561,469.0
135.562,504.0
135.563,576.0
135.564,567.0
135.565,557.0
135.566,516.0
135.567,473.0
135.568,458.0
135.569,468.0
135.57,505.0
135.571,595.0
135.572,568.0
135.573,539.0
135.574,501.0
135.575,472.0
135.576,467.0
135.577,471.0
135.578,511.0
135.579,600.0
135.58,552.0
135.581,512.0
135.582,487.0
135.583,488.0
135.584,498.0
135.585,483.0
135.586,510.0
135.587,592.0
135.588,548.0
135.589,507.0
135.59,489.0
135.591,505.0
135.592,509.0
135.593,484.0
135.594,531.0
135.595,593.0
135.596,535.0
135.597,485.0
135.598,518.0
135.599,563.0
135.6,550.0
135.601,493.0
135.602,542.0
135.603,592.0
135.604,525.0
135.605,479.0
135.606,530.0
135.607,574.0
135.608,556.0
135.609,490.0
135.61,549.0
135.611,578.0
135.612,506.0
135.613,477.0
135.614,586.0
135.615,638.0
135.616,590.0
135.617,487.0
135.618,560.0
135.619,591.0
135.62,514.0
135.621,471.0
135.622,518.0
135.623,526.0
135.624,491.0
135.625,487.0
135.626,585.0
135.627,587.0
135.628,519.0
135.629,474.0
135.63,507.0
135.631,503.0
135.632,476.0
135.633,518.0
135.634,601.0
135.635,595.0
135.636,530.0
135.637,481.0
135.638,498.0
135.639,491.0
135.64,478.0
135.641,551.0
135.642,604.0
135.643,607.0
135.644,565.0
135.645,509.0
135.646,498.0
135.647,490.0
135.648,511.0
135.649,594.0
135.65,614.0
135.651,616.0
135.652,576.0
135.653,527.0
135.654,512.0
135.655,506.0
135.656,541.0
135.657,615.0
135.658,619.0
135.659,615.0
135.66,579.0
135.661,532.0
135.662,519.0
135.663,523.0
135.664,566.0
135.665,615.0
135.666,617.0
135.667,597.0
135.668,563.0
135.669,524.0
135.67,512.0
135.671,521.0
135.672,569.0
135.673,602.0
135.674,607.0
135.675,583.0
135.676,539.0
135.677,507.0
135.678,502.0
135.679,519.0
135.68,565.0
135.681,593.0
135.682,596.0
135.683,566.0
135.684,527.0
135.685,498.0
135.686,497.0
135.687,524.0
135.688,561.0
135.689,579.0
135.69,581.0
135.691,549.0
135.692,506.0
135.693,489.0
135.694,492.0
135.695,524.0
135.696,552.0
135.697,574.0
135.698,579.0
135.699,547.0
135.7,509.0
135.701,497.0
135.702,501.0
135.703,543.0
135.704,547.0
135.705,571.0
135.706,560.0
135.707,525.0
135.708,487.0
135.709,485.0
135.71,496.0
135.711,544.0
135.712,519.0
135.713,566.0
135.714,549.0
135.715,506.0
135.716,478.0
135.717,480.0
135.718,499.0
135.719,548.0
135.72,505.0
135.721,565.0
135.722,537.0
135.723,489.0
135.724,468.0
135.725,474.0
135.726,504.0
135.727,538.0
135.728,509.0
135.729,553.0
135.73,517.0
135.731,473.0
135.732,462.0
135.733,474.0
135.734,507.0
135.735,529.0
135.736,512.0
135.737,548.0
135.738,510.0
135.739,468.0
135.74,465.0
135.741,479.0
135.742,516.0
135.743,517.0
135.744,508.0
135.745,527.0
135.746,490.0
135.747,455.0
135.748,469.0
135.749,480.0
135.75,520.0
135.751,507.0
135.752,512.0
135.753,515.0
135.754,493.0
135.755,467.0
135.756,480.0
135.757,491.0
135.758,540.0
135.759,542.0
135.76,533.0
135.761,516.0
135.762,502.0
135.763,484.0
135.764,496.0
135.765,503.0
135.766,574.0
135.767,564.0
135.768,529.0
135.769,513.0
135.77,519.0
135.771,504.0
135.772,507.0
135.773,507.0
135.774,591.0
135.775,548.0
135.776,505.0
135.777,534.0
135.778,652.0
135.779,614.0
135.78,574.0
135.781,508.0
135.782,581.0
135.783,524.0
135.784,490.0
135.785,613.0
135.786,815.0
135.787,727.0
135.788,621.0
135.789,494.0
135.79,554.0
135.791,506.0
135.792,463.0
135.793,625.0
135.794,780.0
135.795,676.0
135.796,547.0
135.797,488.0
135.798,543.0
135.799,488.0
135.8,458.0
135.801,653.0
135.802,811.0
135.803,663.0
135.804,502.0
135.805,480.0
135.806,523.0
135.807,458.0
135.808,459.0
135.809,695.0
135.81,828.0
135.811,653.0
135.812,472.0
135.813,478.0
135.814,525.0
135.815,439.0
135.816,426.0
135.817,564.0
135.818,612.0
135.819,494.0
135.82,425.0
135.821,514.0
135.822,550.0
135.823,456.0
135.824,430.0
135.825,499.0
135.826,504.0
135.827,443.0
135.828,444.0
135.829,553.0
135.83,557.0
135.831,465.0
135.832,444.0
135.833,513.0
135.834,501.0
135.835,445.0
135.836,480.0
135.837,564.0
135.838,555.0
135.839,473.0
135.84,451.0
135.841,504.0
135.842,486.0
135.843,457.0
135.844,527.0
135.845,582.0
135.846,605.0
135.847,557.0
135.848,503.0
135.849,491.0
135.85,484.0
135.851,518.0
135.852,594.0
135.853,609.0
135.854,604.0
135.855,556.0
135.856,511.0
135.857,503.0
135.858,502.0
135.859,546.0
135.86,614.0
135.861,609.0
135.862,597.0
135.863,549.0
135.864,506.0
135.865,504.0
135.866,505.0
135.867,565.0
135.868,612.0
135.869,616.0
135.87,589.0
135.871,535.0
135.872,497.0
135.873,500.0
135.874,506.0
135.875,571.0
135.876,606.0
135.877,613.0
135.878,565.0
135.879,501.0
135.88,474.0
135.881,491.0
135.882,505.0
135.883,570.0
135.884,596.0
135.885,605.0
135.886,550.0
135.887,483.0
135.888,468.0
135.889,486.0
135.89,508.0
135.891,573.0
135.892,594.0
135.893,578.0
135.894,515.0
135.895,454.0
135.896,467.0
135.897,492.0
135.898,503.0
135.899,563.0
135.9,592.0
135.901,554.0
135.902,484.0
135.903,447.0
135.904,496.0
135.905,515.0
135.906,511.0
135.907,560.0
135.908,597.0
135.909,571.0
135.91,494.0
135.911,450.0
135.912,492.0
135.913,507.0
135.914,544.0
135.915,554.0
135.916,597.0
135.917,547.0
135.918,469.0
135.919,467.0
135.92,534.0
135.921,518.0
135.922,552.0
135.923,537.0
135.924,588.0
135.925,531.0
135.926,465.0
135.927,515.0
135.928,576.0
135.929,526.0
135.93,547.0
135.931,516.0
135.932,558.0
135.933,511.0
135.934,527.0
135.935,674.0
135.936,676.0
135.937,533.0
135.938,524.0
135.939,500.0
135.94,530.0
135.941,508.0
135.942,664.0
135.943,831.0
135.944,724.0
135.945,524.0
135.946,485.0
135.947,484.0
135.948,493.0
135.949,579.0
135.95,1003.0
135.951,1007.0
135.952,783.0
135.953,495.0
135.954,433.0
135.955,444.0
135.956,443.0
135.957,765.0
135.958,1015.0
135.959,1013.0
135.96,753.0
135.961,447.0
135.962,371.0
135.963,396.0
135.964,408.0
135.965,1011.0
135.966,1013.0
135.967,1012.0
135.968,688.0
135.969,395.0
135.97,313.0
135.971,321.0
135.972,387.0
135.973,1015.0
135.974,1017.0
135.975,1016.0
135.976,504.0
135.977,325.0
135.978,274.0
135.979,258.0
135.98,560.0
135.981,1017.0
135.982,1017.0
135.983,1008.0
135.984,415.0
135.985,263.0
135.986,213.0
135.987,193.0
135.988,788.0
135.989,1019.0
135.99,1015.0
135.991,974.0
135.992,283.0
135.993,188.0
135.994,154.0
135.995,157.0
135.996,1011.0
135.997,1017.0
135.998,1020.0
135.999,883.0
136.0,196.0
136.001,138.0
136.002,84.0
136.003,101.0
136.004,1008.0
136.005,1017.0
136.006,1012.0
136.007,544.0
136.008,102.0
136.009,113.0
136.01,58.0
136.011,135.0
136.012,1011.0
136.013,1013.0
136.014,1011.0
136.015,354.0
136.016,86.0
136.017,118.0
136.018,44.0
136.019,145.0
136.02,933.0
136.021,1006.0
136.022,930.0
136.023,181.0
136.024,110.0
136.025,140.0
136.026,62.0
136.027,136.0
136.028,669.0
136.029,769.0
136.03,523.0
136.031,115.0
136.032,183.0
136.033,222.0
136.034,154.0
136.035,129.0
136.036,305.0
136.037,331.0
136.038,206.0
136.039,200.0
136.04,291.0
136.041,311.0
136.042,252.0
136.043,212.0
136.044,333.0
136.045,332.0
136.046,241.0
136.047,314.0
136.048,381.0
136.049,373.0
136.05,322.0
136.051,289.0
136.052,398.0
136.053,381.0
136.054,307.0
136.055,406.0
136.056,450.0
136.057,451.0
136.058,405.0
136.059,351.0
136.06,400.0
136.061,376.0
136.062,383.0
136.063,485.0
136.064,522.0
136.065,511.0
136.066,463.0
136.067,403.0
136.068,425.0
136.069,413.0
136.07,463.0
136.071,547.0
136.072,562.0
136.073,541.0
136.074,481.0
136.075,435.0
136.076,467.0
136.077,449.0
136.078,519.0
136.079,566.0
136.08,589.0
136.081,548.0
136.082,480.0
136.083,456.0
136.084,501.0
136.085,479.0
136.086,535.0
136.087,583.0
136.088,605.0
136.089,547.0
136.09,477.0
136.091,480.0
136.092,530.0
136.093,502.0
136.094,543.0
136.095,596.0
136.096,606.0
136.097,548.0
136.098,486.0
136.099,506.0
136.1,540.0
136.101,527.0
136.102,549.0
136.103,613.0
136.104,616.0
136.105,552.0
136.106,501.0
136.107,525.0
136.108,541.0
136.109,558.0
136.11,559.0
136.111,612.0
136.112,591.0
136.113,516.0
136.114,507.0
136.115,582.0
136.116,600.0
136.117,554.0
136.118,538.0
136.119,607.0
136.12,591.0
136.121,519.0
136.122,533.0
136.123,617.0
136.124,574.0
136.125,576.0
136.126,557.0
136.127,619.0
136.128,587.0
136.129,522.0
136.13,560.0
136.131,624.0
136.132,572.0
136.133,570.0
136.134,575.0
136.135,610.0
136.136,575.0
136.137,558.0
136.138,639.0
136.139,678.0
136.14,579.0
136.141,546.0
136.142,592.0
136.143,590.0
136.144,588.0
136.145,643.0
136.146,733.0
136.147,730.0
136.148,573.0
136.149,549.0
136.15,652.0
136.151,562.0
136.152,684.0
136.153,934.0
136.154,1001.0
136.155,837.0
136.156,556.0
136.157,501.0
136.158,548.0
136.159,509.0
136.16,750.0
136.161,960.0
136.162,968.0
136.163,718.0
136.164,514.0
136.165,460.0
136.166,573.0
136.167,524.0
136.168,1011.0
136.169,1013.0
136.17,1011.0
136.171,742.0
136.172,477.0
136.173,405.0
136.174,531.0
136.175,707.0
136.176,1017.0
136.177,1019.0
136.178,1013.0
136.179,767.0
136.18,403.0
136.181,324.0
136.182,573.0
136.183,1015.0
136.184,1023.0
136.185,1019.0
136.186,1016.0
136.187,816.0
136.188,282.0
136.189,200.0
136.19,558.0
136.191,1019.0
136.192,1021.0
136.193,1019.0
136.194,1015.0
136.195,505.0
136.196,110.0
136.197,130.0
