217.427000001,277.0
217.428000001,472.0
217.429000001,763.0
217.430000001,768.0
217.431000001,670.0
217.432000001,367.0
217.433000001,201.0
217.434000001,241.0
217.435000001,288.0
217.436000001,528.0
217.437000001,769.0
217.438000001,740.0
217.439000001,619.0
217.440000001,295.0
217.441000001,195.0
217.442000001,270.0
217.443000001,311.0
217.444000001,604.0
217.445000001,758.0
217.446000001,690.0
217.447000001,535.0
217.448000001,230.0
217.449000001,194.0
217.450000001,268.0
217.451000001,325.0
217.452000001,630.0
217.453000001,755.0
217.454000001,674.0
217.455000001,459.0
217.456000001,216.0
217.457000001,212.0
217.458000001,293.0
217.459000001,374.0
217.460000001,677.0
217.461000001,757.0
217.462000001,673.0
217.463000001,423.0
217.464000001,230.0
217.465000001,255.0
217.466000001,329.0
217.467000001,455.0
217.468000001,741.0
217.469000001,774.0
217.470000001,675.0
217.471000001,381.0
217.472000001,231.0
217.473000001,280.0
217.474000001,355.0
217.475000001,518.0
217.476000001,766.0
217.477000001,758.0
217.478000001,642.0
217.479000001,327.0
217.480000001,231.0
217.481000001,303.0
217.482000001,374.0
217.483000001,587.0
217.484000001,784.0
217.485000001,732.0
217.486000001,588.0
217.487000001,288.0
217.488000001,237.0
217.489000001,316.0
217.490000001,404.0
217.491000001,651.0
217.492000001,798.0
217.493000001,715.0
217.494000001,536.0
217.495000001,274.0
217.496000001,257.0
217.497000001,338.0
217.498000001,442.0
217.499000001,701.0
217.500000001,790.0
217.501000001,727.0
217.502000001,487.0
217.503000001,274.0
217.504000001,289.0
217.505000001,366.0
217.506000001,513.0
217.507000001,778.0
217.508000001,827.0
217.509000001,736.0
217.510000001,461.0
217.511000001,271.0
217.512000001,306.0
217.513000001,381.0
217.514000001,567.0
217.515000001,793.0
217.516000001,789.0
217.517000001,692.0
217.518000001,398.0
217.519000001,268.0
217.520000001,324.0
217.521000001,403.0
217.522000001,645.0
217.523000001,805.0
217.524000001,756.0
217.525000001,627.0
217.526000001,344.0
217.527000001,262.0
217.528000001,334.0
217.529000001,427.0
217.530000001,711.0
217.531000001,819.0
217.532000001,746.0
217.533000001,576.0
217.534000001,330.0
217.535000001,276.0
217.536000001,345.0
217.537000001,469.0
217.538000001,746.0
217.539000001,810.0
217.540000001,714.0
217.541000001,515.0
217.542000001,317.0
217.543000001,289.0
217.544000001,348.0
217.545000001,494.0
217.546000001,743.0
217.547000001,764.0
217.548000001,664.0
217.549000001,427.0
217.550000001,288.0
217.551000001,291.0
217.552000001,347.0
217.553000001,519.0
217.554000001,735.0
217.555000001,716.0
217.556000001,606.0
217.557000001,364.0
217.558000001,291.0
217.559000001,304.0
217.560000001,356.0
217.561000001,582.0
217.562000001,742.0
217.563000001,685.0
217.564000001,556.0
217.565000001,331.0
217.566000001,297.0
217.567000001,331.0
217.568000001,385.0
217.569000001,648.0
217.570000001,771.0
217.571000001,694.0
217.572000001,529.0
217.573000001,328.0
217.574000001,317.0
217.575000001,358.0
217.576000001,439.0
217.577000001,713.0
217.578000001,793.0
217.579000001,692.0
217.580000001,488.0
217.581000001,331.0
217.582000001,341.0
217.583000001,378.0
217.584000001,494.0
217.585000001,761.0
217.586000001,793.0
217.587000001,708.0
217.588000001,441.0
217.589000001,320.0
217.590000001,354.0
217.591000001,390.0
217.592000001,553.0
217.593000001,790.0
217.594000001,790.0
217.595000001,669.0
217.596000001,390.0
217.597000001,308.0
217.598000001,362.0
217.599000001,402.0
217.600000001,614.0
217.601000001,802.0
217.602000001,759.0
217.603000001,614.0
217.604000001,337.0
217.605000001,303.0
217.606000001,367.0
217.607000001,414.0
217.608000001,666.0
217.609000001,790.0
217.610000001,728.0
217.611000001,548.0
217.612000001,314.0
217.613000001,301.0
217.614000001,372.0
217.615000001,432.0
217.616000001,682.0
217.617000001,792.0
217.618000001,701.0
217.619000001,487.0
217.620000001,302.0
217.621000001,315.0
217.622000001,372.0
217.623000001,466.0
217.624000001,724.0
217.625000001,775.0
217.626000001,692.0
217.627000001,441.0
217.628000001,299.0
217.629000001,333.0
217.630000001,385.0
217.631000001,517.0
217.632000001,758.0
217.633000001,764.0
217.634000001,664.0
217.635000001,402.0
217.636000001,297.0
217.637000001,344.0
217.638000001,401.0
217.639000001,588.0
217.640000001,785.0
217.641000001,753.0
217.642000001,634.0
217.643000001,366.0
217.644000001,294.0
217.645000001,353.0
217.646000001,418.0
217.647000001,655.0
217.648000001,798.0
217.649000001,742.0
217.650000001,581.0
217.651000001,343.0
217.652000001,296.0
217.653000001,357.0
217.654000001,445.0
217.655000001,695.0
217.656000001,804.0
217.657000001,723.0
217.658000001,523.0
217.659000001,329.0
217.660000001,303.0
217.661000001,365.0
217.662000001,477.0
217.663000001,727.0
217.664000001,770.0
217.665000001,688.0
217.666000001,453.0
217.667000001,319.0
217.668000001,314.0
217.669000001,359.0
217.670000001,503.0
217.671000001,717.0
217.672000001,731.0
217.673000001,641.0
217.674000001,403.0
217.675000001,314.0
217.676000001,320.0
217.677000001,367.0
217.678000001,549.0
217.679000001,733.0
217.680000001,696.0
217.681000001,587.0
217.682000001,359.0
217.683000001,319.0
217.684000001,324.0
217.685000001,367.0
217.686000001,576.0
217.687000001,699.0
217.688000001,636.0
217.689000001,502.0
217.690000001,371.0
217.691000001,326.0
217.692000001,335.0
217.693000001,385.0
217.694000001,607.0
217.695000001,696.0
217.696000001,614.0
217.697000001,458.0
217.698000001,349.0
217.699000001,347.0
217.700000001,357.0
217.701000001,441.0
217.702000001,678.0
217.703000001,744.0
217.704000001,667.0
217.705000001,456.0
217.706000001,359.0
217.707000001,373.0
217.708000001,381.0
217.709000001,509.0
217.710000001,730.0
217.711000001,744.0
217.712000001,651.0
217.713000001,418.0
217.714000001,357.0
217.715000001,377.0
217.716000001,387.0
217.717000001,553.0
217.718000001,754.0
217.719000001,731.0
217.720000001,613.0
217.721000001,382.0
217.722000001,356.0
217.723000001,392.0
217.724000001,400.0
217.725000001,625.0
217.726000001,776.0
217.727000001,729.0
217.728000001,570.0
217.729000001,364.0
217.730000001,358.0
217.731000001,398.0
217.732000001,426.0
217.733000001,674.0
217.734000001,793.0
217.735000001,715.0
217.736000001,503.0
217.737000001,349.0
217.738000001,361.0
217.739000001,395.0
217.740000001,434.0
217.741000001,668.0
217.742000001,749.0
217.743000001,676.0
217.744000001,438.0
217.745000001,343.0
217.746000001,366.0
217.747000001,398.0
217.748000001,465.0
217.749000001,689.0
217.750000001,725.0
217.751000001,643.0
217.752000001,405.0
217.753000001,343.0
217.754000001,379.0
217.755000001,410.0
217.756000001,522.0
217.757000001,741.0
217.758000001,742.0
217.759000001,633.0
217.760000001,385.0
217.761000001,342.0
217.762000001,387.0
217.763000001,428.0
217.764000001,607.0
217.765000001,765.0
217.766000001,747.0
217.767000001,593.0
217.768000001,365.0
217.769000001,344.0
217.770000001,401.0
217.771000001,451.0
217.772000001,662.0
217.773000001,794.0
217.774000001,730.0
217.775000001,546.0
217.776000001,352.0
217.777000001,346.0
217.778000001,399.0
217.779000001,479.0
217.780000001,702.0
217.781000001,775.0
217.782000001,706.0
217.783000001,482.0
217.784000001,335.0
217.785000001,347.0
217.786000001,395.0
217.787000001,506.0
217.788000001,711.0
217.789000001,739.0
217.790000001,677.0
217.791000001,431.0
217.792000001,328.0
217.793000001,353.0
217.794000001,398.0
217.795000001,540.0
217.796000001,722.0
217.797000001,718.0
217.798000001,617.0
217.799000001,392.0
217.800000001,325.0
217.801000001,357.0
217.802000001,404.0
217.803000001,587.0
217.804000001,723.0
217.805000001,685.0
217.806000001,561.0
217.807000001,382.0
217.808000001,330.0
217.809000001,365.0
217.810000001,421.0
217.811000001,629.0
217.812000001,719.0
217.813000001,673.0
217.814000001,504.0
217.815000001,367.0
217.816000001,339.0
217.817000001,370.0
217.818000001,450.0
217.819000001,663.0
217.820000001,717.0
217.821000001,655.0
217.822000001,476.0
217.823000001,366.0
217.824000001,351.0
217.825000001,381.0
217.826000001,489.0
217.827000001,696.0
217.828000001,708.0
217.829000001,628.0
217.830000001,430.0
217.831000001,363.0
217.832000001,357.0
217.833000001,387.0
217.834000001,523.0
217.835000001,716.0
217.836000001,692.0
217.837000001,595.0
217.838000001,398.0
217.839000001,361.0
217.840000001,365.0
217.841000001,397.0
217.842000001,595.0
217.843000001,726.0
217.844000001,680.0
217.845000001,551.0
217.846000001,380.0
217.847000001,365.0
217.848000001,377.0
217.849000001,418.0
217.850000001,652.0
217.851000001,757.0
217.852000001,670.0
217.853000001,509.0
217.854000001,377.0
217.855000001,375.0
217.856000001,390.0
217.857000001,451.0
217.858000001,707.0
217.859000001,784.0
217.860000001,700.0
217.861000001,485.0
217.862000001,371.0
217.863000001,388.0
217.864000001,408.0
217.865000001,520.0
217.866000001,781.0
217.867000001,803.0
217.868000001,700.0
217.869000001,443.0
217.870000001,354.0
217.871000001,384.0
217.872000001,402.0
217.873000001,548.0
217.874000001,777.0
217.875000001,760.0
217.876000001,622.0
217.877000001,379.0
217.878000001,335.0
217.879000001,375.0
217.880000001,393.0
217.881000001,588.0
217.882000001,764.0
217.883000001,707.0
217.884000001,547.0
217.885000001,343.0
217.886000001,329.0
217.887000001,358.0
217.888000001,368.0
217.889000001,540.0
217.890000001,656.0
217.891000001,587.0
217.892000001,426.0
217.893000001,335.0
217.894000001,340.0
217.895000001,361.0
217.896000001,362.0
217.897000001,488.0
217.898000001,574.0
217.899000001,523.0
217.900000001,396.0
217.901000001,359.0
217.902000001,369.0
217.903000001,382.0
217.904000001,390.0
217.905000001,503.0
217.906000001,566.0
217.907000001,514.0
217.908000001,403.0
217.909000001,387.0
217.910000001,396.0
217.911000001,407.0
217.912000001,427.0
217.913000001,543.0
217.914000001,575.0
217.915000001,518.0
217.916000001,419.0
217.917000001,406.0
217.918000001,415.0
217.919000001,426.0
217.920000001,479.0
217.921000001,579.0
217.922000001,589.0
217.923000001,525.0
217.924000001,432.0
217.925000001,422.0
217.926000001,433.0
217.927000001,448.0
217.928000001,537.0
217.929000001,634.0
217.930000001,610.0
217.931000001,510.0
217.932000001,435.0
217.933000001,431.0
217.934000001,441.0
217.935000001,464.0
217.936000001,582.0
217.937000001,654.0
217.938000001,617.0
217.939000001,498.0
217.940000001,441.0
217.941000001,437.0
217.942000001,447.0
217.943000001,487.0
217.944000001,621.0
217.945000001,659.0
217.946000001,615.0
217.947000001,484.0
217.948000001,441.0
217.949000001,437.0
217.950000001,447.0
217.951000001,511.0
217.952000001,640.0
217.953000001,642.0
217.954000001,580.0
217.955000001,465.0
217.956000001,444.0
217.957000001,445.0
217.958000001,449.0
217.959000001,528.0
217.960000001,632.0
217.961000001,607.0
217.962000001,528.0
217.963000001,470.0
217.964000001,447.0
217.965000001,454.0
217.966000001,453.0
217.967000001,545.0
217.968000001,629.0
217.969000001,582.0
217.970000001,497.0
217.971000001,459.0
217.972000001,455.0
217.973000001,460.0
217.974000001,465.0
217.975000001,567.0
217.976000001,629.0
217.977000001,569.0
217.978000001,482.0
217.979000001,467.0
217.980000001,464.0
217.981000001,457.0
217.982000001,473.0
217.983000001,590.0
217.984000001,630.0
217.985000001,562.0
217.986000001,475.0
217.987000001,469.0
217.988000001,467.0
217.989000001,465.0
217.990000001,486.0
217.991000001,618.0
217.992000001,627.0
217.993000001,550.0
217.994000001,469.0
217.995000001,472.0
217.996000001,472.0
217.997000001,464.0
217.998000001,502.0
217.999000001,616.0
218.000000001,613.0
218.001000001,520.0
218.002000001,467.0
218.003000001,474.0
218.004000001,476.0
218.005000001,469.0
218.006000001,538.0
218.007000001,660.0
218.008000001,617.0
218.009000001,506.0
218.010000001,467.0
218.011000001,475.0
218.012000001,480.0
218.013000001,473.0
218.014000001,571.0
218.015000001,679.0
218.016000001,629.0
218.017000001,497.0
218.018000001,465.0
218.019000001,475.0
218.020000001,482.0
218.021000001,487.0
218.022000001,638.0
218.023000001,706.0
218.024000001,657.0
218.025000001,486.0
218.026000001,459.0
218.027000001,473.0
218.028000001,482.0
218.029000001,519.0
218.030000001,708.0
218.031000001,754.0
218.032000001,669.0
218.033000001,473.0
218.034000001,446.0
218.035000001,469.0
218.036000001,486.0
218.037000001,590.0
218.038000001,791.0
218.039000001,794.0
218.040000001,668.0
218.041000001,451.0
218.042000001,427.0
218.043000001,462.0
218.044000001,500.0
218.045000001,685.0
218.046000001,854.0
218.047000001,822.0
218.048000001,636.0
218.049000001,422.0
218.050000001,408.0
218.051000001,451.0
218.052000001,519.0
218.053000001,749.0
218.054000001,876.0
218.055000001,805.0
218.056000001,587.0
218.057000001,391.0
218.058000001,391.0
218.059000001,443.0
218.060000001,552.0
218.061000001,798.0
218.062000001,864.0
218.063000001,780.0
218.064000001,518.0
218.065000001,357.0
218.066000001,376.0
218.067000001,424.0
218.068000001,580.0
218.069000001,810.0
218.070000001,824.0
218.071000001,714.0
218.072000001,437.0
218.073000001,324.0
218.074000001,358.0
218.075000001,401.0
218.076000001,586.0
218.077000001,766.0
218.078000001,739.0
218.079000001,617.0
218.080000001,370.0
218.081000001,310.0
218.082000001,340.0
218.083000001,391.0
218.084000001,608.0
218.085000001,719.0
218.086000001,669.0
218.087000001,522.0
218.088000001,350.0
218.089000001,310.0
218.090000001,336.0
218.091000001,393.0
218.092000001,607.0
218.093000001,690.0
218.094000001,614.0
218.095000001,448.0
218.096000001,336.0
218.097000001,317.0
218.098000001,346.0
218.099000001,414.0
218.100000001,619.0
218.101000001,648.0
218.102000001,581.0
218.103000001,407.0
218.104000001,348.0
218.105000001,329.0
218.106000001,357.0
218.107000001,451.0
218.108000001,649.0
218.109000001,647.0
218.110000001,563.0
218.111000001,392.0
218.112000001,349.0
218.113000001,346.0
218.114000001,371.0
218.115000001,506.0
218.116000001,685.0
218.117000001,655.0
218.118000001,541.0
218.119000001,376.0
218.120000001,357.0
218.121000001,359.0
218.122000001,389.0
218.123000001,583.0
218.124000001,708.0
218.125000001,650.0
218.126000001,503.0
218.127000001,371.0
218.128000001,362.0
218.129000001,367.0
218.130000001,410.0
218.131000001,618.0
218.132000001,715.0
218.133000001,625.0
218.134000001,456.0
218.135000001,365.0
218.136000001,369.0
218.137000001,372.0
218.138000001,428.0
218.139000001,643.0
218.140000001,708.0
218.141000001,613.0
218.142000001,420.0
218.143000001,364.0
218.144000001,376.0
218.145000001,379.0
218.146000001,451.0
218.147000001,654.0
218.148000001,668.0
218.149000001,571.0
218.150000001,392.0
218.151000001,366.0
218.152000001,384.0
218.153000001,385.0
218.154000001,483.0
218.155000001,665.0
218.156000001,652.0
218.157000001,531.0
218.158000001,377.0
218.159000001,372.0
218.160000001,397.0
218.161000001,394.0
218.162000001,530.0
218.163000001,678.0
218.164000001,641.0
218.165000001,492.0
218.166000001,377.0
218.167000001,381.0
218.168000001,405.0
218.169000001,407.0
218.170000001,566.0
218.171000001,685.0
218.172000001,618.0
218.173000001,456.0
218.174000001,380.0
218.175000001,388.0
218.176000001,413.0
218.177000001,422.0
218.178000001,588.0
218.179000001,671.0
218.180000001,615.0
218.181000001,438.0
218.182000001,387.0
218.183000001,399.0
218.184000001,421.0
218.185000001,452.0
218.186000001,625.0
218.187000001,674.0
218.188000001,600.0
218.189000001,426.0
218.190000001,388.0
218.191000001,408.0
218.192000001,423.0
218.193000001,479.0
218.194000001,626.0
218.195000001,634.0
218.196000001,541.0
218.197000001,411.0
218.198000001,394.0
218.199000001,408.0
218.200000001,423.0
218.201000001,496.0
218.202000001,589.0
218.203000001,579.0
218.204000001,492.0
218.205000001,413.0
218.206000001,407.0
218.207000001,418.0
218.208000001,434.0
218.209000001,498.0
218.210000001,571.0
218.211000001,553.0
218.212000001,470.0
218.213000001,422.0
218.214000001,423.0
218.215000001,432.0
218.216000001,454.0
218.217000001,527.0
218.218000001,579.0
218.219000001,552.0
218.220000001,466.0
218.221000001,434.0
218.222000001,436.0
218.223000001,445.0
218.224000001,478.0
218.225000001,571.0
218.226000001,597.0
218.227000001,564.0
218.228000001,468.0
218.229000001,441.0
218.230000001,444.0
218.231000001,455.0
218.232000001,514.0
218.233000001,623.0
218.234000001,620.0
218.235000001,558.0
218.236000001,463.0
218.237000001,444.0
218.238000001,454.0
218.239000001,462.0
218.240000001,565.0
218.241000001,668.0
218.242000001,634.0
218.243000001,543.0
218.244000001,457.0
218.245000001,444.0
218.246000001,449.0
218.247000001,464.0
218.248000001,600.0
218.249000001,682.0
218.250000001,626.0
218.251000001,509.0
218.252000001,453.0
218.253000001,443.0
218.254000001,447.0
218.255000001,472.0
218.256000001,619.0
218.257000001,666.0
218.258000001,603.0
218.259000001,481.0
218.260000001,447.0
218.261000001,442.0
218.262000001,444.0
218.263000001,475.0
218.264000001,610.0
218.265000001,626.0
218.266000001,553.0
218.267000001,457.0
218.268000001,447.0
218.269000001,447.0
218.270000001,446.0
218.271000001,489.0
218.272000001,625.0
218.273000001,622.0
218.274000001,541.0
218.275000001,451.0
218.276000001,449.0
218.277000001,453.0
218.278000001,452.0
218.279000001,546.0
218.280000001,686.0
218.281000001,666.0
218.282000001,552.0
218.283000001,446.0
218.284000001,450.0
218.285000001,460.0
218.286000001,468.0
218.287000001,636.0
218.288000001,770.0
218.289000001,721.0
218.290000001,559.0
218.291000001,440.0
218.292000001,448.0
218.293000001,473.0
218.294000001,502.0
218.295000001,722.0
218.296000001,826.0
218.297000001,751.0
218.298000001,533.0
218.299000001,424.0
218.300000001,437.0
218.301000001,468.0
218.302000001,535.0
218.303000001,776.0
218.304000001,822.0
218.305000001,742.0
218.306000001,483.0
218.307000001,402.0
218.308000001,430.0
218.309000001,464.0
218.310000001,579.0
218.311000001,812.0
218.312000001,819.0
218.313000001,714.0
218.314000001,440.0
218.315000001,380.0
218.316000001,423.0
218.317000001,468.0
218.318000001,654.0
218.319000001,838.0
218.320000001,812.0
218.321000001,681.0
218.322000001,401.0
218.323000001,362.0
218.324000001,423.0
218.325000001,488.0
218.326000001,719.0
218.327000001,857.0
218.328000001,809.0
218.329000001,615.0
218.330000001,369.0
218.331000001,360.0
218.332000001,419.0
218.333000001,524.0
218.334000001,765.0
218.335000001,855.0
218.336000001,800.0
218.337000001,560.0
218.338000001,343.0
218.339000001,356.0
218.340000001,425.0
218.341000001,574.0
218.342000001,821.0
218.343000001,863.0
218.344000001,789.0
218.345000001,508.0
218.346000001,319.0
218.347000001,360.0
218.348000001,436.0
218.349000001,646.0
218.350000001,881.0
218.351000001,861.0
218.352000001,766.0
218.353000001,447.0
218.354000001,301.0
218.355000001,383.0
218.356000001,456.0
218.357000001,734.0
218.358000001,896.0
218.359000001,855.0
218.360000001,710.0
218.361000001,385.0
218.362000001,281.0
218.363000001,372.0
218.364000001,481.0
218.365000001,782.0
218.366000001,902.0
218.367000001,819.0
218.368000001,641.0
218.369000001,359.0
218.370000001,276.0
218.371000001,373.0
218.372000001,519.0
218.373000001,797.0
218.374000001,861.0
218.375000001,786.0
218.376000001,557.0
218.377000001,310.0
218.378000001,278.0
218.379000001,365.0
218.380000001,563.0
218.381000001,828.0
218.382000001,853.0
218.383000001,751.0
218.384000001,476.0
218.385000001,271.0
218.386000001,275.0
218.387000001,357.0
218.388000001,608.0
218.389000001,860.0
218.390000001,823.0
218.391000001,721.0
218.392000001,398.0
218.393000001,245.0
218.394000001,280.0
218.395000001,381.0
218.396000001,673.0
218.397000001,846.0
218.398000001,771.0
218.399000001,633.0
218.400000001,320.0
218.401000001,223.0
218.402000001,284.0
218.403000001,396.0
218.404000001,725.0
218.405000001,862.0
218.406000001,755.0
218.407000001,568.0
218.408000001,278.0
218.409000001,227.0
218.410000001,294.0
218.411000001,451.0
218.412000001,772.0
218.413000001,859.0
218.414000001,744.0
218.415000001,504.0
218.416000001,273.0
218.417000001,243.0
218.418000001,295.0
218.419000001,497.0
218.420000001,802.0
218.421000001,826.0
218.422000001,724.0
218.423000001,432.0
218.424000001,227.0
218.425000001,261.0
218.426000001,320.0
218.427000001,588.0
218.428000001,849.0
218.429000001,847.0
218.430000001,714.0
218.431000001,367.0
218.432000001,215.0
218.433000001,280.0
218.434000001,363.0
218.435000001,688.0
218.436000001,875.0
218.437000001,814.0
218.438000001,655.0
218.439000001,295.0
218.440000001,197.0
218.441000001,282.0
218.442000001,390.0
218.443000001,749.0
218.444000001,881.0
218.445000001,785.0
218.446000001,587.0
218.447000001,245.0
218.448000001,197.0
218.449000001,300.0
218.450000001,448.0
218.451000001,796.0
218.452000001,877.0
218.453000001,772.0
218.454000001,526.0
218.455000001,221.0
218.456000001,222.0
218.457000001,311.0
218.458000001,518.0
218.459000001,854.0
218.460000001,878.0
218.461000001,762.0
218.462000001,453.0
218.463000001,193.0
218.464000001,244.0
218.465000001,330.0
218.466000001,600.0
218.467000001,887.0
218.468000001,868.0
218.469000001,733.0
218.470000001,389.0
218.471000001,181.0
218.472000001,255.0
218.473000001,372.0
218.474000001,698.0
218.475000001,923.0
218.476000001,870.0
218.477000001,702.0
218.478000001,317.0
218.479000001,180.0
218.480000001,285.0
218.481000001,429.0
218.482000001,797.0
218.483000001,951.0
218.484000001,840.0
218.485000001,650.0
218.486000001,283.0
218.487000001,190.0
218.488000001,300.0
218.489000001,489.0
218.490000001,852.0
218.491000001,942.0
218.492000001,822.0
218.493000001,580.0
218.494000001,238.0
218.495000001,196.0
218.496000001,303.0
218.497000001,542.0
218.498000001,871.0
218.499000001,918.0
218.500000001,808.0
218.501000001,489.0
218.502000001,195.0
218.503000001,197.0
218.504000001,315.0
218.505000001,602.0
218.506000001,905.0
218.507000001,896.0
218.508000001,758.0
218.509000001,398.0
218.510000001,164.0
218.511000001,207.0
218.512000001,337.0
218.513000001,680.0
218.514000001,910.0
218.515000001,858.0
218.516000001,706.0
218.517000001,309.0
218.518000001,141.0
218.519000001,227.0
218.520000001,369.0
218.521000001,759.0
218.522000001,928.0
218.523000001,834.0
218.524000001,634.0
218.525000001,251.0
218.526000001,141.0
218.527000001,236.0
218.528000001,434.0
218.529000001,813.0
218.530000001,920.0
218.531000001,806.0
218.532000001,566.0
218.533000001,214.0
218.534000001,162.0
218.535000001,243.0
218.536000001,499.0
218.537000001,839.0
218.538000001,883.0
218.539000001,790.0
218.540000001,476.0
218.541000001,193.0
218.542000001,160.0
218.543000001,258.0
218.544000001,569.0
218.545000001,879.0
218.546000001,869.0
218.547000001,750.0
218.548000001,389.0
218.549000001,149.0
218.550000001,178.0
218.551000001,287.0
218.552000001,665.0
218.553000001,891.0
218.554000001,818.0
218.555000001,686.0
218.556000001,291.0
218.557000001,134.0
218.558000001,192.0
218.559000001,330.0
218.560000001,747.0
218.561000001,872.0
218.562000001,793.0
218.563000001,615.0
218.564000001,220.0
218.565000001,116.0
218.566000001,208.0
218.567000001,378.0
218.568000001,766.0
218.569000001,868.0
218.570000001,756.0
218.571000001,533.0
218.572000001,175.0
218.573000001,117.0
218.574000001,210.0
218.575000001,447.0
218.576000001,808.0
218.577000001,834.0
218.578000001,731.0
218.579000001,446.0
218.580000001,138.0
218.581000001,133.0
218.582000001,227.0
218.583000001,517.0
218.584000001,839.0
218.585000001,810.0
218.586000001,686.0
218.587000001,356.0
218.588000001,98.0
218.589000001,132.0
218.590000001,260.0
218.591000001,608.0
218.592000001,864.0
218.593000001,776.0
218.594000001,633.0
218.595000001,261.0
218.596000001,86.0
218.597000001,170.0
218.598000001,298.0
218.599000001,707.0
218.600000001,876.0
218.601000001,760.0
218.602000001,583.0
218.603000001,198.0
218.604000001,85.0
218.605000001,177.0
218.606000001,368.0
218.607000001,754.0
218.608000001,878.0
218.609000001,744.0
218.610000001,515.0
218.611000001,153.0
218.612000001,95.0
218.613000001,205.0
218.614000001,440.0
218.615000001,803.0
218.616000001,846.0
218.617000001,723.0
218.618000001,439.0
218.619000001,119.0
218.620000001,109.0
218.621000001,218.0
218.622000001,515.0
218.623000001,838.0
218.624000001,824.0
218.625000001,715.0
218.626000001,371.0
218.627000001,95.0
218.628000001,135.0
218.629000001,264.0
218.630000001,617.0
218.631000001,879.0
218.632000001,824.0
218.633000001,670.0
218.634000001,290.0
218.635000001,90.0
218.636000001,170.0
218.637000001,326.0
218.638000001,723.0
218.639000001,907.0
218.640000001,801.0
218.641000001,630.0
218.642000001,227.0
218.643000001,96.0
218.644000001,205.0
218.645000001,381.0
218.646000001,771.0
218.647000001,899.0
218.648000001,785.0
218.649000001,553.0
218.650000001,187.0
218.651000001,102.0
218.652000001,217.0
218.653000001,465.0
218.654000001,812.0
218.655000001,861.0
218.656000001,745.0
218.657000001,459.0
218.658000001,149.0
218.659000001,110.0
218.660000001,227.0
218.661000001,524.0
218.662000001,839.0
218.663000001,848.0
218.664000001,728.0
218.665000001,390.0
218.666000001,119.0
218.667000001,139.0
218.668000001,260.0
218.669000001,606.0
218.670000001,867.0
218.671000001,808.0
218.672000001,661.0
218.673000001,282.0
218.674000001,87.0
218.675000001,150.0
218.676000001,298.0
218.677000001,705.0
218.678000001,852.0
218.679000001,785.0
218.680000001,617.0
218.681000001,221.0
218.682000001,99.0
218.683000001,169.0
218.684000001,366.0
218.685000001,760.0
218.686000001,866.0
218.687000001,758.0
218.688000001,537.0
218.689000001,186.0
218.690000001,101.0
218.691000001,179.0
218.692000001,430.0
218.693000001,794.0
218.694000001,829.0
218.695000001,710.0
218.696000001,438.0
218.697000001,108.0
218.698000001,83.0
218.699000001,176.0
218.700000001,483.0
218.701000001,792.0
218.702000001,782.0
218.703000001,659.0
218.704000001,318.0
218.705000001,59.0
218.706000001,82.0
218.707000001,173.0
218.708000001,552.0
218.709000001,784.0
218.710000001,737.0
218.711000001,587.0
218.712000001,201.0
218.713000001,30.0
218.714000001,83.0
218.715000001,221.0
218.716000001,635.0
218.717000001,797.0
218.718000001,711.0
218.719000001,539.0
218.720000001,152.0
218.721000001,30.0
218.722000001,117.0
218.723000001,288.0
218.724000001,700.0
218.725000001,799.0
218.726000001,687.0
218.727000001,480.0
218.728000001,107.0
218.729000001,58.0
218.730000001,180.0
218.731000001,383.0
218.732000001,766.0
218.733000001,803.0
218.734000001,702.0
218.735000001,426.0
218.736000001,103.0
218.737000001,93.0
218.738000001,204.0
218.739000001,489.0
218.740000001,851.0
218.741000001,829.0
218.742000001,689.0
218.743000001,368.0
218.744000001,90.0
218.745000001,149.0
218.746000001,266.0
218.747000001,601.0
218.748000001,888.0
218.749000001,813.0
218.750000001,677.0
218.751000001,308.0
218.752000001,91.0
218.753000001,184.0
218.754000001,319.0
218.755000001,713.0
218.756000001,924.0
218.757000001,822.0
218.758000001,648.0
218.759000001,240.0
218.760000001,109.0
218.761000001,217.0
218.762000001,381.0
218.763000001,797.0
218.764000001,935.0
218.765000001,802.0
218.766000001,578.0
218.767000001,200.0
218.768000001,113.0
218.769000001,237.0
218.770000001,439.0
218.771000001,835.0
218.772000001,915.0
218.773000001,794.0
218.774000001,507.0
218.775000001,170.0
218.776000001,132.0
218.777000001,251.0
218.778000001,536.0
218.779000001,882.0
218.780000001,910.0
218.781000001,770.0
218.782000001,437.0
218.783000001,143.0
218.784000001,165.0
218.785000001,292.0
218.786000001,634.0
218.787000001,928.0
218.788000001,903.0
218.789000001,757.0
218.790000001,371.0
218.791000001,137.0
218.792000001,217.0
218.793000001,352.0
218.794000001,751.0
218.795000001,967.0
218.796000001,892.0
218.797000001,706.0
218.798000001,306.0
218.799000001,154.0
218.800000001,239.0
218.801000001,424.0
218.802000001,832.0
218.803000001,968.0
218.804000001,872.0
218.805000001,648.0
218.806000001,264.0
218.807000001,166.0
218.808000001,260.0
218.809000001,495.0
218.810000001,876.0
218.811000001,959.0
218.812000001,856.0
218.813000001,574.0
218.814000001,221.0
218.815000001,167.0
218.816000001,284.0
218.817000001,569.0
218.818000001,901.0
218.819000001,919.0
218.820000001,812.0
218.821000001,512.0
218.822000001,191.0
218.823000001,185.0
218.824000001,295.0
218.825000001,657.0
218.826000001,927.0
218.827000001,892.0
218.828000001,775.0
218.829000001,386.0
218.830000001,156.0
218.831000001,203.0
218.832000001,331.0
218.833000001,744.0
218.834000001,938.0
218.835000001,860.0
218.836000001,712.0
218.837000001,290.0
218.838000001,144.0
218.839000001,218.0
218.840000001,391.0
218.841000001,804.0
218.842000001,936.0
218.843000001,836.0
218.844000001,637.0
218.845000001,240.0
218.846000001,143.0
218.847000001,228.0
218.848000001,444.0
218.849000001,840.0
218.850000001,915.0
218.851000001,812.0
218.852000001,548.0
218.853000001,188.0
218.854000001,144.0
218.855000001,246.0
218.856000001,525.0
218.857000001,878.0
218.858000001,883.0
218.859000001,774.0
218.860000001,464.0
218.861000001,156.0
218.862000001,160.0
218.863000001,267.0
218.864000001,612.0
218.865000001,918.0
218.866000001,857.0
218.867000001,728.0
218.868000001,371.0
218.869000001,128.0
218.870000001,175.0
218.871000001,313.0
218.872000001,715.0
218.873000001,928.0
218.874000001,832.0
218.875000001,671.0
218.876000001,271.0
218.877000001,114.0
218.878000001,189.0
218.879000001,355.0
218.880000001,780.0
218.881000001,947.0
218.882000001,823.0
218.883000001,611.0
218.884000001,219.0
218.885000001,109.0
218.886000001,219.0
218.887000001,430.0
218.888000001,836.0
218.889000001,912.0
218.890000001,782.0
218.891000001,528.0
218.892000001,190.0
218.893000001,123.0
218.894000001,227.0
218.895000001,506.0
218.896000001,872.0
218.897000001,886.0
218.898000001,763.0
218.899000001,445.0
218.900000001,136.0
218.901000001,142.0
218.902000001,254.0
218.903000001,588.0
218.904000001,913.0
218.905000001,849.0
218.906000001,725.0
218.907000001,356.0
218.908000001,110.0
218.909000001,164.0
218.910000001,293.0
218.911000001,688.0
218.912000001,923.0
218.913000001,832.0
218.914000001,672.0
218.915000001,266.0
218.916000001,94.0
218.917000001,186.0
218.918000001,352.0
218.919000001,762.0
218.920000001,929.0
218.921000001,823.0
218.922000001,615.0
218.923000001,232.0
218.924000001,110.0
218.925000001,211.0
218.926000001,429.0
218.927000001,833.0
218.928000001,923.0
218.929000001,808.0
218.930000001,541.0
218.931000001,195.0
218.932000001,120.0
218.933000001,232.0
218.934000001,499.0
218.935000001,856.0
218.936000001,880.0
218.937000001,777.0
218.938000001,453.0
218.939000001,154.0
218.940000001,151.0
218.941000001,262.0
218.942000001,587.0
218.943000001,899.0
218.944000001,879.0
218.945000001,760.0
218.946000001,385.0
218.947000001,132.0
218.948000001,176.0
218.949000001,298.0
218.950000001,698.0
218.951000001,906.0
218.952000001,850.0
218.953000001,688.0
218.954000001,281.0
218.955000001,116.0
218.956000001,182.0
218.957000001,352.0
218.958000001,770.0
218.959000001,898.0
218.960000001,807.0
218.961000001,640.0
218.962000001,230.0
218.963000001,105.0
218.964000001,198.0
218.965000001,428.0
218.966000001,811.0
218.967000001,894.0
218.968000001,780.0
218.969000001,544.0
218.970000001,187.0
218.971000001,124.0
218.972000001,216.0
218.973000001,509.0
218.974000001,857.0
218.975000001,906.0
218.976000001,772.0
218.977000001,464.0
218.978000001,146.0
218.979000001,140.0
218.980000001,263.0
218.981000001,588.0
218.982000001,878.0
218.983000001,841.0
218.984000001,728.0
218.985000001,363.0
218.986000001,115.0
218.987000001,147.0
218.988000001,285.0
218.989000001,688.0
218.990000001,886.0
218.991000001,809.0
218.992000001,677.0
218.993000001,264.0
218.994000001,95.0
218.995000001,168.0
218.996000001,335.0
218.997000001,773.0
218.998000001,906.0
218.999000001,793.0
219.000000001,606.0
219.001000001,218.0
219.002000001,101.0
219.003000001,196.0
219.004000001,406.0
219.005000001,827.0
219.006000001,891.0
219.007000001,784.0
219.008000001,521.0
219.009000001,169.0
219.010000001,104.0
219.011000001,216.0
219.012000001,487.0
219.013000001,865.0
219.014000001,874.0
219.015000001,751.0
219.016000001,447.0
219.017000001,125.0
219.018000001,135.0
219.019000001,246.0
219.020000001,578.0
219.021000001,907.0
219.022000001,867.0
219.023000001,723.0
219.024000001,366.0
219.025000001,106.0
219.026000001,160.0
219.027000001,276.0
219.028000001,679.0
219.029000001,933.0
219.030000001,836.0
219.031000001,688.0
219.032000001,277.0
219.033000001,91.0
219.034000001,172.0
219.035000001,329.0
219.036000001,777.0
219.037000001,953.0
219.038000001,827.0
219.039000001,631.0
219.040000001,222.0
219.041000001,85.0
219.042000001,201.0
219.043000001,412.0
219.044000001,835.0
219.045000001,945.0
219.046000001,809.0
219.047000001,559.0
219.048000001,189.0
219.049000001,106.0
219.050000001,240.0
219.051000001,503.0
219.052000001,888.0
219.053000001,920.0
219.054000001,789.0
219.055000001,493.0
219.056000001,156.0
219.057000001,138.0
219.058000001,253.0
219.059000001,570.0
219.060000001,940.0
219.061000001,914.0
219.062000001,771.0
219.063000001,413.0
219.064000001,127.0
219.065000001,165.0
219.066000001,302.0
219.067000001,682.0
219.068000001,971.0
219.069000001,897.0
219.070000001,725.0
219.071000001,321.0
219.072000001,119.0
219.073000001,191.0
219.074000001,358.0
219.075000001,775.0
219.076000001,972.0
219.077000001,876.0
219.078000001,662.0
219.079000001,247.0
219.080000001,99.0
219.081000001,203.0
219.082000001,421.0
219.083000001,834.0
219.084000001,961.0
219.085000001,859.0
219.086000001,593.0
219.087000001,205.0
219.088000001,111.0
219.089000001,221.0
219.090000001,497.0
219.091000001,874.0
219.092000001,935.0
219.093000001,809.0
219.094000001,510.0
219.095000001,173.0
219.096000001,138.0
219.097000001,246.0
219.098000001,576.0
219.099000001,898.0
219.100000001,910.0
219.101000001,776.0
219.102000001,421.0
219.103000001,132.0
219.104000001,153.0
219.105000001,271.0
219.106000001,664.0
219.107000001,916.0
219.108000001,877.0
219.109000001,726.0
219.110000001,344.0
219.111000001,113.0
219.112000001,165.0
219.113000001,326.0
219.114000001,772.0
219.115000001,916.0
219.116000001,840.0
219.117000001,664.0
219.118000001,242.0
219.119000001,105.0
219.120000001,192.0
219.121000001,390.0
219.122000001,817.0
219.123000001,921.0
219.124000001,808.0
219.125000001,593.0
219.126000001,204.0
219.127000001,106.0
219.128000001,214.0
219.129000001,468.0
219.130000001,850.0
219.131000001,897.0
219.132000001,763.0
219.133000001,497.0
219.134000001,146.0
219.135000001,110.0
219.136000001,216.0
219.137000001,541.0
219.138000001,885.0
219.139000001,859.0
219.140000001,744.0
219.141000001,404.0
219.142000001,122.0
219.143000001,145.0
219.144000001,249.0
219.145000001,635.0
219.146000001,904.0
219.147000001,837.0
219.148000001,701.0
219.149000001,316.0
219.150000001,92.0
219.151000001,156.0
219.152000001,306.0
219.153000001,749.0
219.154000001,911.0
219.155000001,817.0
219.156000001,637.0
219.157000001,232.0
219.158000001,83.0
219.159000001,178.0
219.160000001,368.0
219.161000001,807.0
219.162000001,914.0
219.163000001,785.0
219.164000001,563.0
219.165000001,182.0
219.166000001,107.0
219.167000001,214.0
219.168000001,460.0
219.169000001,859.0
219.170000001,901.0
219.171000001,771.0
219.172000001,493.0
219.173000001,158.0
219.174000001,115.0
219.175000001,225.0
219.176000001,539.0
219.177000001,911.0
219.178000001,882.0
219.179000001,760.0
219.180000001,414.0
219.181000001,128.0
219.182000001,149.0
219.183000001,258.0
219.184000001,644.0
219.185000001,943.0
219.186000001,868.0
219.187000001,715.0
219.188000001,331.0
219.189000001,122.0
219.190000001,177.0
219.191000001,321.0
219.192000001,749.0
219.193000001,958.0
219.194000001,849.0
219.195000001,657.0
219.196000001,248.0
219.197000001,98.0
219.198000001,187.0
219.199000001,387.0
219.200000001,811.0
219.201000001,956.0
219.202000001,820.0
219.203000001,595.0
219.204000001,213.0
219.205000001,121.0
219.206000001,223.0
219.207000001,464.0
219.208000001,868.0
219.209000001,954.0
219.210000001,820.0
219.211000001,531.0
219.212000001,181.0
219.213000001,150.0
219.214000001,248.0
219.215000001,554.0
219.216000001,900.0
219.217000001,912.0
219.218000001,771.0
219.219000001,442.0
219.220000001,140.0
219.221000001,157.0
219.222000001,290.0
219.223000001,649.0
219.224000001,932.0
219.225000001,884.0
219.226000001,748.0
219.227000001,348.0
219.228000001,118.0
219.229000001,173.0
219.230000001,333.0
219.231000001,759.0
219.232000001,935.0
219.233000001,870.0
219.234000001,698.0
219.235000001,279.0
219.236000001,105.0
219.237000001,196.0
219.238000001,387.0
219.239000001,800.0
219.240000001,936.0
219.241000001,838.0
219.242000001,628.0
219.243000001,214.0
219.244000001,110.0
219.245000001,218.0
219.246000001,470.0
219.247000001,862.0
219.248000001,908.0
219.249000001,803.0
219.250000001,529.0
219.251000001,168.0
219.252000001,127.0
219.253000001,230.0
219.254000001,553.0
219.255000001,888.0
219.256000001,891.0
219.257000001,783.0
219.258000001,454.0
219.259000001,142.0
219.260000001,136.0
219.261000001,257.0
219.262000001,643.0
219.263000001,915.0
219.264000001,868.0
219.265000001,726.0
219.266000001,334.0
219.267000001,105.0
219.268000001,161.0
219.269000001,308.0
219.270000001,750.0
219.271000001,922.0
219.272000001,826.0
219.273000001,670.0
219.274000001,250.0
219.275000001,98.0
219.276000001,177.0
219.277000001,377.0
219.278000001,815.0
219.279000001,927.0
219.280000001,784.0
219.281000001,592.0
219.282000001,185.0
219.283000001,80.0
219.284000001,188.0
219.285000001,446.0
219.286000001,849.0
219.287000001,883.0
219.288000001,748.0
219.289000001,494.0
219.290000001,139.0
219.291000001,93.0
219.292000001,187.0
219.293000001,534.0
219.294000001,890.0
219.295000001,864.0
219.296000001,745.0
219.297000001,409.0
219.298000001,91.0
219.299000001,125.0
219.300000001,243.0
219.301000001,619.0
219.302000001,918.0
219.303000001,843.0
219.304000001,693.0
219.305000001,316.0
219.306000001,75.0
219.307000001,119.0
219.308000001,266.0
219.309000001,728.0
219.310000001,956.0
219.311000001,813.0
219.312000001,638.0
219.313000001,221.0
219.314000001,58.0
219.315000001,148.0
219.316000001,339.0
219.317000001,809.0
219.318000001,940.0
219.319000001,818.0
219.320000001,591.0
219.321000001,183.0
219.322000001,79.0
219.323000001,182.0
219.324000001,435.0
219.325000001,870.0
219.326000001,954.0
219.327000001,796.0
219.328000001,527.0
219.329000001,157.0
219.330000001,88.0
219.331000001,208.0
219.332000001,515.0
219.333000001,927.0
219.334000001,927.0
219.335000001,772.0
219.336000001,444.0
219.337000001,111.0
219.338000001,132.0
219.339000001,238.0
219.340000001,605.0
219.341000001,959.0
219.342000001,910.0
219.343000001,746.0
219.344000001,359.0
219.345000001,87.0
219.346000001,155.0
219.347000001,309.0
219.348000001,731.0
219.349000001,978.0
219.350000001,890.0
219.351000001,698.0
219.352000001,282.0
219.353000001,94.0
219.354000001,156.0
219.355000001,367.0
219.356000001,813.0
219.357000001,996.0
219.358000001,865.0
219.359000001,622.0
219.360000001,222.0
219.361000001,76.0
219.362000001,192.0
219.363000001,437.0
219.364000001,853.0
219.365000001,962.0
219.366000001,823.0
219.367000001,551.0
219.368000001,177.0
219.369000001,95.0
219.370000001,211.0
219.371000001,531.0
219.372000001,883.0
219.373000001,924.0
219.374000001,816.0
219.375000001,469.0
219.376000001,135.0
219.377000001,133.0
219.378000001,239.0
219.379000001,616.0
219.380000001,924.0
219.381000001,913.0
219.382000001,769.0
219.383000001,380.0
219.384000001,105.0
219.385000001,146.0
219.386000001,281.0
219.387000001,718.0
219.388000001,936.0
219.389000001,889.0
219.390000001,725.0
219.391000001,281.0
219.392000001,83.0
219.393000001,166.0
219.394000001,339.0
219.395000001,799.0
219.396000001,921.0
219.397000001,847.0
219.398000001,642.0
219.399000001,203.0
219.400000001,73.0
219.401000001,181.0
219.402000001,409.0
219.403000001,829.0
219.404000001,909.0
219.405000001,811.0
219.406000001,557.0
219.407000001,153.0
219.408000001,77.0
219.409000001,186.0
219.410000001,498.0
219.411000001,875.0
219.412000001,892.0
219.413000001,785.0
219.414000001,461.0
219.415000001,102.0
219.416000001,97.0
219.417000001,202.0
219.418000001,587.0
219.419000001,917.0
219.420000001,864.0
219.421000001,743.0
219.422000001,358.0
219.423000001,74.0
219.424000001,95.0
219.425000001,246.0
219.426000001,694.0
219.427000001,920.0
219.428000001,841.0
219.429000001,691.0
219.430000001,258.0
219.431000001,50.0
219.432000001,117.0
219.433000001,308.0
219.434000001,793.0
219.435000001,938.0
219.436000001,773.0
219.437000001,595.0
219.438000001,166.0
219.439000001,31.0
219.440000001,112.0
219.441000001,381.0
219.442000001,841.0
219.443000001,913.0
219.444000001,771.0
219.445000001,520.0
219.446000001,131.0
219.447000001,56.0
219.448000001,161.0
219.449000001,474.0
219.450000001,890.0
219.451000001,889.0
219.452000001,755.0
219.453000001,426.0
219.454000001,85.0
219.455000001,91.0
219.456000001,186.0
219.457000001,575.0
219.458000001,946.0
219.459000001,884.0
219.460000001,742.0
219.461000001,365.0
219.462000001,83.0
219.463000001,116.0
219.464000001,254.0
219.465000001,709.0
219.466000001,993.0
219.467000001,876.0
219.468000001,701.0
219.469000001,275.0
219.470000001,66.0
219.471000001,157.0
219.472000001,333.0
219.473000001,800.0
219.474000001,987.0
219.475000001,856.0
219.476000001,630.0
219.477000001,199.0
219.478000001,57.0
219.479000001,180.0
219.480000001,404.0
219.481000001,867.0
219.482000001,995.0
219.483000001,820.0
219.484000001,564.0
219.485000001,164.0
219.486000001,91.0
219.487000001,194.0
219.488000001,506.0
219.489000001,925.0
219.490000001,986.0
219.491000001,822.0
219.492000001,489.0
219.493000001,116.0
219.494000001,109.0
219.495000001,224.0
219.496000001,596.0
219.497000001,962.0
219.498000001,950.0
219.499000001,799.0
219.500000001,395.0
219.501000001,91.0
219.502000001,124.0
219.503000001,267.0
219.504000001,713.0
219.505000001,994.0
219.506000001,918.0
219.507000001,742.0
219.508000001,293.0
219.509000001,72.0
219.510000001,148.0
219.511000001,335.0
219.512000001,813.0
219.513000001,993.0
219.514000001,891.0
219.515000001,662.0
219.516000001,216.0
219.517000001,73.0
219.518000001,173.0
219.519000001,413.0
219.520000001,865.0
219.521000001,978.0
219.522000001,857.0
219.523000001,582.0
219.524000001,163.0
219.525000001,74.0
219.526000001,193.0
219.527000001,505.0
219.528000001,909.0
219.529000001,956.0
219.530000001,824.0
219.531000001,500.0
219.532000001,119.0
219.533000001,84.0
219.534000001,219.0
219.535000001,588.0
219.536000001,941.0
219.537000001,923.0
219.538000001,792.0
219.539000001,390.0
219.540000001,70.0
219.541000001,101.0
219.542000001,262.0
219.543000001,711.0
219.544000001,946.0
219.545000001,883.0
219.546000001,728.0
219.547000001,289.0
219.548000001,45.0
219.549000001,131.0
219.550000001,319.0
219.551000001,805.0
219.552000001,952.0
219.553000001,828.0
219.554000001,641.0
219.555000001,188.0
219.556000001,38.0
219.557000001,133.0
219.558000001,391.0
219.559000001,854.0
219.560000001,960.0
219.561000001,812.0
219.562000001,563.0
219.563000001,149.0
219.564000001,38.0
219.565000001,162.0
219.566000001,480.0
219.567000001,904.0
219.568000001,905.0
219.569000001,796.0
219.570000001,469.0
219.571000001,86.0
219.572000001,51.0
219.573000001,173.0
219.574000001,577.0
219.575000001,947.0
219.576000001,896.0
219.577000001,737.0
219.578000001,367.0
219.579000001,57.0
219.580000001,78.0
219.581000001,225.0
219.582000001,699.0
219.583000001,982.0
219.584000001,864.0
219.585000001,691.0
219.586000001,255.0
219.587000001,25.0
219.588000001,88.0
219.589000001,279.0
219.590000001,799.0
219.591000001,987.0
219.592000001,847.0
219.593000001,632.0
219.594000001,182.0
219.595000001,23.0
219.596000001,131.0
219.597000001,361.0
219.598000001,873.0
219.599000001,990.0
219.600000001,833.0
219.601000001,567.0
219.602000001,134.0
219.603000001,31.0
219.604000001,161.0
219.605000001,453.0
219.606000001,926.0
219.607000001,983.0
219.608000001,796.0
219.609000001,487.0
219.610000001,109.0
219.611000001,63.0
219.612000001,197.0
219.613000001,547.0
219.614000001,985.0
219.615000001,939.0
219.616000001,771.0
219.617000001,401.0
219.618000001,56.0
219.619000001,82.0
219.620000001,235.0
219.621000001,666.0
219.622000001,1011.0
219.623000001,947.0
219.624000001,759.0
219.625000001,306.0
219.626000001,39.0
219.627000001,112.0
219.628000001,300.0
219.629000001,797.0
219.630000001,1010.0
219.631000001,918.0
219.632000001,687.0
219.633000001,226.0
219.634000001,32.0
219.635000001,144.0
219.636000001,392.0
219.637000001,861.0
219.638000001,1017.0
219.639000001,883.0
219.640000001,614.0
219.641000001,186.0
219.642000001,46.0
219.643000001,173.0
219.644000001,477.0
219.645000001,914.0
219.646000001,999.0
219.647000001,849.0
219.648000001,531.0
219.649000001,130.0
219.650000001,71.0
219.651000001,193.0
219.652000001,563.0
219.653000001,949.0
219.654000001,977.0
219.655000001,838.0
219.656000001,433.0
219.657000001,87.0
219.658000001,88.0
219.659000001,243.0
219.660000001,673.0
219.661000001,973.0
219.662000001,951.0
219.663000001,794.0
219.664000001,331.0
219.665000001,75.0
219.666000001,118.0
219.667000001,292.0
219.668000001,795.0
219.669000001,941.0
219.670000001,893.0
219.671000001,707.0
219.672000001,221.0
219.673000001,52.0
219.674000001,118.0
219.675000001,355.0
219.676000001,840.0
219.677000001,971.0
219.678000001,875.0
219.679000001,633.0
219.680000001,175.0
219.681000001,49.0
219.682000001,143.0
219.683000001,440.0
219.684000001,889.0
219.685000001,946.0
219.686000001,848.0
219.687000001,533.0
219.688000001,108.0
219.689000001,63.0
219.690000001,180.0
219.691000001,540.0
219.692000001,936.0
219.693000001,900.0
219.694000001,802.0
219.695000001,434.0
219.696000001,68.0
219.697000001,81.0
219.698000001,203.0
219.699000001,647.0
219.700000001,953.0
219.701000001,884.0
219.702000001,755.0
219.703000001,321.0
219.704000001,37.0
219.705000001,91.0
219.706000001,261.0
219.707000001,761.0
219.708000001,947.0
219.709000001,847.0
219.710000001,686.0
219.711000001,223.0
219.712000001,39.0
219.713000001,147.0
219.714000001,343.0
219.715000001,834.0
219.716000001,962.0
219.717000001,846.0
219.718000001,610.0
219.719000001,171.0
219.720000001,27.0
219.721000001,139.0
219.722000001,431.0
219.723000001,879.0
219.724000001,931.0
219.725000001,781.0
219.726000001,499.0
219.727000001,128.0
219.728000001,40.0
219.729000001,149.0
219.730000001,517.0
219.731000001,929.0
219.732000001,913.0
219.733000001,780.0
219.734000001,423.0
219.735000001,74.0
219.736000001,80.0
219.737000001,197.0
219.738000001,628.0
219.739000001,987.0
219.740000001,903.0
219.741000001,732.0
219.742000001,316.0
219.743000001,50.0
219.744000001,96.0
219.745000001,267.0
219.746000001,753.0
219.747000001,1010.0
219.748000001,874.0
219.749000001,683.0
219.750000001,226.0
219.751000001,45.0
219.752000001,127.0
219.753000001,342.0
219.754000001,828.0
219.755000001,1005.0
219.756000001,859.0
219.757000001,601.0
219.758000001,177.0
219.759000001,53.0
219.760000001,160.0
219.761000001,416.0
219.762000001,899.0
219.763000001,992.0
219.764000001,830.0
219.765000001,538.0
219.766000001,136.0
219.767000001,82.0
219.768000001,199.0
219.769000001,533.0
219.770000001,956.0
219.771000001,975.0
219.772000001,817.0
219.773000001,451.0
219.774000001,101.0
219.775000001,113.0
219.776000001,233.0
219.777000001,636.0
219.778000001,994.0
219.779000001,939.0
219.780000001,777.0
219.781000001,359.0
219.782000001,74.0
219.783000001,151.0
219.784000001,304.0
219.785000001,771.0
219.786000001,1004.0
219.787000001,913.0
219.788000001,727.0
219.789000001,259.0
219.790000001,75.0
219.791000001,166.0
219.792000001,381.0
219.793000001,855.0
219.794000001,995.0
219.795000001,896.0
219.796000001,644.0
219.797000001,210.0
219.798000001,68.0
219.799000001,181.0
219.800000001,460.0
219.801000001,889.0
219.802000001,974.0
219.803000001,857.0
219.804000001,556.0
219.805000001,142.0
219.806000001,78.0
219.807000001,204.0
219.808000001,543.0
219.809000001,926.0
219.810000001,951.0
219.811000001,828.0
219.812000001,468.0
219.813000001,109.0
219.814000001,95.0
219.815000001,243.0
219.816000001,655.0
219.817000001,959.0
219.818000001,914.0
219.819000001,783.0
219.820000001,353.0
219.821000001,76.0
219.822000001,115.0
219.823000001,291.0
219.824000001,762.0
219.825000001,955.0
219.826000001,867.0
219.827000001,706.0
219.828000001,252.0
219.829000001,53.0
219.830000001,160.0
219.831000001,355.0
219.832000001,836.0
219.833000001,950.0
219.834000001,830.0
219.835000001,622.0
219.836000001,199.0
219.837000001,61.0
219.838000001,173.0
219.839000001,443.0
219.840000001,872.0
219.841000001,924.0
219.842000001,789.0
219.843000001,530.0
219.844000001,131.0
219.845000001,83.0
219.846000001,197.0
219.847000001,532.0
219.848000001,889.0
219.849000001,872.0
219.850000001,751.0
219.851000001,439.0
219.852000001,104.0
219.853000001,105.0
219.854000001,228.0
219.855000001,630.0
219.856000001,918.0
219.857000001,844.0
219.858000001,700.0
219.859000001,340.0
219.860000001,77.0
219.861000001,128.0
219.862000001,272.0
219.863000001,730.0
219.864000001,941.0
219.865000001,825.0
219.866000001,666.0
219.867000001,262.0
219.868000001,97.0
219.869000001,158.0
219.870000001,350.0
219.871000001,817.0
219.872000001,960.0
219.873000001,809.0
219.874000001,608.0
219.875000001,217.0
219.876000001,90.0
219.877000001,187.0
219.878000001,432.0
219.879000001,862.0
219.880000001,945.0
219.881000001,772.0
219.882000001,547.0
219.883000001,185.0
219.884000001,122.0
219.885000001,234.0
219.886000001,520.0
219.887000001,929.0
219.888000001,910.0
219.889000001,773.0
219.890000001,473.0
219.891000001,153.0
219.892000001,155.0
219.893000001,296.0
219.894000001,604.0
219.895000001,959.0
219.896000001,909.0
219.897000001,747.0
219.898000001,398.0
219.899000001,143.0
219.900000001,180.0
219.901000001,322.0
219.902000001,692.0
219.903000001,978.0
219.904000001,872.0
219.905000001,701.0
219.906000001,327.0
219.907000001,133.0
219.908000001,203.0
219.909000001,388.0
219.910000001,800.0
219.911000001,997.0
219.912000001,853.0
219.913000001,649.0
219.914000001,269.0
219.915000001,132.0
219.916000001,231.0
219.917000001,464.0
219.918000001,831.0
219.919000001,972.0
219.920000001,837.0
219.921000001,579.0
219.922000001,247.0
219.923000001,155.0
219.924000001,261.0
219.925000001,538.0
219.926000001,864.0
219.927000001,937.0
219.928000001,800.0
219.929000001,499.0
219.930000001,192.0
219.931000001,176.0
219.932000001,297.0
219.933000001,611.0
219.934000001,893.0
219.935000001,890.0
219.936000001,772.0
219.937000001,422.0
219.938000001,184.0
219.939000001,201.0
219.940000001,331.0
219.941000001,706.0
219.942000001,896.0
219.943000001,871.0
219.944000001,736.0
219.945000001,344.0
219.946000001,166.0
219.947000001,228.0
219.948000001,401.0
219.949000001,795.0
219.950000001,894.0
219.951000001,838.0
219.952000001,666.0
219.953000001,286.0
219.954000001,176.0
219.955000001,238.0
219.956000001,469.0
219.957000001,821.0
219.958000001,883.0
219.959000001,786.0
219.960000001,580.0
219.961000001,237.0
219.962000001,163.0
219.963000001,257.0
219.964000001,507.0
219.965000001,842.0
219.966000001,843.0
219.967000001,779.0
219.968000001,518.0
219.969000001,206.0
219.970000001,176.0
219.971000001,279.0
219.972000001,602.0
219.973000001,869.0
219.974000001,809.0
219.975000001,732.0
219.976000001,436.0
219.977000001,170.0
219.978000001,199.0
219.979000001,304.0
219.980000001,689.0
219.981000001,863.0
219.982000001,774.0
219.983000001,671.0
219.984000001,331.0
219.985000001,153.0
219.986000001,196.0
219.987000001,357.0
219.988000001,754.0
219.989000001,857.0
219.990000001,756.0
219.991000001,619.0
219.992000001,273.0
219.993000001,148.0
219.994000001,220.0
219.995000001,425.0
219.996000001,787.0
219.997000001,847.0
219.998000001,724.0
219.999000001,545.0
220.000000001,230.0
220.001000001,151.0
220.002000001,240.0
220.003000001,499.0
220.004000001,824.0
220.005000001,802.0
220.006000001,701.0
220.007000001,476.0
220.008000001,219.0
220.009000001,175.0
220.010000001,261.0
220.011000001,571.0
220.012000001,850.0
220.013000001,791.0
220.014000001,669.0
220.015000001,406.0
220.016000001,186.0
220.017000001,200.0
220.018000001,309.0
220.019000001,663.0
220.020000001,870.0
220.021000001,765.0
220.022000001,623.0
220.023000001,326.0
220.024000001,169.0
220.025000001,211.0
220.026000001,365.0
220.027000001,745.0
220.028000001,866.0
220.029000001,751.0
220.030000001,595.0
220.031000001,278.0
220.032000001,177.0
220.033000001,238.0
220.034000001,426.0
220.035000001,798.0
220.036000001,869.0
220.037000001,724.0
220.038000001,539.0
220.039000001,252.0
220.040000001,191.0
220.041000001,266.0
220.042000001,498.0
220.043000001,835.0
220.044000001,870.0
220.045000001,715.0
220.046000001,482.0
220.047000001,224.0
220.048000001,209.0
220.049000001,289.0
220.050000001,574.0
220.051000001,858.0
220.052000001,844.0
220.053000001,695.0
220.054000001,426.0
220.055000001,206.0
220.056000001,229.0
220.057000001,324.0
220.058000001,667.0
220.059000001,879.0
220.060000001,821.0
220.061000001,660.0
220.062000001,349.0
220.063000001,183.0
220.064000001,241.0
220.065000001,391.0
220.066000001,741.0
220.067000001,882.0
220.068000001,775.0
220.069000001,616.0
220.070000001,293.0
220.071000001,164.0
220.072000001,266.0
220.073000001,445.0
220.074000001,781.0
220.075000001,862.0
220.076000001,775.0
220.077000001,566.0
220.078000001,273.0
220.079000001,204.0
220.080000001,284.0
220.081000001,526.0
220.082000001,816.0
220.083000001,829.0
220.084000001,737.0
220.085000001,485.0
220.086000001,221.0
220.087000001,200.0
220.088000001,322.0
220.089000001,599.0
220.090000001,808.0
220.091000001,787.0
220.092000001,690.0
220.093000001,417.0
220.094000001,182.0
220.095000001,207.0
220.096000001,332.0
220.097000001,656.0
220.098000001,818.0
220.099000001,765.0
220.100000001,661.0
220.101000001,348.0
220.102000001,174.0
220.103000001,230.0
220.104000001,383.0
220.105000001,736.0
220.106000001,835.0
220.107000001,756.0
220.108000001,610.0
220.109000001,283.0
220.110000001,162.0
220.111000001,244.0
220.112000001,454.0
220.113000001,772.0
220.114000001,806.0
220.115000001,702.0
220.116000001,547.0
220.117000001,233.0
220.118000001,154.0
220.119000001,252.0
220.120000001,511.0
220.121000001,798.0
220.122000001,780.0
220.123000001,680.0
220.124000001,474.0
220.125000001,198.0
220.126000001,165.0
220.127000001,264.0
220.128000001,574.0
220.129000001,814.0
220.130000001,750.0
220.131000001,658.0
220.132000001,398.0
220.133000001,161.0
220.134000001,191.0
220.135000001,301.0
220.136000001,650.0
220.137000001,831.0
220.138000001,729.0
220.139000001,616.0
220.140000001,315.0
220.141000001,140.0
220.142000001,193.0
220.143000001,340.0
220.144000001,720.0
220.145000001,832.0
220.146000001,717.0
220.147000001,574.0
220.148000001,260.0
220.149000001,139.0
220.150000001,214.0
220.151000001,401.0
220.152000001,772.0
220.153000001,838.0
220.154000001,673.0
220.155000001,515.0
220.156000001,212.0
220.157000001,144.0
220.158000001,219.0
220.159000001,470.0
220.160000001,811.0
220.161000001,809.0
220.162000001,674.0
220.163000001,464.0
220.164000001,190.0
220.165000001,166.0
220.166000001,278.0
220.167000001,546.0
220.168000001,856.0
220.169000001,796.0
220.170000001,679.0
220.171000001,416.0
220.172000001,169.0
220.173000001,192.0
220.174000001,306.0
220.175000001,624.0
220.176000001,891.0
220.177000001,789.0
220.178000001,645.0
220.179000001,356.0
220.180000001,177.0
220.181000001,232.0
220.182000001,351.0
220.183000001,721.0
220.184000001,897.0
220.185000001,772.0
220.186000001,615.0
220.187000001,294.0
220.188000001,170.0
220.189000001,252.0
220.190000001,420.0
220.191000001,775.0
220.192000001,896.0
220.193000001,763.0
220.194000001,574.0
220.195000001,268.0
220.196000001,192.0
220.197000001,267.0
220.198000001,509.0
220.199000001,794.0
220.200000001,882.0
220.201000001,753.0
220.202000001,514.0
220.203000001,246.0
220.204000001,208.0
220.205000001,302.0
220.206000001,576.0
220.207000001,839.0
220.208000001,855.0
220.209000001,741.0
220.210000001,466.0
220.211000001,200.0
220.212000001,196.0
220.213000001,310.0
220.214000001,607.0
220.215000001,832.0
220.216000001,829.0
220.217000001,685.0
220.218000001,372.0
220.219000001,169.0
220.220000001,233.0
220.221000001,384.0
220.222000001,729.0
220.223000001,838.0
220.224000001,807.0
220.225000001,649.0
220.226000001,311.0
220.227000001,181.0
220.228000001,237.0
220.229000001,423.0
220.230000001,770.0
220.231000001,829.0
220.232000001,768.0
220.233000001,588.0
220.234000001,247.0
220.235000001,166.0
220.236000001,257.0
220.237000001,483.0
220.238000001,780.0
220.239000001,811.0
220.240000001,740.0
220.241000001,521.0
220.242000001,215.0
220.243000001,176.0
220.244000001,276.0
220.245000001,549.0
220.246000001,807.0
220.247000001,770.0
220.248000001,714.0
220.249000001,446.0
220.250000001,181.0
220.251000001,201.0
220.252000001,305.0
220.253000001,619.0
220.254000001,824.0
220.255000001,741.0
220.256000001,668.0
220.257000001,381.0
220.258000001,177.0
220.259000001,212.0
220.260000001,323.0
220.261000001,709.0
220.262000001,819.0
220.263000001,719.0
220.264000001,634.0
220.265000001,310.0
220.266000001,150.0
220.267000001,232.0
220.268000001,394.0
220.269000001,752.0
220.270000001,818.0
220.271000001,688.0
220.272000001,555.0
220.273000001,254.0
220.274000001,141.0
220.275000001,222.0
220.276000001,457.0
220.277000001,775.0
220.278000001,797.0
220.279000001,647.0
220.280000001,498.0
220.281000001,211.0
220.282000001,152.0
220.283000001,234.0
220.284000001,522.0
220.285000001,813.0
220.286000001,771.0
220.287000001,670.0
220.288000001,442.0
220.289000001,211.0
220.290000001,176.0
220.291000001,273.0
220.292000001,604.0
220.293000001,844.0
220.294000001,759.0
220.295000001,654.0
220.296000001,384.0
220.297000001,186.0
220.298000001,202.0
220.299000001,331.0
220.300000001,698.0
220.301000001,874.0
220.302000001,759.0
220.303000001,629.0
220.304000001,308.0
220.305000001,170.0
220.306000001,230.0
220.307000001,379.0
220.308000001,768.0
220.309000001,872.0
220.310000001,735.0
220.311000001,573.0
220.312000001,276.0
220.313000001,161.0
220.314000001,239.0
220.315000001,450.0
220.316000001,815.0
220.317000001,862.0
220.318000001,720.0
220.319000001,514.0
220.320000001,232.0
220.321000001,185.0
220.322000001,266.0
220.323000001,524.0
220.324000001,843.0
220.325000001,839.0
220.326000001,717.0
220.327000001,463.0
220.328000001,198.0
220.329000001,191.0
220.330000001,288.0
220.331000001,605.0
220.332000001,891.0
220.333000001,840.0
220.334000001,693.0
220.335000001,389.0
220.336000001,171.0
220.337000001,211.0
220.338000001,332.0
220.339000001,708.0
220.340000001,898.0
220.341000001,813.0
220.342000001,646.0
220.343000001,300.0
220.344000001,156.0
220.345000001,237.0
220.346000001,375.0
220.347000001,778.0
220.348000001,913.0
220.349000001,792.0
220.350000001,598.0
220.351000001,235.0
220.352000001,135.0
220.353000001,239.0
220.354000001,449.0
220.355000001,824.0
220.356000001,901.0
220.357000001,775.0
220.358000001,531.0
220.359000001,180.0
220.360000001,123.0
220.361000001,242.0
220.362000001,514.0
220.363000001,855.0
220.364000001,885.0
220.365000001,775.0
220.366000001,448.0
220.367000001,127.0
220.368000001,123.0
220.369000001,252.0
220.370000001,604.0
220.371000001,912.0
220.372000001,859.0
220.373000001,736.0
220.374000001,361.0
220.375000001,101.0
220.376000001,120.0
220.377000001,298.0
220.378000001,704.0
220.379000001,906.0
220.380000001,813.0
220.381000001,671.0
220.382000001,246.0
220.383000001,63.0
220.384000001,140.0
220.385000001,355.0
220.386000001,788.0
220.387000001,887.0
220.388000001,779.0
220.389000001,592.0
220.390000001,195.0
220.391000001,43.0
220.392000001,154.0
220.393000001,425.0
220.394000001,823.0
220.395000001,875.0
220.396000001,764.0
220.397000001,514.0
220.398000001,128.0
220.399000001,61.0
220.400000001,165.0
220.401000001,510.0
220.402000001,851.0
220.403000001,848.0
220.404000001,730.0
220.405000001,432.0
220.406000001,64.0
220.407000001,69.0
220.408000001,195.0
220.409000001,587.0
220.410000001,893.0
220.411000001,817.0
220.412000001,682.0
220.413000001,333.0
220.414000001,55.0
220.415000001,78.0
220.416000001,235.0
220.417000001,705.0
220.418000001,904.0
220.419000001,783.0
220.420000001,638.0
220.421000001,226.0
220.422000001,34.0
220.423000001,96.0
220.424000001,301.0
220.425000001,794.0
220.426000001,920.0
220.427000001,776.0
220.428000001,598.0
220.429000001,156.0
220.430000001,16.0
220.431000001,117.0
220.432000001,376.0
220.433000001,849.0
220.434000001,914.0
220.435000001,752.0
220.436000001,516.0
220.437000001,121.0
220.438000001,32.0
220.439000001,142.0
220.440000001,467.0
220.441000001,905.0
220.442000001,904.0
220.443000001,760.0
220.444000001,442.0
220.445000001,85.0
220.446000001,48.0
220.447000001,196.0
220.448000001,565.0
220.449000001,961.0
220.450000001,900.0
220.451000001,732.0
220.452000001,370.0
220.453000001,59.0
220.454000001,107.0
220.455000001,256.0
220.456000001,688.0
220.457000001,1008.0
220.458000001,871.0
220.459000001,699.0
220.460000001,283.0
220.461000001,49.0
220.462000001,119.0
220.463000001,316.0
220.464000001,781.0
220.465000001,1005.0
220.466000001,849.0
220.467000001,638.0
220.468000001,220.0
220.469000001,84.0
220.470000001,168.0
220.471000001,411.0
220.472000001,865.0
220.473000001,996.0
220.474000001,863.0
220.475000001,594.0
220.476000001,210.0
220.477000001,98.0
220.478000001,198.0
220.479000001,514.0
220.480000001,912.0
220.481000001,970.0
220.482000001,842.0
220.483000001,510.0
220.484000001,158.0
220.485000001,123.0
220.486000001,232.0
220.487000001,600.0
220.488000001,924.0
220.489000001,944.0
220.490000001,804.0
220.491000001,426.0
220.492000001,121.0
220.493000001,140.0
220.494000001,267.0
220.495000001,702.0
220.496000001,953.0
220.497000001,918.0
220.498000001,761.0
220.499000001,336.0
220.500000001,104.0
220.501000001,162.0
220.502000001,337.0
220.503000001,801.0
220.504000001,956.0
220.505000001,900.0
220.506000001,693.0
220.507000001,252.0
220.508000001,81.0
220.509000001,172.0
220.510000001,428.0
220.511000001,845.0
220.512000001,949.0
220.513000001,880.0
220.514000001,621.0
220.515000001,205.0
220.516000001,97.0
220.517000001,201.0
220.518000001,499.0
220.519000001,871.0
220.520000001,913.0
220.521000001,846.0
220.522000001,528.0
220.523000001,153.0
220.524000001,110.0
220.525000001,211.0
220.526000001,576.0
220.527000001,904.0
220.528000001,884.0
220.529000001,806.0
220.530000001,440.0
220.531000001,111.0
220.532000001,131.0
220.533000001,252.0
220.534000001,681.0
220.535000001,915.0
220.536000001,845.0
220.537000001,747.0
220.538000001,341.0
220.539000001,103.0
220.540000001,162.0
220.541000001,315.0
220.542000001,780.0
220.543000001,923.0
220.544000001,811.0
220.545000001,683.0
220.546000001,263.0
220.547000001,86.0
220.548000001,157.0
220.549000001,387.0
220.550000001,802.0
220.551000001,923.0
220.552000001,770.0
220.553000001,596.0
220.554000001,194.0
220.555000001,72.0
220.556000001,186.0
220.557000001,460.0
220.558000001,851.0
220.559000001,883.0
220.560000001,755.0
220.561000001,512.0
220.562000001,154.0
220.563000001,98.0
220.564000001,202.0
220.565000001,543.0
220.566000001,896.0
220.567000001,858.0
220.568000001,727.0
220.569000001,435.0
220.570000001,119.0
220.571000001,117.0
220.572000001,246.0
220.573000001,646.0
220.574000001,918.0
220.575000001,843.0
220.576000001,699.0
220.577000001,349.0
220.578000001,113.0
220.579000001,166.0
220.580000001,316.0
220.581000001,752.0
220.582000001,933.0
220.583000001,814.0
220.584000001,651.0
220.585000001,273.0
220.586000001,102.0
220.587000001,179.0
220.588000001,384.0
220.589000001,809.0
220.590000001,938.0
220.591000001,783.0
220.592000001,577.0
220.593000001,226.0
220.594000001,135.0
220.595000001,204.0
220.596000001,464.0
220.597000001,852.0
220.598000001,918.0
220.599000001,783.0
220.600000001,518.0
220.601000001,194.0
220.602000001,155.0
220.603000001,243.0
220.604000001,547.0
220.605000001,889.0
220.606000001,890.0
220.607000001,757.0
220.608000001,455.0
220.609000001,181.0
220.610000001,187.0
220.611000001,287.0
220.612000001,634.0
220.613000001,934.0
220.614000001,868.0
220.615000001,725.0
220.616000001,382.0
220.617000001,175.0
220.618000001,229.0
220.619000001,347.0
220.620000001,746.0
220.621000001,930.0
220.622000001,847.0
220.623000001,680.0
220.624000001,322.0
220.625000001,189.0
220.626000001,263.0
220.627000001,434.0
220.628000001,810.0
220.629000001,922.0
220.630000001,832.0
220.631000001,629.0
220.632000001,291.0
220.633000001,206.0
220.634000001,286.0
220.635000001,513.0
220.636000001,848.0
220.637000001,905.0
220.638000001,797.0
220.639000001,569.0
220.640000001,258.0
220.641000001,217.0
220.642000001,308.0
220.643000001,594.0
220.644000001,874.0
220.645000001,876.0
220.646000001,784.0
220.647000001,485.0
220.648000001,229.0
220.649000001,247.0
220.650000001,350.0
220.651000001,668.0
220.652000001,878.0
220.653000001,840.0
220.654000001,743.0
220.655000001,417.0
220.656000001,221.0
220.657000001,274.0
220.658000001,403.0
220.659000001,763.0
220.660000001,869.0
220.661000001,805.0
220.662000001,680.0
220.663000001,335.0
220.664000001,202.0
220.665000001,277.0
220.666000001,468.0
220.667000001,787.0
220.668000001,856.0
220.669000001,774.0
220.670000001,613.0
220.671000001,293.0
220.672000001,188.0
220.673000001,282.0
220.674000001,526.0
220.675000001,819.0
220.676000001,843.0
220.677000001,755.0
220.678000001,546.0
220.679000001,268.0
220.680000001,224.0
220.681000001,307.0
220.682000001,590.0
220.683000001,842.0
220.684000001,802.0
220.685000001,724.0
220.686000001,468.0
220.687000001,214.0
220.688000001,228.0
220.689000001,332.0
220.690000001,662.0
220.691000001,846.0
220.692000001,754.0
220.693000001,691.0
220.694000001,398.0
220.695000001,208.0
220.696000001,234.0
220.697000001,378.0
220.698000001,740.0
220.699000001,854.0
220.700000001,721.0
220.701000001,605.0
220.702000001,296.0
220.703000001,169.0
220.704000001,222.0
220.705000001,400.0
220.706000001,765.0
220.707000001,826.0
220.708000001,696.0
220.709000001,568.0
220.710000001,259.0
220.711000001,175.0
220.712000001,258.0
220.713000001,485.0
220.714000001,817.0
220.715000001,811.0
220.716000001,693.0
220.717000001,512.0
220.718000001,237.0
220.719000001,192.0
220.720000001,279.0
220.721000001,538.0
220.722000001,820.0
220.723000001,803.0
220.724000001,677.0
220.725000001,453.0
220.726000001,212.0
220.727000001,216.0
220.728000001,314.0
220.729000001,622.0
220.730000001,867.0
220.731000001,784.0
220.732000001,662.0
220.733000001,397.0
220.734000001,210.0
220.735000001,248.0
220.736000001,367.0
220.737000001,708.0
220.738000001,892.0
220.739000001,772.0
220.740000001,627.0
220.741000001,338.0
220.742000001,197.0
220.743000001,262.0
220.744000001,421.0
220.745000001,763.0
220.746000001,884.0
220.747000001,762.0
220.748000001,592.0
220.749000001,304.0
220.750000001,204.0
220.751000001,271.0
220.752000001,480.0
220.753000001,804.0
220.754000001,885.0
220.755000001,744.0
220.756000001,540.0
220.757000001,276.0
220.758000001,236.0
220.759000001,301.0
220.760000001,550.0
220.761000001,830.0
220.762000001,852.0
220.763000001,726.0
220.764000001,495.0
220.765000001,241.0
220.766000001,233.0
220.767000001,316.0
220.768000001,619.0
220.769000001,847.0
220.770000001,831.0
220.771000001,692.0
220.772000001,415.0
220.773000001,228.0
220.774000001,259.0
220.775000001,370.0
220.776000001,716.0
220.777000001,835.0
220.778000001,792.0
220.779000001,650.0
220.780000001,350.0
220.781000001,204.0
220.782000001,287.0
220.783000001,414.0
220.784000001,739.0
220.785000001,829.0
220.786000001,788.0
220.787000001,608.0
220.788000001,291.0
220.789000001,205.0
220.790000001,274.0
220.791000001,475.0
220.792000001,754.0
220.793000001,815.0
220.794000001,761.0
220.795000001,548.0
220.796000001,259.0
220.797000001,191.0
220.798000001,294.0
220.799000001,550.0
220.800000001,786.0
220.801000001,798.0
220.802000001,734.0
220.803000001,485.0
220.804000001,223.0
220.805000001,218.0
220.806000001,313.0
220.807000001,599.0
220.808000001,814.0
220.809000001,752.0
220.810000001,694.0
220.811000001,413.0
220.812000001,196.0
220.813000001,228.0
220.814000001,343.0
220.815000001,687.0
220.816000001,804.0
220.817000001,722.0
220.818000001,650.0
220.819000001,339.0
220.820000001,171.0
220.821000001,232.0
220.822000001,375.0
220.823000001,732.0
220.824000001,789.0
220.825000001,697.0
220.826000001,593.0
220.827000001,274.0
220.828000001,173.0
220.829000001,244.0
220.830000001,442.0
220.831000001,748.0
220.832000001,776.0
220.833000001,690.0
220.834000001,542.0
220.835000001,267.0
220.836000001,190.0
220.837000001,248.0
220.838000001,494.0
220.839000001,786.0
220.840000001,767.0
220.841000001,650.0
220.842000001,471.0
220.843000001,218.0
220.844000001,203.0
220.845000001,274.0
220.846000001,580.0
220.847000001,810.0
220.848000001,731.0
220.849000001,619.0
220.850000001,413.0
220.851000001,185.0
220.852000001,194.0
220.853000001,316.0
220.854000001,656.0
220.855000001,815.0
220.856000001,734.0
220.857000001,593.0
220.858000001,324.0
220.859000001,188.0
220.860000001,209.0
220.861000001,357.0
220.862000001,714.0
220.863000001,834.0
220.864000001,710.0
220.865000001,556.0
220.866000001,293.0
220.867000001,188.0
220.868000001,244.0
220.869000001,424.0
220.870000001,767.0
220.871000001,816.0
220.872000001,694.0
220.873000001,522.0
220.874000001,274.0
220.875000001,211.0
220.876000001,284.0
220.877000001,502.0
220.878000001,814.0
220.879000001,815.0
220.880000001,680.0
220.881000001,479.0
220.882000001,248.0
220.883000001,222.0
220.884000001,314.0
220.885000001,570.0
220.886000001,829.0
220.887000001,805.0
220.888000001,665.0
220.889000001,414.0
220.890000001,238.0
220.891000001,246.0
220.892000001,333.0
220.893000001,655.0
220.894000001,852.0
220.895000001,775.0
220.896000001,642.0
220.897000001,357.0
220.898000001,227.0
220.899000001,253.0
220.900000001,395.0
220.901000001,729.0
220.902000001,855.0
220.903000001,767.0
220.904000001,613.0
220.905000001,314.0
220.906000001,218.0
220.907000001,285.0
220.908000001,461.0
220.909000001,766.0
220.910000001,837.0
220.911000001,724.0
220.912000001,553.0
220.913000001,271.0
220.914000001,224.0
220.915000001,304.0
220.916000001,522.0
220.917000001,793.0
220.918000001,806.0
220.919000001,724.0
220.920000001,499.0
220.921000001,233.0
220.922000001,241.0
220.923000001,327.0
220.924000001,589.0
220.925000001,804.0
220.926000001,794.0
220.927000001,678.0
220.928000001,439.0
220.929000001,226.0
220.930000001,251.0
220.931000001,358.0
220.932000001,661.0
220.933000001,821.0
220.934000001,769.0
220.935000001,672.0
220.936000001,381.0
220.937000001,220.0
220.938000001,276.0
220.939000001,425.0
220.940000001,761.0
220.941000001,832.0
220.942000001,750.0
220.943000001,594.0
220.944000001,300.0
220.945000001,193.0
220.946000001,275.0
220.947000001,463.0
220.948000001,751.0
220.949000001,788.0
220.950000001,723.0
220.951000001,561.0
220.952000001,284.0
220.953000001,206.0
220.954000001,293.0
220.955000001,539.0
220.956000001,771.0
220.957000001,784.0
220.958000001,695.0
220.959000001,493.0
220.960000001,230.0
220.961000001,200.0
220.962000001,301.0
220.963000001,595.0
220.964000001,793.0
220.965000001,693.0
220.966000001,646.0
220.967000001,402.0
220.968000001,168.0
220.969000001,191.0
220.970000001,320.0
220.971000001,655.0
220.972000001,785.0
220.973000001,711.0
220.974000001,616.0
220.975000001,348.0
220.976000001,168.0
220.977000001,191.0
220.978000001,379.0
220.979000001,738.0
220.980000001,804.0
220.981000001,699.0
220.982000001,585.0
220.983000001,284.0
220.984000001,167.0
220.985000001,239.0
220.986000001,435.0
220.987000001,769.0
220.988000001,783.0
220.989000001,679.0
220.990000001,537.0
220.991000001,266.0
220.992000001,188.0
220.993000001,258.0
220.994000001,504.0
220.995000001,804.0
220.996000001,790.0
220.997000001,658.0
220.998000001,483.0
220.999000001,223.0
221.000000001,190.0
221.001000001,279.0
221.002000001,574.0
221.003000001,835.0
221.004000001,767.0
221.005000001,636.0
221.006000001,420.0
221.007000001,205.0
221.008000001,216.0
221.009000001,306.0
221.010000001,649.0
221.011000001,862.0
221.012000001,761.0
221.013000001,631.0
221.014000001,358.0
221.015000001,202.0
221.016000001,230.0
221.017000001,363.0
221.018000001,726.0
221.019000001,880.0
221.020000001,745.0
221.021000001,592.0
221.022000001,315.0
221.023000001,206.0
221.024000001,248.0
221.025000001,433.0
221.026000001,782.0
221.027000001,881.0
221.028000001,725.0
221.029000001,553.0
221.030000001,286.0
221.031000001,199.0
221.032000001,275.0
221.033000001,502.0
221.034000001,814.0
221.035000001,858.0
221.036000001,724.0
221.037000001,501.0
221.038000001,248.0
221.039000001,230.0
221.040000001,310.0
221.041000001,570.0
221.042000001,841.0
221.043000001,832.0
221.044000001,679.0
221.045000001,441.0
221.046000001,233.0
221.047000001,253.0
221.048000001,349.0
221.049000001,644.0
221.050000001,837.0
221.051000001,802.0
221.052000001,664.0
221.053000001,373.0
221.054000001,213.0
221.055000001,252.0
221.056000001,387.0
221.057000001,716.0
221.058000001,845.0
221.059000001,785.0
221.060000001,639.0
221.061000001,315.0
221.062000001,201.0
221.063000001,254.0
221.064000001,444.0
221.065000001,773.0
221.066000001,844.0
221.067000001,771.0
221.068000001,586.0
221.069000001,285.0
221.070000001,206.0
221.071000001,282.0
221.072000001,511.0
221.073000001,790.0
221.074000001,814.0
221.075000001,747.0
221.076000001,526.0
221.077000001,247.0
221.078000001,228.0
221.079000001,323.0
221.080000001,572.0
221.081000001,802.0
221.082000001,790.0
221.083000001,718.0
221.084000001,453.0
221.085000001,210.0
221.086000001,218.0
221.087000001,339.0
221.088000001,641.0
221.089000001,818.0
221.090000001,754.0
221.091000001,695.0
221.092000001,385.0
221.093000001,191.0
221.094000001,225.0
221.095000001,377.0
221.096000001,718.0
221.097000001,801.0
221.098000001,713.0
221.099000001,633.0
221.100000001,314.0
221.101000001,165.0
221.102000001,238.0
221.103000001,424.0
221.104000001,752.0
221.105000001,799.0
221.106000001,682.0
221.107000001,562.0
221.108000001,252.0
221.109000001,153.0
221.110000001,254.0
221.111000001,480.0
221.112000001,761.0
221.113000001,746.0
221.114000001,658.0
221.115000001,494.0
221.116000001,230.0
221.117000001,165.0
221.118000001,261.0
221.119000001,539.0
221.120000001,778.0
221.121000001,731.0
221.122000001,619.0
221.123000001,436.0
221.124000001,186.0
221.125000001,179.0
221.126000001,269.0
221.127000001,606.0
221.128000001,803.0
221.129000001,724.0
221.130000001,615.0
221.131000001,373.0
221.132000001,174.0
221.133000001,198.0
221.134000001,339.0
221.135000001,690.0
221.136000001,806.0
221.137000001,692.0
221.138000001,588.0
221.139000001,309.0
221.140000001,173.0
221.141000001,222.0
221.142000001,392.0
221.143000001,745.0
221.144000001,831.0
221.145000001,704.0
221.146000001,531.0
221.147000001,278.0
221.148000001,181.0
221.149000001,245.0
221.150000001,461.0
221.151000001,786.0
221.152000001,819.0
221.153000001,688.0
221.154000001,490.0
221.155000001,246.0
221.156000001,197.0
221.157000001,276.0
221.158000001,525.0
221.159000001,825.0
221.160000001,792.0
221.161000001,659.0
221.162000001,441.0
221.163000001,240.0
221.164000001,218.0
221.165000001,313.0
221.166000001,607.0
221.167000001,852.0
221.168000001,784.0
221.169000001,655.0
221.170000001,372.0
221.171000001,224.0
221.172000001,260.0
221.173000001,365.0
221.174000001,706.0
221.175000001,867.0
221.176000001,785.0
221.177000001,628.0
221.178000001,345.0
221.179000001,232.0
221.180000001,292.0
221.181000001,439.0
221.182000001,737.0
221.183000001,851.0
221.184000001,744.0
221.185000001,571.0
221.186000001,284.0
221.187000001,214.0
221.188000001,290.0
221.189000001,481.0
221.190000001,772.0
221.191000001,842.0
221.192000001,743.0
221.193000001,533.0
221.194000001,267.0
221.195000001,247.0
221.196000001,333.0
221.197000001,565.0
221.198000001,814.0
221.199000001,833.0
221.200000001,721.0
221.201000001,470.0
221.202000001,240.0
221.203000001,250.0
221.204000001,349.0
221.205000001,621.0
221.206000001,821.0
221.207000001,790.0
221.208000001,688.0
221.209000001,401.0
221.210000001,213.0
221.211000001,262.0
221.212000001,392.0
221.213000001,706.0
221.214000001,812.0
221.215000001,752.0
221.216000001,635.0
221.217000001,336.0
221.218000001,204.0
221.219000001,287.0
221.220000001,436.0
221.221000001,750.0
221.222000001,813.0
221.223000001,742.0
221.224000001,581.0
221.225000001,279.0
221.226000001,190.0
221.227000001,284.0
221.228000001,502.0
221.229000001,748.0
221.230000001,789.0
221.231000001,719.0
221.232000001,524.0
221.233000001,258.0
221.234000001,177.0
221.235000001,297.0
221.236000001,560.0
221.237000001,792.0
221.238000001,751.0
221.239000001,682.0
221.240000001,448.0
221.241000001,200.0
221.242000001,205.0
221.243000001,316.0
221.244000001,623.0
221.245000001,794.0
221.246000001,732.0
221.247000001,650.0
221.248000001,380.0
221.249000001,180.0
221.250000001,214.0
221.251000001,345.0
221.252000001,701.0
221.253000001,800.0
221.254000001,667.0
221.255000001,591.0
221.256000001,301.0
221.257000001,153.0
221.258000001,231.0
221.259000001,394.0
221.260000001,745.0
221.261000001,803.0
221.262000001,649.0
221.263000001,540.0
221.264000001,242.0
221.265000001,140.0
221.266000001,215.0
221.267000001,454.0
221.268000001,766.0
221.269000001,780.0
221.270000001,625.0
221.271000001,488.0
221.272000001,198.0
221.273000001,158.0
221.274000001,230.0
221.275000001,521.0
221.276000001,803.0
221.277000001,775.0
221.278000001,634.0
221.279000001,435.0
221.280000001,190.0
221.281000001,164.0
221.282000001,274.0
221.283000001,592.0
221.284000001,833.0
221.285000001,750.0
221.286000001,613.0
221.287000001,375.0
221.288000001,175.0
221.289000001,195.0
221.290000001,330.0
221.291000001,689.0
221.292000001,855.0
221.293000001,734.0
221.294000001,609.0
221.295000001,315.0
221.296000001,169.0
221.297000001,217.0
221.298000001,387.0
221.299000001,760.0
221.300000001,870.0
221.301000001,727.0
221.302000001,584.0
221.303000001,288.0
221.304000001,176.0
221.305000001,257.0
221.306000001,452.0
221.307000001,816.0
221.308000001,869.0
221.309000001,732.0
221.310000001,524.0
221.311000001,264.0
221.312000001,205.0
221.313000001,277.0
221.314000001,526.0
221.315000001,853.0
221.316000001,864.0
221.317000001,729.0
221.318000001,475.0
221.319000001,224.0
221.320000001,231.0
221.321000001,302.0
221.322000001,608.0
221.323000001,874.0
221.324000001,845.0
221.325000001,704.0
221.326000001,413.0
221.327000001,215.0
221.328000001,229.0
221.329000001,353.0
221.330000001,705.0
221.331000001,889.0
221.332000001,818.0
221.333000001,666.0
221.334000001,353.0
221.335000001,194.0
221.336000001,254.0
221.337000001,411.0
221.338000001,768.0
221.339000001,888.0
221.340000001,806.0
221.341000001,618.0
221.342000001,286.0
221.343000001,178.0
221.344000001,260.0
221.345000001,463.0
221.346000001,797.0
221.347000001,874.0
221.348000001,779.0
221.349000001,560.0
221.350000001,229.0
221.351000001,159.0
221.352000001,250.0
221.353000001,520.0
221.354000001,833.0
221.355000001,848.0
221.356000001,768.0
221.357000001,483.0
221.358000001,181.0
221.359000001,167.0
221.360000001,276.0
221.361000001,588.0
221.362000001,855.0
221.363000001,845.0
221.364000001,730.0
221.365000001,399.0
221.366000001,123.0
221.367000001,165.0
221.368000001,293.0
221.369000001,689.0
221.370000001,884.0
221.371000001,804.0
221.372000001,688.0
221.373000001,281.0
221.374000001,85.0
221.375000001,142.0
221.376000001,336.0
221.377000001,783.0
221.378000001,878.0
221.379000001,779.0
221.380000001,629.0
221.381000001,204.0
221.382000001,40.0
221.383000001,141.0
221.384000001,390.0
221.385000001,829.0
221.386000001,881.0
221.387000001,770.0
221.388000001,560.0
221.389000001,140.0
221.390000001,23.0
221.391000001,127.0
221.392000001,472.0
221.393000001,870.0
221.394000001,867.0
221.395000001,742.0
221.396000001,449.0
221.397000001,61.0
221.398000001,27.0
221.399000001,146.0
221.400000001,551.0
221.401000001,918.0
221.402000001,861.0
221.403000001,739.0
221.404000001,352.0
221.405000001,12.0
221.406000001,28.0
221.407000001,176.0
221.408000001,686.0
221.409000001,954.0
221.410000001,866.0
221.411000001,686.0
221.412000001,222.0
221.413000001,5.0
221.414000001,27.0
221.415000001,246.0
221.416000001,811.0
221.417000001,1009.0
221.418000001,857.0
221.419000001,637.0
221.420000001,131.0
221.421000001,11.0
221.422000001,57.0
221.423000001,339.0
221.424000001,915.0
221.425000001,1004.0
221.426000001,850.0
221.427000001,538.0
221.428000001,40.0
221.429000001,4.0
221.430000001,47.0
221.431000001,422.0
221.432000001,982.0
221.433000001,1008.0
221.434000001,840.0
221.435000001,456.0
221.436000001,14.0
221.437000001,13.0
221.438000001,76.0
221.439000001,570.0
221.440000001,1019.0
221.441000001,1004.0
221.442000001,838.0
221.443000001,344.0
221.444000001,9.0
221.445000001,15.0
221.446000001,124.0
221.447000001,719.0
221.448000001,1018.0
221.449000001,1005.0
221.450000001,803.0
221.451000001,187.0
221.452000001,2.0
221.453000001,18.0
221.454000001,193.0
221.455000001,878.0
221.456000001,1020.0
221.457000001,1006.0
221.458000001,754.0
221.459000001,56.0
221.460000001,0.0
221.461000001,18.0
221.462000001,302.0
221.463000001,1002.0
221.464000001,1013.0
221.465000001,1009.0
221.466000001,637.0
221.467000001,0.0
221.468000001,2.0
221.469000001,13.0
221.470000001,436.0
221.471000001,1020.0
221.472000001,1020.0
221.473000001,980.0
221.474000001,486.0
221.475000001,6.0
221.476000001,13.0
221.477000001,16.0
221.478000001,588.0
221.479000001,1021.0
221.480000001,1016.0
221.481000001,981.0
221.482000001,297.0
221.483000001,0.0
221.484000001,2.0
221.485000001,47.0
221.486000001,821.0
221.487000001,1019.0
221.488000001,1015.0
221.489000001,930.0
221.490000001,68.0
221.491000001,0.0
221.492000001,3.0
221.493000001,138.0
221.494000001,1020.0
221.495000001,1020.0
221.496000001,1019.0
221.497000001,844.0
221.498000001,0.0
221.499000001,1.0
221.500000001,7.0
221.501000001,264.0
221.502000001,1020.0
221.503000001,1020.0
221.504000001,1019.0
221.505000001,663.0
221.506000001,0.0
221.507000001,0.0
221.508000001,3.0
221.509000001,447.0
221.510000001,1020.0
221.511000001,1016.0
221.512000001,1019.0
221.513000001,324.0
221.514000001,1.0
221.515000001,0.0
221.516000001,3.0
221.517000001,898.0
221.518000001,1021.0
221.519000001,1021.0
221.520000001,1019.0
221.521000001,0.0
221.522000001,0.0
221.523000001,1.0
221.524000001,67.0
221.525000001,1019.0
221.526000001,1019.0
221.527000001,1020.0
221.528000001,994.0
221.529000001,0.0
221.530000001,1.0
221.531000001,0.0
221.532000001,0.0
221.533000001,1020.0
221.534000001,1019.0
221.535000001,1019.0
221.536000001,715.0
221.537000001,0.0
221.538000001,0.0
221.539000001,0.0
221.540000001,71.0
221.541000001,1019.0
221.542000001,1019.0
221.543000001,1019.0
221.544000001,1.0
221.545000001,0.0
221.546000001,1.0
221.547000001,0.0
221.548000001,1019.0
221.549000001,1020.0
221.550000001,1019.0
221.551000001,1020.0
221.552000001,0.0
221.553000001,0.0
221.554000001,0.0
221.555000001,0.0
221.556000001,1019.0
221.557000001,1020.0
221.558000001,1019.0
221.559000001,1018.0
221.560000001,1.0
221.561000001,0.0
221.562000001,0.0
221.563000001,0.0
221.564000001,1020.0
221.565000001,1019.0
221.566000001,1020.0
221.567000001,619.0
221.568000001,1.0
221.569000001,1.0
221.570000001,1.0
221.571000001,26.0
221.572000001,1019.0
221.573000001,1019.0
221.574000001,1019.0
221.575000001,0.0
221.576000001,1.0
221.577000001,0.0
221.578000001,0.0
221.579000001,353.0
221.580000001,1020.0
221.581000001,1020.0
221.582000001,1020.0
221.583000001,0.0
221.584000001,1.0
221.585000001,1.0
221.586000001,0.0
221.587000001,1020.0
221.588000001,1020.0
221.589000001,1020.0
221.590000001,1019.0
221.591000001,0.0
221.592000001,0.0
221.593000001,1.0
221.594000001,0.0
221.595000001,1019.0
221.596000001,1020.0
221.597000001,1020.0
221.598000001,1020.0
221.599000001,0.0
221.600000001,1.0
221.601000001,1.0
221.602000001,1.0
221.603000001,1019.0
221.604000001,1020.0
221.605000001,1020.0
221.606000001,1022.0
221.607000001,0.0
221.608000001,0.0
221.609000001,1.0
221.610000001,0.0
221.611000001,1020.0
221.612000001,1019.0
221.613000001,1020.0
221.614000001,1019.0
221.615000001,1.0
221.616000001,0.0
221.617000001,1.0
221.618000001,573.0
221.619000001,1019.0
221.620000001,1019.0
221.621000001,1019.0
221.622000001,1.0
221.623000001,1.0
221.624000001,1.0
221.625000001,0.0
221.626000001,1019.0
221.627000001,1020.0
221.628000001,1019.0
221.629000001,1020.0
221.630000001,0.0
221.631000001,0.0
221.632000001,0.0
221.633000001,0.0
221.634000001,1020.0
221.635000001,1020.0
221.636000001,1020.0
221.637000001,1019.0
221.638000001,1.0
221.639000001,1.0
221.640000001,0.0
221.641000001,1.0
221.642000001,1019.0
221.643000001,1018.0
221.644000001,1020.0
221.645000001,1019.0
221.646000001,1.0
221.647000001,0.0
221.648000001,1.0
221.649000001,0.0
221.650000001,1019.0
221.651000001,1020.0
221.652000001,1019.0
221.653000001,1019.0
221.654000001,1.0
221.655000001,0.0
221.656000001,0.0
221.657000001,1.0
221.658000001,1019.0
221.659000001,1020.0
221.660000001,1020.0
221.661000001,650.0
221.662000001,0.0
221.663000001,1.0
221.664000001,1.0
221.665000001,1019.0
221.666000001,1020.0
221.667000001,1019.0
221.668000001,1019.0
221.669000001,1.0
221.670000001,0.0
221.671000001,1.0
221.672000001,0.0
221.673000001,1019.0
221.674000001,1020.0
221.675000001,1020.0
221.676000001,1019.0
221.677000001,1.0
221.678000001,1.0
221.679000001,1.0
221.680000001,1.0
221.681000001,1019.0
221.682000001,1019.0
221.683000001,1020.0
221.684000001,1019.0
221.685000001,1.0
221.686000001,1.0
221.687000001,1.0
221.688000001,1.0
221.689000001,1019.0
221.690000001,1019.0
221.691000001,1019.0
221.692000001,1019.0
221.693000001,0.0
221.694000001,0.0
221.695000001,0.0
221.696000001,0.0
221.697000001,1020.0
221.698000001,1020.0
221.699000001,1020.0
221.700000001,504.0
221.701000001,0.0
221.702000001,0.0
221.703000001,0.0
221.704000001,1020.0
221.705000001,1020.0
221.706000001,1019.0
221.707000001,1019.0
221.708000001,1.0
221.709000001,1.0
221.710000001,1.0
221.711000001,1.0
221.712000001,1019.0
221.713000001,1020.0
221.714000001,1019.0
221.715000001,1019.0
221.716000001,1.0
221.717000001,1.0
221.718000001,0.0
221.719000001,1.0
221.720000001,1020.0
221.721000001,1020.0
221.722000001,1020.0
221.723000001,1020.0
221.724000001,1.0
221.725000001,1.0
221.726000001,1.0
221.727000001,0.0
221.728000001,1018.0
221.729000001,1020.0
221.730000001,1019.0
221.731000001,1019.0
221.732000001,1.0
221.733000001,1.0
221.734000001,0.0
221.735000001,1.0
221.736000001,1019.0
221.737000001,1019.0
221.738000001,1019.0
221.739000001,777.0
221.740000001,1.0
221.741000001,0.0
221.742000001,1.0
221.743000001,1019.0
221.744000001,1020.0
221.745000001,1019.0
221.746000001,1019.0
221.747000001,0.0
221.748000001,1.0
221.749000001,0.0
221.750000001,1.0
221.751000001,1020.0
221.752000001,1019.0
221.753000001,1021.0
221.754000001,1019.0
221.755000001,0.0
221.756000001,1.0
221.757000001,0.0
221.758000001,0.0
221.759000001,1019.0
221.760000001,1019.0
221.761000001,1020.0
221.762000001,1019.0
221.763000001,0.0
221.764000001,0.0
221.765000001,2.0
221.766000001,1.0
221.767000001,1019.0
221.768000001,1019.0
221.769000001,1020.0
221.770000001,1021.0
221.771000001,0.0
221.772000001,0.0
221.773000001,1.0
221.774000001,1.0
221.775000001,1019.0
221.776000001,1020.0
221.777000001,1021.0
221.778000001,986.0
221.779000001,1.0
221.780000001,1.0
221.781000001,1.0
221.782000001,1021.0
221.783000001,1021.0
221.784000001,1019.0
221.785000001,1018.0
221.786000001,1.0
221.787000001,0.0
221.788000001,1.0
221.789000001,1.0
221.790000001,1019.0
221.791000001,1019.0
221.792000001,1019.0
221.793000001,1018.0
221.794000001,0.0
221.795000001,1.0
221.796000001,1.0
221.797000001,1.0
221.798000001,1021.0
221.799000001,1019.0
221.800000001,1020.0
221.801000001,1020.0
221.802000001,0.0
221.803000001,1.0
221.804000001,0.0
221.805000001,0.0
221.806000001,1020.0
221.807000001,1018.0
221.808000001,1020.0
221.809000001,1020.0
221.810000001,1.0
221.811000001,1.0
221.812000001,2.0
221.813000001,1.0
221.814000001,1020.0
221.815000001,1019.0
221.816000001,1020.0
221.817000001,981.0
221.818000001,0.0
221.819000001,0.0
221.820000001,1.0
221.821000001,1018.0
221.822000001,1020.0
221.823000001,1020.0
221.824000001,1019.0
221.825000001,1.0
221.826000001,0.0
221.827000001,1.0
221.828000001,1.0
221.829000001,1019.0
221.830000001,1019.0
221.831000001,1020.0
221.832000001,1020.0
221.833000001,1.0
221.834000001,0.0
221.835000001,0.0
221.836000001,0.0
221.837000001,1021.0
221.838000001,1019.0
221.839000001,1019.0
221.840000001,1020.0
221.841000001,1.0
221.842000001,0.0
221.843000001,0.0
221.844000001,0.0
221.845000001,1020.0
221.846000001,1020.0
221.847000001,1020.0
221.848000001,1021.0
221.849000001,5.0
221.850000001,0.0
221.851000001,1.0
221.852000001,1.0
221.853000001,1020.0
221.854000001,1023.0
221.855000001,1020.0
221.856000001,1003.0
221.857000001,0.0
221.858000001,0.0
221.859000001,0.0
221.860000001,631.0
221.861000001,1019.0
221.862000001,1019.0
221.863000001,1019.0
221.864000001,1.0
221.865000001,0.0
221.866000001,0.0
221.867000001,1.0
221.868000001,1019.0
221.869000001,1021.0
221.870000001,1019.0
221.871000001,1020.0
221.872000001,0.0
221.873000001,0.0
221.874000001,1.0
221.875000001,0.0
221.876000001,1020.0
221.877000001,1020.0
221.878000001,1023.0
221.879000001,1014.0
221.880000001,2.0
221.881000001,1.0
221.882000001,3.0
221.883000001,1.0
221.884000001,1022.0
221.885000001,1019.0
221.886000001,1020.0
221.887000001,1021.0
221.888000001,1.0
221.889000001,0.0
221.890000001,1.0
221.891000001,1.0
221.892000001,1019.0
221.893000001,1020.0
221.894000001,1019.0
221.895000001,1019.0
221.896000001,1.0
221.897000001,1.0
221.898000001,1.0
221.899000001,646.0
221.900000001,1020.0
221.901000001,1018.0
221.902000001,1020.0
221.903000001,1.0
221.904000001,0.0
221.905000001,0.0
221.906000001,1.0
221.907000001,1020.0
221.908000001,1019.0
221.909000001,1020.0
221.910000001,1019.0
221.911000001,1.0
221.912000001,0.0
221.913000001,0.0
221.914000001,1.0
221.915000001,1019.0
221.916000001,1019.0
221.917000001,1019.0
221.918000001,1019.0
221.919000001,1.0
221.920000001,1.0
221.921000001,1.0
221.922000001,1.0
221.923000001,1019.0
221.924000001,1019.0
221.925000001,1020.0
221.926000001,1019.0
221.927000001,0.0
221.928000001,1.0
221.929000001,1.0
221.930000001,1.0
221.931000001,1019.0
221.932000001,1020.0
221.933000001,1020.0
221.934000001,1020.0
221.935000001,0.0
221.936000001,0.0
221.937000001,0.0
221.938000001,175.0
221.939000001,1020.0
221.940000001,1019.0
221.941000001,1019.0
221.942000001,0.0
221.943000001,0.0
221.944000001,1.0
221.945000001,0.0
221.946000001,1019.0
221.947000001,1020.0
221.948000001,1020.0
221.949000001,1020.0
221.950000001,0.0
221.951000001,0.0
221.952000001,0.0
221.953000001,0.0
221.954000001,1020.0
221.955000001,1019.0
221.956000001,1020.0
221.957000001,1019.0
221.958000001,1.0
221.959000001,1.0
221.960000001,1.0
221.961000001,1.0
221.962000001,1020.0
221.963000001,1019.0
221.964000001,1019.0
221.965000001,1020.0
221.966000001,1.0
221.967000001,1.0
221.968000001,1.0
221.969000001,1.0
221.970000001,1019.0
221.971000001,1020.0
221.972000001,1020.0
221.973000001,1020.0
221.974000001,1.0
221.975000001,1.0
221.976000001,1.0
221.977000001,14.0
221.978000001,1019.0
221.979000001,1019.0
221.980000001,1019.0
221.981000001,0.0
221.982000001,1.0
221.983000001,1.0
221.984000001,0.0
221.985000001,1020.0
221.986000001,1019.0
221.987000001,1019.0
221.988000001,1019.0
221.989000001,1.0
221.990000001,1.0
221.991000001,0.0
221.992000001,1.0
221.993000001,1019.0
221.994000001,1020.0
221.995000001,1020.0
221.996000001,1019.0
221.997000001,1.0
221.998000001,1.0
221.999000001,1.0
222.000000001,0.0
222.001000001,1020.0
222.002000001,1018.0
222.003000001,1019.0
222.004000001,1019.0
222.005000001,0.0
222.006000001,0.0
222.007000001,1.0
222.008000001,0.0
222.009000001,1019.0
222.010000001,1019.0
222.011000001,1019.0
222.012000001,1020.0
222.013000001,1.0
222.014000001,1.0
222.015000001,0.0
222.016000001,0.0
222.017000001,1020.0
222.018000001,1019.0
222.019000001,1020.0
222.020000001,1.0
222.021000001,0.0
222.022000001,0.0
222.023000001,1.0
222.024000001,1020.0
222.025000001,1019.0
222.026000001,1019.0
222.027000001,1020.0
222.028000001,1.0
222.029000001,0.0
222.030000001,1.0
222.031000001,0.0
222.032000001,1019.0
222.033000001,1019.0
222.034000001,1020.0
222.035000001,1020.0
222.036000001,1.0
222.037000001,0.0
222.038000001,1.0
222.039000001,1.0
222.040000001,1020.0
222.041000001,1020.0
222.042000001,1020.0
222.043000001,1020.0
222.044000001,1.0
222.045000001,0.0
222.046000001,1.0
222.047000001,0.0
222.048000001,1019.0
222.049000001,1020.0
222.050000001,1020.0
222.051000001,1019.0
222.052000001,0.0
222.053000001,1.0
222.054000001,1.0
222.055000001,0.0
222.056000001,1019.0
222.057000001,1019.0
222.058000001,1020.0
222.059000001,239.0
222.060000001,1.0
222.061000001,0.0
222.062000001,0.0
222.063000001,1019.0
222.064000001,1019.0
222.065000001,1019.0
222.066000001,1019.0
222.067000001,956.0
222.068000001,1.0
222.069000001,0.0
222.070000001,1.0
222.071000001,1.0
222.072000001,1019.0
222.073000001,1020.0
222.074000001,1019.0
222.075000001,1019.0
222.076000001,1.0
222.077000001,1.0
222.078000001,0.0
222.079000001,1.0
222.080000001,1019.0
222.081000001,1019.0
222.082000001,1020.0
222.083000001,1019.0
222.084000001,1.0
222.085000001,1.0
222.086000001,1.0
222.087000001,1.0
222.088000001,1019.0
222.089000001,1019.0
222.090000001,1019.0
222.091000001,1019.0
222.092000001,1.0
222.093000001,0.0
222.094000001,1.0
222.095000001,1.0
222.096000001,1020.0
222.097000001,1020.0
222.098000001,1019.0
222.099000001,1020.0
222.100000001,0.0
222.101000001,1.0
222.102000001,0.0
222.103000001,0.0
222.104000001,1020.0
222.105000001,1020.0
222.106000001,1020.0
222.107000001,420.0
222.108000001,1.0
222.109000001,0.0
222.110000001,0.0
222.111000001,1019.0
222.112000001,1019.0
222.113000001,1020.0
222.114000001,1020.0
222.115000001,1.0
222.116000001,1.0
222.117000001,1.0
222.118000001,1.0
222.119000001,1020.0
222.120000001,1020.0
222.121000001,1019.0
222.122000001,1019.0
222.123000001,0.0
222.124000001,1.0
222.125000001,0.0
222.126000001,0.0
222.127000001,1019.0
222.128000001,1020.0
222.129000001,1019.0
222.130000001,1020.0
222.131000001,1.0
222.132000001,0.0
222.133000001,2.0
222.134000001,1.0
222.135000001,1020.0
222.136000001,1020.0
222.137000001,1020.0
222.138000001,1020.0
222.139000001,1.0
222.140000001,1.0
222.141000001,1.0
222.142000001,1.0
222.143000001,1020.0
222.144000001,1019.0
222.145000001,1019.0
222.146000001,1019.0
222.147000001,0.0
222.148000001,1.0
222.149000001,1.0
222.150000001,1018.0
222.151000001,1019.0
222.152000001,1020.0
222.153000001,1018.0
222.154000001,1.0
222.155000001,0.0
222.156000001,1.0
222.157000001,1.0
222.158000001,1020.0
222.159000001,1020.0
222.160000001,1020.0
222.161000001,1019.0
222.162000001,1.0
222.163000001,1.0
222.164000001,1.0
222.165000001,1.0
222.166000001,1020.0
222.167000001,1019.0
222.168000001,1019.0
222.169000001,1021.0
222.170000001,1.0
222.171000001,1.0
222.172000001,1.0
222.173000001,0.0
222.174000001,1019.0
222.175000001,1022.0
222.176000001,1019.0
222.177000001,1020.0
222.178000001,1.0
222.179000001,1.0
222.180000001,1.0
222.181000001,0.0
222.182000001,1020.0
222.183000001,1019.0
222.184000001,1020.0
222.185000001,1020.0
222.186000001,0.0
222.187000001,0.0
222.188000001,0.0
222.189000001,17.0
222.190000001,1019.0
222.191000001,1019.0
222.192000001,1019.0
222.193000001,0.0
222.194000001,0.0
222.195000001,0.0
222.196000001,1.0
222.197000001,1020.0
222.198000001,1019.0
222.199000001,1020.0
222.200000001,1019.0
222.201000001,1.0
222.202000001,0.0
222.203000001,1.0
222.204000001,1.0
222.205000001,1020.0
222.206000001,1020.0
222.207000001,1019.0
222.208000001,1020.0
222.209000001,1.0
222.210000001,0.0
222.211000001,0.0
222.212000001,1.0
222.213000001,1019.0
222.214000001,1020.0
222.215000001,1019.0
222.216000001,1018.0
222.217000001,1.0
222.218000001,1.0
222.219000001,1.0
222.220000001,1.0
222.221000001,1019.0
222.222000001,1020.0
222.223000001,1020.0
222.224000001,347.0
222.225000001,0.0
222.226000001,1.0
222.227000001,0.0
222.228000001,1.0
222.229000001,1018.0
222.230000001,1020.0
222.231000001,1019.0
222.232000001,1.0
222.233000001,0.0
222.234000001,0.0
222.235000001,1.0
222.236000001,716.0
222.237000001,1018.0
222.238000001,1020.0
222.239000001,1020.0
222.240000001,1.0
222.241000001,1.0
222.242000001,1.0
222.243000001,1.0
222.244000001,1020.0
222.245000001,1019.0
222.246000001,1019.0
222.247000001,1019.0
222.248000001,1.0
222.249000001,0.0
222.250000001,1.0
222.251000001,0.0
222.252000001,1020.0
222.253000001,1020.0
222.254000001,1020.0
222.255000001,1019.0
222.256000001,2.0
222.257000001,0.0
222.258000001,0.0
222.259000001,1.0
222.260000001,1020.0
222.261000001,1020.0
222.262000001,1020.0
222.263000001,808.0
222.264000001,0.0
222.265000001,1.0
222.266000001,0.0
222.267000001,0.0
222.268000001,1020.0
222.269000001,1019.0
222.270000001,1018.0
222.271000001,2.0
222.272000001,1.0
222.273000001,0.0
222.274000001,1.0
222.275000001,768.0
222.276000001,1020.0
222.277000001,1019.0
222.278000001,1020.0
222.279000001,0.0
222.280000001,2.0
222.281000001,0.0
222.282000001,0.0
222.283000001,1021.0
222.284000001,1019.0
222.285000001,1019.0
222.286000001,1020.0
222.287000001,1.0
222.288000001,1.0
222.289000001,0.0
222.290000001,0.0
222.291000001,1020.0
222.292000001,1019.0
222.293000001,1019.0
222.294000001,1019.0
222.295000001,1.0
222.296000001,1.0
222.297000001,1.0
222.298000001,1.0
222.299000001,1020.0
222.300000001,1020.0
222.301000001,1020.0
222.302000001,769.0
222.303000001,1.0
222.304000001,1.0
222.305000001,1.0
222.306000001,85.0
222.307000001,1018.0
222.308000001,1020.0
222.309000001,1018.0
222.310000001,0.0
222.311000001,0.0
222.312000001,0.0
222.313000001,2.0
222.314000001,1020.0
222.315000001,1019.0
222.316000001,1019.0
222.317000001,1020.0
222.318000001,0.0
222.319000001,0.0
222.320000001,0.0
222.321000001,0.0
222.322000001,1019.0
222.323000001,1019.0
222.324000001,1020.0
222.325000001,1020.0
222.326000001,1.0
222.327000001,0.0
222.328000001,1.0
222.329000001,1.0
222.330000001,1020.0
222.331000001,1018.0
222.332000001,1019.0
222.333000001,1019.0
222.334000001,0.0
222.335000001,1.0
222.336000001,1.0
222.337000001,0.0
222.338000001,1020.0
222.339000001,1022.0
222.340000001,1020.0
222.341000001,1020.0
222.342000001,4.0
222.343000001,1.0
222.344000001,0.0
222.345000001,964.0
222.346000001,1023.0
222.347000001,1019.0
222.348000001,1018.0
222.349000001,302.0
222.350000001,1.0
222.351000001,0.0
222.352000001,0.0
222.353000001,1020.0
222.354000001,1021.0
222.355000001,1020.0
222.356000001,1020.0
222.357000001,1.0
222.358000001,1.0
222.359000001,1.0
222.360000001,0.0
222.361000001,1020.0
222.362000001,1020.0
222.363000001,1018.0
222.364000001,1013.0
222.365000001,0.0
222.366000001,0.0
222.367000001,0.0
222.368000001,6.0
222.369000001,1019.0
222.370000001,1022.0
222.371000001,1019.0
222.372000001,1019.0
222.373000001,1.0
222.374000001,1.0
222.375000001,0.0
222.376000001,1019.0
222.377000001,1019.0
222.378000001,1019.0
222.379000001,1020.0
222.380000001,1019.0
222.381000001,1.0
222.382000001,1.0
222.383000001,1.0
222.384000001,1023.0
222.385000001,1020.0
222.386000001,1019.0
222.387000001,1020.0
222.388000001,784.0
222.389000001,1.0
222.390000001,0.0
222.391000001,1.0
222.392000001,1020.0
222.393000001,1019.0
222.394000001,1019.0
222.395000001,1020.0
222.396000001,1.0
222.397000001,1.0
222.398000001,1.0
222.399000001,1.0
222.400000001,1019.0
222.401000001,1019.0
222.402000001,1020.0
222.403000001,1019.0
222.404000001,0.0
222.405000001,0.0
222.406000001,1.0
222.407000001,456.0
222.408000001,1020.0
222.409000001,1019.0
222.410000001,1020.0
222.411000001,1020.0
222.412000001,1.0
222.413000001,0.0
222.414000001,1.0
222.415000001,1020.0
222.416000001,1020.0
222.417000001,1018.0
222.418000001,1020.0
222.419000001,1020.0
222.420000001,1.0
222.421000001,1.0
222.422000001,1.0
222.423000001,428.0
222.424000001,1019.0
222.425000001,1020.0
222.426000001,1020.0
