59.357,544.0
59.358,537.0
59.359,543.0
59.36,611.0
59.361,599.0
59.362,566.0
59.363,554.0
59.364,601.0
59.365,581.0
59.366,560.0
59.367,546.0
59.368,626.0
59.369,598.0
59.37,563.0
59.371,551.0
59.372,624.0
59.373,602.0
59.374,560.0
59.375,548.0
59.376,619.0
59.377,593.0
59.378,543.0
59.379,589.0
59.38,733.0
59.381,694.0
59.382,585.0
59.383,537.0
59.384,620.0
59.385,609.0
59.386,556.0
59.387,540.0
59.388,595.0
59.389,556.0
59.39,518.0
59.391,575.0
59.392,624.0
59.393,611.0
59.394,566.0
59.395,544.0
59.396,579.0
59.397,535.0
59.398,531.0
59.399,612.0
59.4,623.0
59.401,602.0
59.402,563.0
59.403,547.0
59.404,584.0
59.405,539.0
59.406,543.0
59.407,628.0
59.408,637.0
59.409,655.0
59.41,618.0
59.411,575.0
59.412,574.0
59.413,554.0
59.414,595.0
59.415,643.0
59.416,653.0
59.417,646.0
59.418,607.0
59.419,570.0
59.42,572.0
59.421,563.0
59.422,613.0
59.423,634.0
59.424,654.0
59.425,608.0
59.426,564.0
59.427,543.0
59.428,560.0
59.429,547.0
59.43,594.0
59.431,618.0
59.432,641.0
59.433,595.0
59.434,554.0
59.435,538.0
59.436,553.0
59.437,554.0
59.438,585.0
59.439,599.0
59.44,624.0
59.441,579.0
59.442,541.0
59.443,538.0
59.444,550.0
59.445,562.0
59.446,574.0
59.447,607.0
59.448,619.0
59.449,574.0
59.45,539.0
59.451,541.0
59.452,552.0
59.453,573.0
59.454,560.0
59.455,618.0
59.456,613.0
59.457,564.0
59.458,534.0
59.459,545.0
59.46,558.0
59.461,588.0
59.462,547.0
59.463,618.0
59.464,611.0
59.465,556.0
59.466,530.0
59.467,546.0
59.468,566.0
59.469,593.0
59.47,541.0
59.471,633.0
59.472,608.0
59.473,550.0
59.474,531.0
59.475,550.0
59.476,576.0
59.477,591.0
59.478,546.0
59.479,625.0
59.48,600.0
59.481,543.0
59.482,529.0
59.483,549.0
59.484,584.0
59.485,593.0
59.486,557.0
59.487,608.0
59.488,590.0
59.489,533.0
59.49,527.0
59.491,553.0
59.492,584.0
59.493,589.0
59.494,556.0
59.495,584.0
59.496,586.0
59.497,539.0
59.498,548.0
59.499,555.0
59.5,587.0
59.501,631.0
59.502,574.0
59.503,568.0
59.504,607.0
59.505,573.0
59.506,569.0
59.507,559.0
59.508,595.0
59.509,609.0
59.51,573.0
59.511,574.0
59.512,767.0
59.513,779.0
59.514,704.0
59.515,588.0
59.516,586.0
59.517,574.0
59.518,600.0
59.519,674.0
59.52,1011.0
59.521,1004.0
59.522,897.0
59.523,615.0
59.524,550.0
59.525,518.0
59.526,625.0
59.527,778.0
59.528,1014.0
59.529,1010.0
59.53,933.0
59.531,572.0
59.532,487.0
59.533,455.0
59.534,623.0
59.535,933.0
59.536,1016.0
59.537,1010.0
59.538,918.0
59.539,499.0
59.54,425.0
59.541,403.0
59.542,400.0
59.543,655.0
59.544,1007.0
59.545,857.0
59.546,539.0
59.547,360.0
59.548,410.0
59.549,385.0
59.55,334.0
59.551,487.0
59.552,761.0
59.553,630.0
59.554,393.0
59.555,376.0
59.556,425.0
59.557,426.0
59.558,371.0
59.559,371.0
59.56,484.0
59.561,420.0
59.562,378.0
59.563,459.0
59.564,471.0
59.565,476.0
59.566,425.0
59.567,408.0
59.568,472.0
59.569,428.0
59.57,437.0
59.571,521.0
59.572,540.0
59.573,539.0
59.574,491.0
59.575,454.0
59.576,478.0
59.577,462.0
59.578,512.0
59.579,557.0
59.58,577.0
59.581,558.0
59.582,509.0
59.583,478.0
59.584,501.0
59.585,491.0
59.586,550.0
59.587,572.0
59.588,591.0
59.589,548.0
59.59,495.0
59.591,476.0
59.592,516.0
59.593,503.0
59.594,558.0
59.595,575.0
59.596,601.0
59.597,565.0
59.598,509.0
59.599,496.0
59.6,524.0
59.601,535.0
59.602,586.0
59.603,598.0
59.604,611.0
59.605,571.0
59.606,524.0
59.607,511.0
59.608,536.0
59.609,554.0
59.61,609.0
59.611,612.0
59.612,606.0
59.613,562.0
59.614,517.0
59.615,518.0
59.616,538.0
59.617,575.0
59.618,597.0
59.619,610.0
59.62,597.0
59.621,548.0
59.622,508.0
59.623,517.0
59.624,541.0
59.625,584.0
59.626,591.0
59.627,624.0
59.628,586.0
59.629,530.0
59.63,499.0
59.631,516.0
59.632,548.0
59.633,593.0
59.634,576.0
59.635,627.0
59.636,589.0
59.637,533.0
59.638,504.0
59.639,520.0
59.64,564.0
59.641,607.0
59.642,587.0
59.643,616.0
59.644,581.0
59.645,519.0
59.646,500.0
59.647,521.0
59.648,568.0
59.649,594.0
59.65,567.0
59.651,594.0
59.652,563.0
59.653,506.0
59.654,501.0
59.655,519.0
59.656,574.0
59.657,615.0
59.658,595.0
59.659,591.0
59.66,561.0
59.661,511.0
59.662,508.0
59.663,523.0
59.664,588.0
59.665,629.0
59.666,600.0
59.667,578.0
59.668,552.0
59.669,510.0
59.67,511.0
59.671,529.0
59.672,604.0
59.673,620.0
59.674,594.0
59.675,558.0
59.676,552.0
59.677,526.0
59.678,525.0
59.679,534.0
59.68,612.0
59.681,622.0
59.682,599.0
59.683,561.0
59.684,556.0
59.685,532.0
59.686,526.0
59.687,547.0
59.688,626.0
59.689,604.0
59.69,558.0
59.691,543.0
59.692,626.0
59.693,620.0
59.694,580.0
59.695,535.0
59.696,615.0
59.697,589.0
59.698,542.0
59.699,543.0
59.7,656.0
59.701,650.0
59.702,572.0
59.703,532.0
59.704,621.0
59.705,604.0
59.706,556.0
59.707,525.0
59.708,570.0
59.709,543.0
59.71,516.0
59.711,572.0
59.712,615.0
59.713,606.0
59.714,557.0
59.715,526.0
59.716,572.0
59.717,545.0
59.718,520.0
59.719,596.0
59.72,616.0
59.721,645.0
59.722,613.0
59.723,564.0
59.724,563.0
59.725,539.0
59.726,562.0
59.727,632.0
59.728,632.0
59.729,645.0
59.73,612.0
59.731,566.0
59.732,566.0
59.733,548.0
59.734,581.0
59.735,639.0
59.736,645.0
59.737,625.0
59.738,588.0
59.739,548.0
59.74,558.0
59.741,544.0
59.742,587.0
59.743,636.0
59.744,645.0
59.745,603.0
59.746,567.0
59.747,537.0
59.748,556.0
59.749,551.0
59.75,593.0
59.751,619.0
59.752,646.0
59.753,602.0
59.754,564.0
59.755,534.0
59.756,552.0
59.757,542.0
59.758,572.0
59.759,589.0
59.76,619.0
59.761,577.0
59.762,538.0
59.763,526.0
59.764,547.0
59.765,558.0
59.766,569.0
59.767,590.0
59.768,604.0
59.769,556.0
59.77,517.0
59.771,523.0
59.772,547.0
59.773,559.0
59.774,551.0
59.775,575.0
59.776,605.0
59.777,553.0
59.778,516.0
59.779,528.0
59.78,554.0
59.781,574.0
59.782,540.0
59.783,606.0
59.784,609.0
59.785,553.0
59.786,524.0
59.787,537.0
59.788,560.0
59.789,580.0
59.79,537.0
59.791,625.0
59.792,604.0
59.793,545.0
59.794,520.0
59.795,538.0
59.796,565.0
59.797,589.0
59.798,541.0
59.799,607.0
59.8,586.0
59.801,530.0
59.802,518.0
59.803,542.0
59.804,572.0
59.805,575.0
59.806,541.0
59.807,586.0
59.808,575.0
59.809,529.0
59.81,526.0
59.811,548.0
59.812,572.0
59.813,598.0
59.814,550.0
59.815,567.0
59.816,581.0
59.817,552.0
59.818,550.0
59.819,563.0
59.82,572.0
59.821,599.0
59.822,553.0
59.823,540.0
59.824,643.0
59.825,663.0
59.826,637.0
59.827,590.0
59.828,576.0
59.829,591.0
59.83,559.0
59.831,610.0
59.832,956.0
59.833,1007.0
59.834,887.0
59.835,679.0
59.836,559.0
59.837,531.0
59.838,588.0
59.839,653.0
59.84,1010.0
59.841,1009.0
59.842,966.0
59.843,661.0
59.844,509.0
59.845,471.0
59.846,542.0
59.847,640.0
59.848,1012.0
59.849,1006.0
59.85,897.0
59.851,548.0
59.852,450.0
59.853,427.0
59.854,455.0
59.855,578.0
59.856,1010.0
59.857,979.0
59.858,720.0
59.859,429.0
59.86,415.0
59.861,389.0
59.862,479.0
59.863,781.0
59.864,1013.0
59.865,1002.0
59.866,722.0
59.867,387.0
59.868,388.0
59.869,392.0
59.87,313.0
59.871,321.0
59.872,475.0
59.873,457.0
59.874,346.0
59.875,374.0
59.876,449.0
59.877,437.0
59.878,373.0
59.879,361.0
59.88,440.0
59.881,421.0
59.882,391.0
59.883,459.0
59.884,480.0
59.885,505.0
59.886,457.0
59.887,418.0
59.888,454.0
59.889,435.0
59.89,459.0
59.891,532.0
59.892,536.0
59.893,544.0
59.894,498.0
59.895,462.0
59.896,481.0
59.897,471.0
59.898,517.0
59.899,563.0
59.9,565.0
59.901,541.0
59.902,490.0
59.903,466.0
59.904,496.0
59.905,487.0
59.906,538.0
59.907,569.0
59.908,592.0
59.909,559.0
59.91,507.0
59.911,485.0
59.912,517.0
59.913,516.0
59.914,567.0
59.915,577.0
59.916,604.0
59.917,561.0
59.918,509.0
59.919,496.0
59.92,520.0
59.921,534.0
59.922,584.0
59.923,588.0
59.924,603.0
59.925,565.0
59.926,512.0
59.927,503.0
59.928,530.0
59.929,547.0
59.93,586.0
59.931,600.0
59.932,604.0
59.933,560.0
59.934,514.0
59.935,516.0
59.936,540.0
59.937,568.0
59.938,594.0
59.939,610.0
59.94,604.0
59.941,558.0
59.942,513.0
59.943,526.0
59.944,548.0
59.945,580.0
59.946,576.0
59.947,610.0
59.948,596.0
59.949,544.0
59.95,507.0
59.951,527.0
59.952,553.0
59.953,592.0
59.954,593.0
59.955,636.0
59.956,598.0
59.957,545.0
59.958,515.0
59.959,530.0
59.96,565.0
59.961,604.0
59.962,560.0
59.963,605.0
59.964,574.0
59.965,521.0
59.966,507.0
59.967,526.0
59.968,567.0
59.969,630.0
59.97,606.0
59.971,602.0
59.972,568.0
59.973,521.0
59.974,515.0
59.975,527.0
59.976,580.0
59.977,629.0
59.978,595.0
59.979,590.0
59.98,563.0
59.981,531.0
59.982,526.0
59.983,533.0
59.984,586.0
59.985,625.0
59.986,580.0
59.987,564.0
59.988,560.0
59.989,553.0
59.99,563.0
59.991,539.0
59.992,599.0
59.993,642.0
59.994,598.0
59.995,565.0
59.996,559.0
59.997,553.0
59.998,547.0
59.999,542.0
60.0,609.0
60.001,629.0
60.002,589.0
60.003,553.0
60.004,584.0
60.005,593.0
60.006,575.0
60.007,546.0
60.008,623.0
60.009,635.0
60.01,581.0
60.011,546.0
60.012,604.0
60.013,610.0
60.014,586.0
60.015,545.0
60.016,621.0
60.017,616.0
60.018,563.0
60.019,540.0
60.02,628.0
60.021,628.0
60.022,575.0
60.023,548.0
60.024,633.0
60.025,636.0
60.026,589.0
60.027,544.0
60.028,581.0
60.029,571.0
60.03,537.0
60.031,584.0
60.032,649.0
60.033,668.0
60.034,618.0
60.035,568.0
60.036,571.0
60.037,557.0
60.038,550.0
60.039,620.0
60.04,664.0
60.041,671.0
60.042,638.0
60.043,588.0
60.044,575.0
60.045,561.0
60.046,575.0
60.047,636.0
60.048,655.0
60.049,660.0
60.05,635.0
60.051,589.0
60.052,580.0
60.053,565.0
60.054,593.0
60.055,641.0
60.056,635.0
60.057,619.0
60.058,587.0
60.059,549.0
60.06,556.0
60.061,545.0
60.062,582.0
60.063,628.0
60.064,628.0
60.065,599.0
60.066,561.0
60.067,529.0
60.068,552.0
60.069,542.0
60.07,579.0
60.071,608.0
60.072,639.0
60.073,597.0
60.074,561.0
60.075,535.0
60.076,559.0
60.077,550.0
60.078,579.0
60.079,588.0
60.08,636.0
60.081,594.0
60.082,555.0
60.083,537.0
60.084,560.0
60.085,563.0
60.086,578.0
60.087,579.0
60.088,624.0
60.089,574.0
60.09,536.0
60.091,531.0
60.092,553.0
60.093,566.0
60.094,558.0
60.095,571.0
60.096,606.0
60.097,561.0
60.098,524.0
60.099,535.0
60.1,553.0
60.101,567.0
60.102,544.0
60.103,593.0
60.104,603.0
60.105,559.0
60.106,524.0
60.107,539.0
60.108,558.0
60.109,578.0
60.11,534.0
60.111,605.0
60.112,600.0
60.113,552.0
60.114,523.0
60.115,539.0
60.116,563.0
60.117,593.0
60.118,537.0
60.119,607.0
60.12,591.0
60.121,548.0
60.122,525.0
60.123,549.0
60.124,567.0
60.125,612.0
60.126,556.0
60.127,592.0
60.128,584.0
60.129,554.0
60.13,531.0
60.131,548.0
60.132,568.0
60.133,609.0
60.134,556.0
60.135,566.0
60.136,587.0
60.137,584.0
60.138,571.0
60.139,564.0
60.14,571.0
60.141,631.0
60.142,567.0
60.143,535.0
60.144,641.0
60.145,699.0
60.146,642.0
60.147,583.0
60.148,556.0
60.149,593.0
60.15,567.0
60.151,622.0
60.152,995.0
60.153,1010.0
60.154,946.0
60.155,718.0
60.156,545.0
60.157,530.0
60.158,573.0
60.159,651.0
60.16,1010.0
60.161,1013.0
60.162,979.0
60.163,676.0
60.164,483.0
60.165,466.0
60.166,546.0
60.167,621.0
60.168,1013.0
60.169,1011.0
60.17,924.0
60.171,559.0
60.172,430.0
60.173,419.0
60.174,442.0
60.175,550.0
60.176,1008.0
60.177,1006.0
60.178,757.0
60.179,423.0
60.18,401.0
60.181,410.0
60.182,338.0
60.183,371.0
60.184,626.0
60.185,653.0
60.186,437.0
60.187,348.0
60.188,430.0
60.189,440.0
60.19,360.0
60.191,396.0
60.192,616.0
60.193,606.0
60.194,405.0
60.195,390.0
60.196,472.0
60.197,491.0
60.198,435.0
60.199,398.0
60.2,454.0
60.201,455.0
60.202,415.0
60.203,485.0
60.204,499.0
60.205,532.0
60.206,491.0
60.207,450.0
60.208,474.0
60.209,464.0
60.21,477.0
60.211,545.0
60.212,541.0
60.213,550.0
60.214,506.0
60.215,469.0
60.216,494.0
60.217,485.0
60.218,518.0
60.219,574.0
60.22,577.0
60.221,569.0
60.222,520.0
60.223,489.0
60.224,512.0
60.225,503.0
60.226,552.0
60.227,594.0
60.228,596.0
60.229,561.0
60.23,509.0
60.231,489.0
60.232,522.0
60.233,518.0
60.234,564.0
60.235,592.0
60.236,618.0
60.237,572.0
60.238,520.0
60.239,501.0
60.24,531.0
60.241,533.0
60.242,592.0
60.243,601.0
60.244,624.0
60.245,581.0
60.246,529.0
60.247,514.0
60.248,534.0
60.249,548.0
60.25,599.0
60.251,602.0
60.252,608.0
60.253,565.0
60.254,516.0
60.255,511.0
60.256,536.0
60.257,562.0
60.258,604.0
60.259,608.0
60.26,610.0
60.261,562.0
60.262,515.0
60.263,518.0
60.264,546.0
60.265,578.0
60.266,604.0
60.267,628.0
60.268,608.0
60.269,559.0
60.27,518.0
60.271,523.0
60.272,550.0
60.273,594.0
60.274,587.0
60.275,617.0
60.276,593.0
60.277,547.0
60.278,509.0
60.279,519.0
60.28,556.0
60.281,611.0
60.282,602.0
60.283,620.0
60.284,585.0
60.285,540.0
60.286,509.0
60.287,518.0
60.288,562.0
60.289,616.0
60.29,579.0
60.291,595.0
60.292,566.0
60.293,530.0
60.294,508.0
60.295,517.0
60.296,561.0
60.297,629.0
60.298,594.0
60.299,582.0
60.3,559.0
60.301,535.0
60.302,520.0
60.303,517.0
60.304,569.0
60.305,637.0
60.306,604.0
60.307,578.0
60.308,556.0
60.309,539.0
60.31,520.0
60.311,521.0
60.312,577.0
60.313,621.0
60.314,574.0
60.315,549.0
60.316,563.0
60.317,580.0
60.318,557.0
60.319,521.0
60.32,583.0
60.321,602.0
60.322,573.0
60.323,544.0
60.324,589.0
60.325,627.0
60.326,588.0
60.327,527.0
60.328,592.0
60.329,604.0
60.33,555.0
60.331,538.0
60.332,670.0
60.333,742.0
60.334,664.0
60.335,530.0
60.336,595.0
60.337,610.0
60.338,562.0
60.339,527.0
60.34,591.0
60.341,612.0
60.342,547.0
60.343,527.0
60.344,622.0
60.345,644.0
60.346,587.0
60.347,538.0
60.348,562.0
60.349,569.0
60.35,515.0
60.351,555.0
60.352,629.0
60.353,648.0
60.354,597.0
60.355,546.0
60.356,552.0
60.357,552.0
60.358,527.0
60.359,592.0
60.36,632.0
60.361,663.0
60.362,636.0
60.363,586.0
60.364,568.0
60.365,564.0
60.366,570.0
60.367,625.0
60.368,625.0
60.369,630.0
60.37,601.0
60.371,553.0
60.3719999999,551.0
60.3729999999,546.0
60.3739999999,554.0
60.3749999999,631.0
60.3759999999,628.0
60.3769999999,632.0
60.3779999999,600.0
60.3789999999,557.0
60.3799999999,557.0
60.3809999999,544.0
60.3819999999,569.0
60.3829999999,620.0
60.3839999999,634.0
60.3849999999,606.0
60.3859999999,570.0
60.3869999999,530.0
60.3879999999,550.0
60.3889999999,544.0
60.3899999999,582.0
60.3909999999,611.0
60.3919999999,644.0
60.3929999999,607.0
60.3939999999,566.0
60.3949999999,532.0
60.3959999999,551.0
60.3969999999,550.0
60.3979999999,580.0
60.3989999999,578.0
60.3999999999,639.0
60.4009999999,597.0
60.4019999999,554.0
60.4029999999,527.0
60.4039999999,546.0
60.4049999999,557.0
60.4059999999,578.0
60.4069999999,567.0
60.4079999999,626.0
60.4089999999,589.0
60.4099999999,547.0
60.4109999999,530.0
60.4119999999,550.0
60.4129999999,567.0
60.4139999999,573.0
60.4149999999,570.0
60.4159999999,618.0
60.4169999999,574.0
60.4179999999,532.0
60.4189999999,527.0
60.4199999999,550.0
60.4209999999,569.0
60.4219999999,553.0
60.4229999999,588.0
60.4239999999,619.0
60.4249999999,576.0
60.4259999999,533.0
60.4269999999,535.0
60.4279999999,551.0
60.4289999999,586.0
60.4299999999,550.0
60.4309999999,587.0
60.4319999999,597.0
60.4329999999,557.0
60.4339999999,515.0
60.4349999999,531.0
60.4359999999,552.0
60.4369999999,586.0
60.4379999999,544.0
60.4389999999,590.0
60.4399999999,579.0
60.4409999999,555.0
60.4419999999,516.0
60.4429999999,540.0
60.4439999999,552.0
60.4449999999,610.0
60.4459999999,549.0
60.4469999999,575.0
60.4479999999,571.0
60.4489999999,586.0
60.4499999999,551.0
60.4509999999,561.0
60.4519999999,555.0
60.4529999999,622.0
60.4539999999,587.0
60.4549999999,556.0
60.4559999999,567.0
60.4569999999,617.0
60.4579999999,564.0
60.4589999999,555.0
60.4599999999,551.0
60.4609999999,611.0
60.4619999999,558.0
60.4629999999,592.0
60.4639999999,778.0
60.4649999999,1006.0
60.4659999999,920.0
60.4669999999,780.0
60.4679999999,578.0
60.4689999999,562.0
60.4699999999,513.0
60.4709999999,537.0
60.4719999999,802.0
60.4729999999,1007.0
60.4739999999,883.0
60.4749999999,675.0
60.4759999999,494.0
60.4769999999,497.0
60.4779999999,548.0
60.4789999999,635.0
60.4799999999,1019.0
60.4809999999,1017.0
60.4819999999,1010.0
60.4829999999,726.0
60.4839999999,453.0
60.4849999999,428.0
60.4859999999,495.0
60.4869999999,531.0
60.4879999999,976.0
60.4889999999,1008.0
60.4899999999,852.0
60.4909999999,498.0
60.4919999999,380.0
60.4929999999,398.0
60.4939999999,346.0
60.4949999999,347.0
60.4959999999,582.0
60.4969999999,782.0
60.4979999999,536.0
60.4989999999,345.0
60.4999999999,391.0
60.5009999999,418.0
60.5019999999,341.0
60.5029999999,335.0
60.5039999999,501.0
60.5049999999,610.0
60.5059999999,425.0
60.5069999999,349.0
60.5079999999,437.0
60.5089999999,463.0
60.5099999999,418.0
60.5109999999,372.0
60.5119999999,399.0
60.5129999999,434.0
60.5139999999,383.0
60.5149999999,434.0
60.5159999999,499.0
60.5169999999,524.0
60.5179999999,433.0
60.5189999999,397.0
60.5199999999,435.0
60.5209999999,485.0
60.5219999999,416.0
60.5229999999,477.0
60.5239999999,516.0
60.5249999999,548.0
60.5259999999,503.0
60.5269999999,455.0
60.5279999999,458.0
60.5289999999,472.0
60.5299999999,480.0
60.5309999999,543.0
60.5319999999,547.0
60.5329999999,561.0
60.5339999999,514.0
60.5349999999,473.0
60.5359999999,478.0
60.5369999999,488.0
60.5379999999,514.0
60.5389999999,572.0
60.5399999999,565.0
60.5409999999,564.0
60.5419999999,519.0
60.5429999999,482.0
60.5439999999,494.0
60.5449999999,504.0
60.5459999999,542.0
60.5469999999,584.0
60.5479999999,593.0
60.5489999999,578.0
60.5499999999,533.0
60.5509999999,500.0
60.5519999999,511.0
60.5529999999,519.0
60.5539999999,570.0
60.5549999999,587.0
60.5559999999,604.0
60.5569999999,566.0
60.5579999999,515.0
60.5589999999,488.0
60.5599999999,511.0
60.5609999999,526.0
60.5619999999,578.0
60.5629999999,575.0
60.5639999999,610.0
60.5649999999,574.0
60.5659999999,520.0
60.5669999999,499.0
60.5679999999,518.0
60.5689999999,542.0
60.5699999999,589.0
60.5709999999,582.0
60.5719999999,600.0
60.5729999999,562.0
60.5739999999,509.0
60.5749999999,499.0
60.5759999999,522.0
60.5769999999,553.0
60.5779999999,597.0
60.5789999999,595.0
60.5799999999,602.0
60.5809999999,563.0
60.5819999999,510.0
60.5829999999,509.0
60.5839999999,529.0
60.5849999999,570.0
60.5859999999,601.0
60.5869999999,602.0
60.5879999999,603.0
60.5889999999,559.0
60.5899999999,510.0
60.5909999999,512.0
60.5919999999,541.0
60.5929999999,583.0
60.5939999999,593.0
60.5949999999,609.0
60.5959999999,584.0
60.5969999999,540.0
60.5979999999,495.0
60.5989999999,507.0
60.5999999999,540.0
60.6009999999,592.0
60.6019999999,570.0
60.6029999999,601.0
60.6039999999,569.0
60.6049999999,531.0
60.6059999999,491.0
60.6069999999,501.0
60.6079999999,545.0
60.6089999999,602.0
60.6099999999,605.0
60.6109999999,602.0
60.6119999999,567.0
60.6129999999,532.0
60.6139999999,500.0
60.6149999999,510.0
60.6159999999,558.0
60.6169999999,629.0
60.6179999999,610.0
60.6189999999,580.0
60.6199999999,553.0
60.6209999999,535.0
60.6219999999,504.0
60.6229999999,515.0
60.6239999999,560.0
60.6249999999,624.0
60.6259999999,586.0
60.6269999999,551.0
60.6279999999,538.0
60.6289999999,550.0
60.6299999999,528.0
60.6309999999,520.0
60.6319999999,567.0
60.6329999999,624.0
60.6339999999,589.0
60.6349999999,552.0
60.6359999999,552.0
60.6369999999,577.0
60.6379999999,549.0
60.6389999999,531.0
60.6399999999,577.0
60.6409999999,625.0
60.6419999999,588.0
60.6429999999,536.0
60.6439999999,578.0
60.6449999999,641.0
60.6459999999,597.0
60.6469999999,536.0
60.6479999999,582.0
60.6489999999,615.0
60.6499999999,599.0
60.6509999999,550.0
60.6519999999,551.0
60.6529999999,576.0
60.6539999999,540.0
60.6549999999,533.0
60.6559999999,623.0
60.6569999999,620.0
60.6579999999,575.0
60.6589999999,532.0
60.6599999999,556.0
60.6609999999,606.0
60.6619999999,543.0
60.6629999999,537.0
60.6639999999,622.0
60.6649999999,630.0
60.6659999999,612.0
60.6669999999,559.0
60.6679999999,550.0
60.6689999999,566.0
60.6699999999,529.0
60.6709999999,569.0
60.6719999999,637.0
60.6729999999,646.0
60.6739999999,635.0
60.6749999999,584.0
60.6759999999,560.0
60.6769999999,562.0
60.6779999999,548.0
60.6789999999,607.0
60.6799999999,632.0
60.6809999999,650.0
60.6819999999,628.0
60.6829999999,579.0
60.6839999999,556.0
60.6849999999,558.0
60.6859999999,559.0
60.6869999999,617.0
60.6879999999,614.0
60.6889999999,637.0
60.6899999999,607.0
60.6909999999,561.0
60.6919999999,548.0
60.6929999999,552.0
60.6939999999,565.0
60.6949999999,618.0
60.6959999999,617.0
60.6969999999,619.0
60.6979999999,587.0
60.6989999999,544.0
60.6999999999,539.0
60.7009999999,549.0
60.7019999999,565.0
60.7029999999,597.0
60.7039999999,614.0
60.7049999999,607.0
60.7059999999,576.0
60.7069999999,535.0
60.7079999999,543.0
60.7089999999,541.0
60.7099999999,574.0
60.7109999999,577.0
60.7119999999,615.0
60.7129999999,598.0
60.7139999999,559.0
60.7149999999,523.0
60.7159999999,536.0
60.7169999999,545.0
60.7179999999,578.0
60.7189999999,559.0
60.7199999999,624.0
60.7209999999,581.0
60.7219999999,536.0
60.7229999999,510.0
60.7239999999,533.0
60.7249999999,544.0
60.7259999999,569.0
60.7269999999,533.0
60.7279999999,607.0
60.7289999999,572.0
60.7299999999,519.0
60.7309999999,505.0
60.7319999999,535.0
60.7329999999,549.0
60.7339999999,559.0
60.7349999999,532.0
60.7359999999,603.0
60.7369999999,568.0
60.7379999999,517.0
60.7389999999,509.0
60.7399999999,530.0
60.7409999999,557.0
60.7419999999,546.0
60.7429999999,551.0
60.7439999999,592.0
60.7449999999,546.0
60.7459999999,494.0
60.7469999999,509.0
60.7479999999,535.0
60.7489999999,559.0
60.7499999999,529.0
60.7509999999,552.0
60.7519999999,575.0
60.7529999999,546.0
60.7539999999,496.0
60.7549999999,517.0
60.7559999999,538.0
60.7569999999,567.0
60.7579999999,530.0
60.7589999999,553.0
60.7599999999,558.0
60.7609999999,556.0
60.7619999999,509.0
60.7629999999,546.0
60.7639999999,543.0
60.7649999999,588.0
60.7659999999,581.0
60.7669999999,568.0
60.7679999999,549.0
60.7689999999,564.0
60.7699999999,525.0
60.7709999999,537.0
60.7719999999,545.0
60.7729999999,603.0
60.7739999999,552.0
60.7749999999,541.0
60.7759999999,589.0
60.7769999999,806.0
60.7779999999,756.0
60.7789999999,689.0
60.7799999999,569.0
60.7809999999,587.0
60.7819999999,542.0
60.7829999999,529.0
60.7839999999,628.0
60.7849999999,920.0
60.7859999999,826.0
60.7869999999,692.0
60.7879999999,539.0
60.7889999999,559.0
60.7899999999,504.0
60.7909999999,554.0
60.7919999999,795.0
60.7929999999,1005.0
60.7939999999,949.0
60.7949999999,746.0
60.7959999999,504.0
60.7969999999,497.0
60.7979999999,477.0
60.7989999999,520.0
60.7999999999,873.0
60.8009999999,1014.0
60.8019999999,965.0
60.8029999999,688.0
60.8039999999,458.0
60.8049999999,442.0
60.8059999999,452.0
60.8069999999,463.0
60.8079999999,815.0
60.8089999999,1012.0
60.8099999999,875.0
60.8109999999,530.0
60.8119999999,403.0
60.8129999999,410.0
60.8139999999,368.0
60.8149999999,371.0
60.8159999999,632.0
60.8169999999,928.0
60.8179999999,667.0
60.8189999999,400.0
60.8199999999,398.0
60.8209999999,425.0
60.8219999999,387.0
60.8229999999,345.0
60.8239999999,393.0
60.8249999999,499.0
60.8259999999,393.0
60.8269999999,382.0
60.8279999999,469.0
60.8289999999,495.0
60.8299999999,442.0
60.8309999999,394.0
60.8319999999,414.0
60.8329999999,471.0
60.8339999999,412.0
60.8349999999,442.0
60.8359999999,513.0
60.8369999999,539.0
60.8379999999,517.0
60.8389999999,465.0
60.8399999999,455.0
60.8409999999,473.0
60.8419999999,464.0
60.8429999999,525.0
60.8439999999,543.0
60.8449999999,566.0
60.8459999999,511.0
60.8469999999,465.0
60.8479999999,467.0
60.8489999999,494.0
60.8499999999,487.0
60.8509999999,545.0
60.8519999999,559.0
60.8529999999,570.0
60.8539999999,512.0
60.8549999999,471.0
60.8559999999,484.0
60.8569999999,504.0
60.8579999999,508.0
60.8589999999,568.0
60.8599999999,567.0
60.8609999999,578.0
60.8619999999,537.0
60.8629999999,495.0
60.8639999999,504.0
60.8649999999,515.0
60.8659999999,538.0
60.8669999999,586.0
60.8679999999,593.0
60.8689999999,578.0
60.8699999999,532.0
60.8709999999,499.0
60.8719999999,507.0
60.8729999999,525.0
60.8739999999,562.0
60.8749999999,595.0
60.8759999999,617.0
60.8769999999,591.0
60.8779999999,545.0
60.8789999999,514.0
60.8799999999,524.0
60.8809999999,541.0
60.8819999999,584.0
60.8829999999,591.0
60.8839999999,623.0
60.8849999999,582.0
60.8859999999,532.0
60.8869999999,510.0
60.8879999999,522.0
60.8889999999,542.0
60.8899999999,583.0
60.8909999999,572.0
60.8919999999,605.0
60.8929999999,568.0
60.8939999999,517.0
60.8949999999,496.0
60.8959999999,523.0
60.8969999999,549.0
60.8979999999,591.0
60.8989999999,581.0
60.8999999999,605.0
60.9009999999,568.0
60.9019999999,519.0
60.9029999999,508.0
60.9039999999,527.0
60.9049999999,564.0
60.9059999999,592.0
60.9069999999,583.0
60.9079999999,592.0
60.9089999999,557.0
60.9099999999,507.0
60.9109999999,505.0
60.9119999999,529.0
60.9129999999,573.0
60.9139999999,588.0
60.9149999999,588.0
60.9159999999,580.0
60.9169999999,543.0
60.9179999999,497.0
60.9189999999,503.0
60.9199999999,529.0
60.9209999999,581.0
60.9219999999,608.0
60.9229999999,608.0
60.9239999999,572.0
60.9249999999,540.0
60.9259999999,495.0
60.9269999999,504.0
60.9279999999,532.0
60.9289999999,592.0
60.9299999999,595.0
60.9309999999,572.0
60.9319999999,544.0
60.9329999999,534.0
60.9339999999,509.0
60.9349999999,506.0
60.9359999999,529.0
60.9369999999,606.0
60.9379999999,601.0
60.9389999999,575.0
60.9399999999,549.0
60.9409999999,545.0
60.9419999999,517.0
60.9429999999,516.0
60.9439999999,547.0
60.9449999999,625.0
60.9459999999,607.0
60.9469999999,563.0
60.9479999999,541.0
60.9489999999,556.0
60.9499999999,535.0
60.9509999999,523.0
60.9519999999,553.0
60.9529999999,621.0
60.9539999999,583.0
60.9549999999,528.0
60.9559999999,562.0
60.9569999999,649.0
60.9579999999,621.0
60.9589999999,556.0
60.9599999999,544.0
60.9609999999,615.0
60.9619999999,587.0
60.9629999999,533.0
60.9639999999,554.0
60.9649999999,625.0
60.9659999999,586.0
60.9669999999,528.0
60.9679999999,572.0
60.9689999999,612.0
60.9699999999,568.0
60.9709999999,530.0
60.9719999999,564.0
60.9729999999,641.0
60.9739999999,588.0
60.9749999999,522.0
60.9759999999,590.0
60.9769999999,613.0
60.9779999999,611.0
60.9789999999,568.0
60.9799999999,545.0
60.9809999999,568.0
60.9819999999,530.0
60.9829999999,542.0
60.9839999999,627.0
60.9849999999,626.0
60.9859999999,624.0
60.9869999999,583.0
60.9879999999,555.0
60.9889999999,564.0
60.9899999999,533.0
60.9909999999,569.0
60.9919999999,638.0
60.9929999999,644.0
60.9939999999,636.0
60.9949999999,592.0
60.9959999999,565.0
60.9969999999,563.0
60.9979999999,550.0
60.9989999999,603.0
60.9999999999,630.0
61.0009999999,646.0
61.0019999999,611.0
61.0029999999,567.0
61.0039999999,548.0
61.0049999999,559.0
61.0059999999,542.0
61.0069999999,603.0
61.0079999999,621.0
61.0089999999,643.0
61.0099999999,602.0
61.0109999999,559.0
61.0119999999,543.0
61.0129999999,552.0
61.0139999999,555.0
61.0149999999,598.0
61.0159999999,617.0
61.0169999999,633.0
61.0179999999,602.0
61.0189999999,561.0
61.0199999999,550.0
61.0209999999,556.0
61.0219999999,574.0
61.0229999999,597.0
61.0239999999,625.0
61.0249999999,621.0
61.0259999999,584.0
61.0269999999,548.0
61.0279999999,546.0
61.0289999999,547.0
61.0299999999,571.0
61.0309999999,571.0
61.0319999999,612.0
61.0329999999,597.0
61.0339999999,554.0
61.0349999999,523.0
61.0359999999,537.0
61.0369999999,544.0
61.0379999999,576.0
61.0389999999,544.0
61.0399999999,613.0
61.0409999999,593.0
61.0419999999,536.0
61.0429999999,515.0
61.0439999999,541.0
61.0449999999,548.0
61.0459999999,573.0
61.0469999999,527.0
61.0479999999,626.0
61.0489999999,596.0
61.0499999999,544.0
61.0509999999,524.0
61.0519999999,547.0
61.0529999999,566.0
61.0539999999,583.0
61.0549999999,541.0
61.0559999999,619.0
61.0569999999,591.0
61.0579999999,535.0
61.0589999999,527.0
61.0599999999,545.0
61.0609999999,570.0
61.0619999999,555.0
61.0629999999,543.0
61.0639999999,607.0
61.0649999999,581.0
61.0659999999,527.0
61.0669999999,531.0
61.0679999999,544.0
61.0689999999,586.0
61.0699999999,570.0
61.0709999999,552.0
61.0719999999,586.0
61.0729999999,575.0
61.0739999999,526.0
61.0749999999,534.0
61.0759999999,543.0
61.0769999999,578.0
61.0779999999,572.0
61.0789999999,554.0
61.0799999999,571.0
61.0809999999,588.0
61.0819999999,544.0
61.0829999999,550.0
61.0839999999,550.0
61.0849999999,593.0
61.0859999999,587.0
61.0869999999,563.0
61.0879999999,557.0
61.0889999999,655.0
61.0899999999,630.0
61.0909999999,606.0
61.0919999999,556.0
61.0929999999,597.0
61.0939999999,592.0
61.0949999999,591.0
61.0959999999,664.0
61.0969999999,989.0
61.0979999999,969.0
61.0989999999,828.0
61.0999999999,603.0
61.1009999999,561.0
61.1019999999,521.0
61.1029999999,629.0
61.1039999999,796.0
61.1049999999,1011.0
61.1059999999,1007.0
61.1069999999,926.0
61.1079999999,572.0
61.1089999999,504.0
61.1099999999,460.0
61.1109999999,631.0
61.1119999999,950.0
61.1129999999,1012.0
61.1139999999,1011.0
61.1149999999,935.0
61.1159999999,515.0
61.1169999999,437.0
61.1179999999,416.0
61.1189999999,509.0
61.1199999999,909.0
61.1209999999,1012.0
61.1219999999,1002.0
61.1229999999,709.0
61.1239999999,398.0
61.1249999999,379.0
61.1259999999,351.0
61.1269999999,325.0
61.1279999999,518.0
61.1289999999,781.0
61.1299999999,655.0
61.1309999999,400.0
61.1319999999,353.0
61.1329999999,399.0
61.1339999999,372.0
61.1349999999,328.0
61.1359999999,417.0
61.1369999999,574.0
61.1379999999,466.0
61.1389999999,353.0
61.1399999999,422.0
61.1409999999,452.0
61.1419999999,449.0
61.1429999999,401.0
61.1439999999,395.0
61.1449999999,451.0
61.1459999999,403.0
61.1469999999,418.0
61.1479999999,505.0
61.1489999999,521.0
61.1499999999,521.0
61.1509999999,476.0
61.1519999999,447.0
61.1529999999,463.0
61.1539999999,446.0
61.1549999999,495.0
61.1559999999,538.0
61.1569999999,547.0
61.1579999999,534.0
61.1589999999,485.0
61.1599999999,464.0
61.1609999999,487.0
61.1619999999,475.0
61.1629999999,539.0
61.1639999999,562.0
61.1649999999,592.0
61.1659999999,553.0
61.1669999999,503.0
61.1679999999,484.0
61.1689999999,503.0
61.1699999999,503.0
61.1709999999,557.0
61.1719999999,565.0
61.1729999999,585.0
61.1739999999,535.0
61.1749999999,488.0
61.1759999999,485.0
61.1769999999,518.0
61.1779999999,522.0
61.1789999999,576.0
61.1799999999,586.0
61.1809999999,594.0
61.1819999999,552.0
61.1829999999,504.0
61.1839999999,509.0
61.1849999999,528.0
61.1859999999,545.0
61.1869999999,598.0
61.1879999999,602.0
61.1889999999,598.0
61.1899999999,554.0
61.1909999999,511.0
61.1919999999,517.0
61.1929999999,540.0
61.1939999999,570.0
61.1949999999,608.0
61.1959999999,629.0
61.1969999999,611.0
61.1979999999,562.0
61.1989999999,523.0
61.1999999999,523.0
61.2009999999,551.0
61.2019999999,595.0
61.2029999999,592.0
61.2039999999,631.0
61.2049999999,595.0
61.2059999999,539.0
61.2069999999,506.0
61.2079999999,524.0
61.2089999999,551.0
61.2099999999,599.0
61.2109999999,595.0
61.2119999999,632.0
61.2129999999,593.0
61.2139999999,541.0
61.2149999999,511.0
61.2159999999,531.0
61.2169999999,567.0
61.2179999999,611.0
61.2189999999,589.0
61.2199999999,636.0
61.2209999999,603.0
61.2219999999,548.0
61.2229999999,528.0
61.2239999999,539.0
61.2249999999,586.0
61.2259999999,627.0
61.2269999999,599.0
61.2279999999,611.0
61.2289999999,577.0
61.2299999999,524.0
61.2309999999,514.0
61.2319999999,534.0
61.2329999999,584.0
61.2339999999,625.0
61.2349999999,602.0
61.2359999999,598.0
61.2369999999,563.0
61.2379999999,516.0
61.2389999999,513.0
61.2399999999,534.0
61.2409999999,595.0
61.2419999999,611.0
61.2429999999,597.0
61.2439999999,581.0
61.2449999999,554.0
61.2459999999,513.0
61.2469999999,517.0
61.2479999999,535.0
61.2489999999,606.0
61.2499999999,631.0
61.2509999999,611.0
61.2519999999,573.0
61.2529999999,558.0
61.2539999999,525.0
61.2549999999,525.0
61.2559999999,546.0
61.2569999999,621.0
61.2579999999,620.0
61.2589999999,585.0
61.2599999999,560.0
61.2609999999,564.0
61.2619999999,542.0
61.2629999999,536.0
61.2639999999,546.0
61.2649999999,630.0
61.2659999999,621.0
61.2669999999,583.0
61.2679999999,556.0
61.2689999999,574.0
61.2699999999,552.0
61.2709999999,538.0
61.2719999999,556.0
61.2729999999,636.0
61.2739999999,604.0
61.2749999999,552.0
61.2759999999,555.0
61.2769999999,632.0
61.2779999999,621.0
61.2789999999,562.0
61.2799999999,548.0
61.2809999999,624.0
61.2819999999,628.0
61.2829999999,574.0
61.2839999999,547.0
61.2849999999,584.0
61.2859999999,559.0
61.2869999999,531.0
61.2879999999,584.0
61.2889999999,637.0
61.2899999999,617.0
61.2909999999,568.0
61.2919999999,544.0
61.2929999999,591.0
61.2939999999,560.0
61.2949999999,534.0
61.2959999999,605.0
61.2969999999,639.0
61.2979999999,630.0
61.2989999999,591.0
61.2999999999,557.0
61.3009999999,577.0
61.3019999999,547.0
61.3029999999,553.0
61.3039999999,636.0
61.3049999999,645.0
61.3059999999,656.0
61.3069999999,618.0
61.3079999999,574.0
61.3089999999,579.0
61.3099999999,558.0
61.3109999999,591.0
61.3119999999,650.0
61.3129999999,647.0
61.3139999999,636.0
61.3149999999,600.0
61.3159999999,562.0
61.3169999999,578.0
61.3179999999,556.0
61.3189999999,602.0
61.3199999999,646.0
61.3209999999,663.0
61.3219999999,638.0
61.3229999999,598.0
61.3239999999,565.0
61.3249999999,574.0
61.3259999999,570.0
61.3269999999,612.0
61.3279999999,632.0
61.3289999999,658.0
61.3299999999,619.0
61.3309999999,584.0
61.3319999999,557.0
61.3329999999,561.0
61.3339999999,572.0
61.3349999999,600.0
61.3359999999,611.0
61.3369999999,637.0
61.3379999999,604.0
61.3389999999,565.0
61.3399999999,546.0
61.3409999999,554.0
61.3419999999,568.0
61.3429999999,580.0
61.3439999999,611.0
61.3449999999,627.0
61.3459999999,588.0
61.3469999999,553.0
61.3479999999,541.0
61.3489999999,552.0
61.3499999999,574.0
61.3509999999,561.0
61.3519999999,595.0
61.3529999999,615.0
61.3539999999,573.0
61.3549999999,541.0
61.3559999999,537.0
61.3569999999,550.0
61.3579999999,584.0
61.3589999999,543.0
61.3599999999,600.0
61.3609999999,602.0
61.3619999999,545.0
61.3629999999,519.0
61.3639999999,530.0
61.3649999999,549.0
61.3659999999,583.0
61.3669999999,533.0
61.3679999999,614.0
61.3689999999,595.0
61.3699999999,540.0
61.3709999999,518.0
61.3719999999,537.0
61.3729999999,561.0
61.3739999999,581.0
61.3749999999,533.0
61.3759999999,613.0
61.3769999999,586.0
61.3779999999,531.0
61.3789999999,515.0
61.3799999999,533.0
61.3809999999,569.0
61.3819999999,581.0
61.3829999999,542.0
61.3839999999,585.0
61.3849999999,566.0
61.3859999999,519.0
61.3869999999,519.0
61.3879999999,535.0
61.3889999999,565.0
61.3899999999,579.0
61.3909999999,546.0
61.3919999999,564.0
61.3929999999,573.0
61.3939999999,544.0
61.3949999999,546.0
61.3959999999,550.0
61.3969999999,571.0
61.3979999999,612.0
61.3989999999,561.0
61.3999999999,555.0
61.4009999999,595.0
61.4019999999,574.0
61.4029999999,572.0
61.4039999999,557.0
61.4049999999,583.0
61.4059999999,597.0
61.4069999999,577.0
61.4079999999,589.0
61.4089999999,831.0
61.4099999999,927.0
61.4109999999,789.0
61.4119999999,630.0
61.4129999999,573.0
61.4139999999,577.0
61.4149999999,565.0
61.4159999999,589.0
61.4169999999,898.0
61.4179999999,974.0
61.4189999999,790.0
61.4199999999,588.0
61.4209999999,533.0
61.4219999999,516.0
61.4229999999,609.0
61.4239999999,715.0
61.4249999999,1013.0
61.4259999999,1012.0
61.4269999999,907.0
61.4279999999,578.0
61.4289999999,491.0
61.4299999999,462.0
61.4309999999,512.0
61.4319999999,666.0
61.4329999999,1011.0
61.4339999999,1001.0
61.4349999999,780.0
61.4359999999,472.0
61.4369999999,446.0
61.4379999999,423.0
61.4389999999,407.0
61.4399999999,578.0
61.4409999999,914.0
61.4419999999,867.0
61.4429999999,572.0
61.4439999999,396.0
61.4449999999,449.0
61.4459999999,432.0
61.4469999999,362.0
61.4479999999,435.0
61.4489999999,624.0
61.4499999999,582.0
61.4509999999,413.0
61.4519999999,420.0
61.4529999999,486.0
61.4539999999,489.0
61.4549999999,430.0
61.4559999999,405.0
61.4569999999,483.0
61.4579999999,457.0
61.4589999999,423.0
61.4599999999,498.0
61.4609999999,522.0
61.4619999999,526.0
61.4629999999,476.0
61.4639999999,443.0
61.4649999999,472.0
61.4659999999,460.0
61.4669999999,483.0
61.4679999999,544.0
61.4689999999,556.0
61.4699999999,570.0
61.4709999999,525.0
61.4719999999,486.0
61.4729999999,503.0
61.4739999999,492.0
61.4749999999,539.0
61.4759999999,593.0
61.4769999999,597.0
61.4779999999,564.0
61.4789999999,516.0
61.4799999999,489.0
61.4809999999,512.0
61.4819999999,507.0
61.4829999999,558.0
61.4839999999,592.0
61.4849999999,611.0
61.4859999999,564.0
61.4869999999,511.0
61.4879999999,491.0
61.4889999999,518.0
61.4899999999,519.0
61.4909999999,573.0
61.4919999999,587.0
61.4929999999,618.0
61.4939999999,575.0
61.4949999999,523.0
61.4959999999,507.0
61.4969999999,534.0
61.4979999999,542.0
61.4989999999,594.0
61.4999999999,603.0
61.5009999999,622.0
61.5019999999,584.0
61.5029999999,535.0
61.5039999999,523.0
61.5049999999,545.0
61.5059999999,562.0
61.5069999999,612.0
61.5079999999,610.0
61.5089999999,619.0
61.5099999999,578.0
61.5109999999,531.0
61.5119999999,527.0
61.5129999999,547.0
61.5139999999,577.0
61.5149999999,609.0
61.5159999999,620.0
61.5169999999,610.0
61.5179999999,565.0
61.5189999999,521.0
61.5199999999,528.0
61.5209999999,554.0
61.5219999999,582.0
61.5229999999,597.0
61.5239999999,627.0
61.5249999999,602.0
61.5259999999,548.0
61.5269999999,511.0
61.5279999999,524.0
61.5289999999,556.0
61.5299999999,597.0
61.5309999999,592.0
61.5319999999,628.0
61.5329999999,588.0
61.5339999999,536.0
61.5349999999,503.0
61.5359999999,523.0
61.5369999999,565.0
61.5379999999,609.0
61.5389999999,587.0
61.5399999999,624.0
61.5409999999,592.0
61.5419999999,538.0
61.5429999999,514.0
61.5439999999,530.0
61.5449999999,575.0
61.5459999999,608.0
61.5469999999,579.0
61.5479999999,607.0
61.5489999999,573.0
61.5499999999,524.0
61.5509999999,508.0
61.5519999999,527.0
61.5529999999,579.0
61.5539999999,636.0
61.5549999999,606.0
61.5559999999,592.0
61.5569999999,564.0
61.5579999999,519.0
61.5589999999,516.0
61.5599999999,530.0
61.5609999999,584.0
61.5619999999,628.0
61.5629999999,585.0
61.5639999999,564.0
61.5649999999,550.0
61.5659999999,522.0
61.5669999999,532.0
61.5679999999,536.0
61.5689999999,591.0
61.5699999999,619.0
61.5709999999,594.0
61.5719999999,561.0
61.5729999999,555.0
61.5739999999,536.0
61.5749999999,538.0
61.5759999999,538.0
61.5769999999,604.0
61.5779999999,622.0
61.5789999999,586.0
61.5799999999,549.0
61.5809999999,561.0
61.5819999999,563.0
61.5829999999,556.0
61.5839999999,542.0
61.5849999999,620.0
61.5859999999,608.0
61.5869999999,559.0
61.5879999999,532.0
61.5889999999,607.0
61.5899999999,631.0
61.5909999999,595.0
61.5919999999,540.0
61.5929999999,614.0
61.5939999999,634.0
61.5949999999,570.0
61.5959999999,531.0
61.5969999999,573.0
61.5979999999,578.0
61.5989999999,545.0
61.5999999999,549.0
61.6009999999,642.0
61.6019999999,637.0
61.6029999999,585.0
61.6039999999,540.0
61.6049999999,558.0
61.6059999999,555.0
61.6069999999,532.0
61.6079999999,584.0
61.6089999999,638.0
61.6099999999,658.0
61.6109999999,620.0
61.6119999999,568.0
61.6129999999,564.0
61.6139999999,553.0
61.6149999999,551.0
61.6159999999,619.0
61.6169999999,627.0
61.6179999999,655.0
61.6189999999,629.0
61.6199999999,580.0
61.6209999999,565.0
61.6219999999,553.0
61.6229999999,571.0
61.6239999999,634.0
61.6249999999,624.0
61.6259999999,629.0
61.6269999999,601.0
61.6279999999,555.0
61.6289999999,560.0
61.6299999999,547.0
61.6309999999,571.0
61.6319999999,635.0
61.6329999999,643.0
61.6339999999,630.0
61.6349999999,597.0
61.6359999999,555.0
61.6369999999,558.0
61.6379999999,554.0
61.6389999999,590.0
61.6399999999,632.0
61.6409999999,640.0
61.6419999999,611.0
61.6429999999,577.0
61.6439999999,541.0
61.6449999999,558.0
61.6459999999,552.0
61.6469999999,590.0
61.6479999999,610.0
61.6489999999,639.0
61.6499999999,598.0
61.6509999999,562.0
61.6519999999,534.0
61.6529999999,552.0
61.6539999999,554.0
61.6549999999,584.0
61.6559999999,587.0
61.6569999999,630.0
61.6579999999,581.0
61.6589999999,542.0
61.6599999999,525.0
61.6609999999,547.0
61.6619999999,548.0
61.6629999999,563.0
61.6639999999,569.0
61.6649999999,609.0
61.6659999999,569.0
61.6669999999,528.0
61.6679999999,525.0
61.6689999999,547.0
61.6699999999,559.0
61.6709999999,550.0
61.6719999999,572.0
61.6729999999,617.0
61.6739999999,573.0
61.6749999999,538.0
61.6759999999,536.0
61.6769999999,548.0
61.6779999999,579.0
61.6789999999,547.0
61.6799999999,592.0
61.6809999999,607.0
61.6819999999,558.0
61.6829999999,525.0
61.6839999999,532.0
61.6849999999,550.0
61.6859999999,583.0
61.6869999999,536.0
61.6879999999,600.0
61.6889999999,599.0
61.6899999999,547.0
61.6909999999,524.0
61.6919999999,537.0
61.6929999999,559.0
61.6939999999,589.0
61.6949999999,533.0
61.6959999999,593.0
61.6969999999,576.0
61.6979999999,534.0
61.6989999999,519.0
61.6999999999,537.0
61.7009999999,562.0
61.7019999999,596.0
61.7029999999,547.0
61.7039999999,578.0
61.7049999999,567.0
61.7059999999,549.0
61.7069999999,534.0
61.7079999999,550.0
61.7089999999,566.0
61.7099999999,609.0
61.7109999999,557.0
61.7119999999,558.0
61.7129999999,575.0
61.7139999999,589.0
61.7149999999,565.0
61.7159999999,559.0
61.7169999999,563.0
61.7179999999,624.0
61.7189999999,560.0
61.7199999999,550.0
61.7209999999,682.0
61.7219999999,818.0
61.7229999999,733.0
61.7239999999,631.0
61.7249999999,549.0
61.7259999999,594.0
61.7269999999,550.0
61.7279999999,546.0
61.7289999999,796.0
61.7299999999,984.0
61.7309999999,825.0
61.7319999999,637.0
61.7329999999,535.0
61.7339999999,543.0
61.7349999999,568.0
61.7359999999,576.0
61.7369999999,954.0
61.7379999999,1016.0
61.7389999999,918.0
61.7399999999,634.0
61.7409999999,493.0
61.7419999999,484.0
61.7429999999,525.0
61.7439999999,570.0
61.7449999999,1010.0
61.7459999999,1009.0
61.7469999999,868.0
61.7479999999,533.0
61.7489999999,445.0
61.7499999999,440.0
61.7509999999,508.0
61.7519999999,615.0
61.7529999999,1013.0
61.7539999999,1012.0
61.7549999999,897.0
61.7559999999,483.0
61.7569999999,404.0
61.7579999999,410.0
61.7589999999,337.0
61.7599999999,360.0
61.7609999999,545.0
61.7619999999,619.0
61.7629999999,424.0
61.7639999999,352.0
61.7649999999,440.0
61.7659999999,466.0
61.7669999999,383.0
61.7679999999,368.0
61.7689999999,456.0
61.7699999999,496.0
61.7709999999,394.0
61.7719999999,425.0
61.7729999999,495.0
61.7739999999,525.0
61.7749999999,474.0
61.7759999999,433.0
61.7769999999,444.0
61.7779999999,449.0
61.7789999999,449.0
61.7799999999,515.0
61.7809999999,532.0
61.7819999999,553.0
61.7829999999,517.0
61.7839999999,476.0
61.7849999999,479.0
61.7859999999,473.0
61.7869999999,491.0
61.7879999999,558.0
61.7889999999,545.0
61.7899999999,541.0
61.7909999999,491.0
61.7919999999,464.0
61.7929999999,492.0
61.7939999999,488.0
61.7949999999,513.0
61.7959999999,575.0
61.7969999999,572.0
61.7979999999,571.0
61.7989999999,526.0
61.7999999999,493.0
61.8009999999,506.0
61.8019999999,506.0
61.8029999999,549.0
61.8039999999,589.0
61.8049999999,596.0
61.8059999999,571.0
61.8069999999,523.0
61.8079999999,500.0
61.8089999999,522.0
61.8099999999,523.0
61.8109999999,574.0
61.8119999999,593.0
61.8129999999,620.0
61.8139999999,579.0
61.8149999999,535.0
61.8159999999,510.0
61.8169999999,532.0
61.8179999999,542.0
61.8189999999,594.0
61.8199999999,591.0
61.8209999999,618.0
61.8219999999,574.0
61.8229999999,525.0
61.8239999999,512.0
61.8249999999,531.0
61.8259999999,553.0
61.8269999999,600.0
61.8279999999,596.0
61.8289999999,609.0
61.8299999999,570.0
61.8309999999,520.0
61.8319999999,517.0
61.8329999999,535.0
61.8339999999,566.0
61.8349999999,594.0
61.8359999999,601.0
61.8369999999,606.0
61.8379999999,566.0
61.8389999999,522.0
61.8399999999,519.0
61.8409999999,542.0
61.8419999999,578.0
61.8429999999,590.0
61.8439999999,607.0
61.8449999999,602.0
61.8459999999,555.0
61.8469999999,516.0
61.8479999999,521.0
61.8489999999,549.0
61.8499999999,594.0
61.8509999999,582.0
61.8519999999,613.0
61.8529999999,594.0
61.8539999999,547.0
61.8549999999,508.0
61.8559999999,519.0
61.8569999999,553.0
61.8579999999,601.0
61.8589999999,596.0
61.8599999999,621.0
61.8609999999,590.0
61.8619999999,544.0
61.8629999999,510.0
61.8639999999,522.0
61.8649999999,561.0
61.8659999999,622.0
61.8669999999,588.0
61.8679999999,580.0
61.8689999999,555.0
61.8699999999,528.0
61.8709999999,506.0
61.8719999999,512.0
61.8729999999,558.0
61.8739999999,614.0
61.8749999999,567.0
61.8759999999,561.0
61.8769999999,547.0
61.8779999999,542.0
61.8789999999,529.0
61.8799999999,518.0
61.8809999999,559.0
61.8819999999,635.0
61.8829999999,592.0
61.8839999999,569.0
61.8849999999,550.0
61.8859999999,550.0
61.8869999999,532.0
61.8879999999,523.0
61.8889999999,583.0
61.8899999999,631.0
61.8909999999,592.0
61.8919999999,555.0
61.8929999999,560.0
61.8939999999,576.0
61.8949999999,553.0
61.8959999999,525.0
61.8969999999,590.0
61.8979999999,617.0
61.8989999999,578.0
61.8999999999,541.0
61.9009999999,585.0
61.9019999999,634.0
61.9029999999,585.0
61.9039999999,529.0
61.9049999999,591.0
61.9059999999,618.0
61.9069999999,568.0
61.9079999999,539.0
61.9089999999,608.0
61.9099999999,675.0
61.9109999999,598.0
61.9119999999,528.0
61.9129999999,606.0
61.9139999999,618.0
61.9149999999,581.0
61.9159999999,541.0
61.9169999999,565.0
61.9179999999,600.0
61.9189999999,540.0
61.9199999999,541.0
61.9209999999,632.0
61.9219999999,641.0
61.9229999999,590.0
61.9239999999,545.0
61.9249999999,561.0
61.9259999999,578.0
61.9269999999,529.0
61.9279999999,571.0
61.9289999999,635.0
61.9299999999,666.0
61.9309999999,627.0
61.9319999999,576.0
61.9329999999,563.0
61.9339999999,567.0
61.9349999999,547.0
61.9359999999,609.0
61.9369999999,637.0
61.9379999999,665.0
61.9389999999,643.0
61.9399999999,598.0
61.9409999999,573.0
61.9419999999,567.0
61.9429999999,561.0
61.9439999999,623.0
61.9449999999,629.0
61.9459999999,638.0
61.9469999999,602.0
61.9479999999,557.0
61.9489999999,556.0
61.9499999999,548.0
61.9509999999,560.0
61.9519999999,622.0
61.9529999999,636.0
61.9539999999,636.0
61.9549999999,609.0
61.9559999999,570.0
61.9569999999,561.0
61.9579999999,555.0
61.9589999999,585.0
61.9599999999,619.0
61.9609999999,623.0
61.9619999999,606.0
61.9629999999,575.0
61.9639999999,537.0
61.9649999999,548.0
61.9659999999,549.0
61.9669999999,583.0
61.9679999999,595.0
61.9689999999,637.0
61.9699999999,605.0
61.9709999999,564.0
61.9719999999,533.0
61.9729999999,548.0
61.9739999999,555.0
61.9749999999,589.0
61.9759999999,565.0
61.9769999999,631.0
61.9779999999,595.0
61.9789999999,556.0
61.9799999999,529.0
61.9809999999,542.0
61.9819999999,556.0
61.9829999999,574.0
61.9839999999,559.0
61.9849999999,614.0
61.9859999999,577.0
61.9869999999,532.0
61.9879999999,518.0
61.9889999999,531.0
61.9899999999,556.0
61.9909999999,551.0
61.9919999999,551.0
61.9929999999,609.0
61.9939999999,576.0
61.9949999999,526.0
61.9959999999,524.0
61.9969999999,546.0
61.9979999999,570.0
61.9989999999,547.0
61.9999999999,576.0
62.0009999999,609.0
62.0019999999,571.0
62.0029999999,523.0
62.0039999999,528.0
62.0049999999,547.0
62.0059999999,584.0
62.0069999999,542.0
62.0079999999,575.0
62.0089999999,592.0
62.0099999999,565.0
62.0109999999,515.0
62.0119999999,530.0
62.0129999999,545.0
62.0139999999,593.0
62.0149999999,554.0
62.0159999999,585.0
62.0169999999,574.0
62.0179999999,564.0
62.0189999999,522.0
62.0199999999,537.0
62.0209999999,553.0
62.0219999999,610.0
62.0229999999,574.0
62.0239999999,569.0
62.0249999999,562.0
62.0259999999,605.0
62.0269999999,554.0
62.0279999999,556.0
62.0289999999,551.0
62.0299999999,608.0
62.0309999999,584.0
62.0319999999,557.0
62.0329999999,596.0
62.0339999999,746.0
62.0349999999,661.0
62.0359999999,611.0
62.0369999999,551.0
62.0379999999,614.0
62.0389999999,562.0
62.0399999999,577.0
62.0409999999,718.0
62.0419999999,1002.0
62.0429999999,860.0
62.0439999999,708.0
62.0449999999,535.0
62.0459999999,562.0
62.0469999999,528.0
62.0479999999,589.0
62.0489999999,888.0
62.0499999999,1007.0
62.0509999999,923.0
62.0519999999,703.0
62.0529999999,492.0
62.0539999999,496.0
62.0549999999,567.0
62.0559999999,663.0
62.0569999999,1017.0
62.0579999999,1016.0
62.0589999999,997.0
62.0599999999,720.0
62.0609999999,442.0
62.0619999999,438.0
62.0629999999,404.0
62.0639999999,399.0
62.0649999999,701.0
62.0659999999,993.0
62.0669999999,706.0
62.0679999999,428.0
62.0689999999,402.0
62.0699999999,437.0
62.0709999999,378.0
62.0719999999,373.0
62.0729999999,559.0
62.0739999999,723.0
62.0749999999,510.0
62.0759999999,367.0
62.0769999999,435.0
62.0779999999,467.0
62.0789999999,419.0
62.0799999999,381.0
62.0809999999,418.0
62.0819999999,488.0
62.0829999999,399.0
62.0839999999,414.0
62.0849999999,496.0
62.0859999999,535.0
62.0869999999,508.0
62.0879999999,461.0
62.0889999999,446.0
62.0899999999,461.0
62.0909999999,444.0
62.0919999999,501.0
62.0929999999,545.0
62.0939999999,572.0
62.0949999999,544.0
62.0959999999,498.0
62.0969999999,479.0
62.0979999999,485.0
62.0989999999,491.0
62.0999999999,550.0
62.1009999999,561.0
62.1019999999,576.0
62.1029999999,535.0
62.1039999999,495.0
62.1049999999,481.0
62.1059999999,493.0
62.1069999999,509.0
62.1079999999,569.0
62.1089999999,561.0
62.1099999999,569.0
62.1109999999,525.0
62.1119999999,483.0
62.1129999999,487.0
62.1139999999,496.0
62.1149999999,523.0
62.1159999999,571.0
62.1169999999,565.0
62.1179999999,558.0
62.1189999999,515.0
62.1199999999,477.0
62.1209999999,494.0
62.1219999999,506.0
62.1229999999,538.0
62.1239999999,572.0
62.1249999999,588.0
62.1259999999,573.0
62.1269999999,525.0
62.1279999999,491.0
62.1289999999,504.0
62.1299999999,517.0
62.1309999999,563.0
62.1319999999,584.0
62.1329999999,608.0
62.1339999999,578.0
62.1349999999,529.0
62.1359999999,497.0
62.1369999999,511.0
62.1379999999,530.0
62.1389999999,578.0
62.1399999999,566.0
62.1409999999,596.0
62.1419999999,556.0
62.1429999999,502.0
62.1439999999,480.0
62.1449999999,502.0
62.1459999999,530.0
62.1469999999,576.0
62.1479999999,569.0
62.1489999999,595.0
62.1499999999,559.0
62.1509999999,508.0
62.1519999999,491.0
62.1529999999,510.0
62.1539999999,547.0
62.1549999999,590.0
62.1559999999,579.0
62.1569999999,593.0
62.1579999999,558.0
62.1589999999,506.0
62.1599999999,493.0
62.1609999999,509.0
62.1619999999,559.0
62.1629999999,584.0
62.1639999999,585.0
62.1649999999,583.0
62.1659999999,543.0
62.1669999999,494.0
62.1679999999,495.0
62.1689999999,516.0
62.1699999999,567.0
62.1709999999,567.0
62.1719999999,579.0
62.1729999999,560.0
62.1739999999,521.0
62.1749999999,478.0
62.1759999999,487.0
62.1769999999,516.0
62.1779999999,569.0
62.1789999999,583.0
62.1799999999,588.0
62.1809999999,558.0
62.1819999999,521.0
62.1829999999,483.0
62.1839999999,488.0
62.1849999999,526.0
62.1859999999,585.0
62.1869999999,584.0
62.1879999999,559.0
62.1889999999,531.0
62.1899999999,518.0
62.1909999999,486.0
62.1919999999,490.0
62.1929999999,524.0
62.1939999999,595.0
62.1949999999,571.0
62.1959999999,546.0
62.1969999999,524.0
62.1979999999,540.0
62.1989999999,512.0
62.1999999999,506.0
62.2009999999,529.0
62.2019999999,598.0
62.2029999999,564.0
62.2039999999,532.0
62.2049999999,521.0
62.2059999999,560.0
62.2069999999,538.0
62.2079999999,511.0
62.2089999999,533.0
62.2099999999,601.0
62.2109999999,580.0
62.2119999999,519.0
62.2129999999,530.0
62.2139999999,585.0
62.2149999999,562.0
62.2159999999,513.0
62.2169999999,548.0
62.2179999999,596.0
62.2189999999,582.0
62.2199999999,533.0
62.2209999999,525.0
62.2219999999,571.0
62.2229999999,530.0
62.2239999999,507.0
62.2249999999,578.0
62.2259999999,606.0
62.2269999999,577.0
62.2279999999,528.0
62.2289999999,525.0
62.2299999999,564.0
62.2309999999,518.0
62.2319999999,513.0
62.2329999999,593.0
62.2339999999,605.0
62.2349999999,568.0
62.2359999999,529.0
62.2369999999,528.0
62.2379999999,558.0
62.2389999999,512.0
62.2399999999,524.0
62.2409999999,617.0
62.2419999999,622.0
62.2429999999,614.0
62.2439999999,569.0
62.2449999999,542.0
62.2459999999,548.0
62.2469999999,524.0
62.2479999999,571.0
62.2489999999,621.0
62.2499999999,632.0
62.2509999999,622.0
62.2519999999,576.0
62.2529999999,545.0
62.2539999999,550.0
62.2549999999,541.0
62.2559999999,598.0
62.2569999999,622.0
62.2579999999,639.0
62.2589999999,599.0
62.2599999999,556.0
62.2609999999,533.0
62.2619999999,542.0
62.2629999999,543.0
62.2639999999,591.0
62.2649999999,603.0
62.2659999999,622.0
62.2669999999,584.0
62.2679999999,545.0
62.2689999999,528.0
62.2699999999,535.0
62.2709999999,544.0
62.2719999999,580.0
62.2729999999,596.0
62.2739999999,605.0
62.2749999999,573.0
62.2759999999,535.0
62.2769999999,524.0
62.2779999999,533.0
62.2789999999,557.0
62.2799999999,573.0
62.2809999999,597.0
62.2819999999,599.0
62.2829999999,560.0
62.2839999999,525.0
62.2849999999,524.0
62.2859999999,535.0
62.2869999999,568.0
62.2879999999,556.0
62.2889999999,601.0
62.2899999999,575.0
62.2909999999,527.0
62.2919999999,499.0
62.2929999999,514.0
62.2939999999,530.0
62.2949999999,563.0
62.2959999999,522.0
62.2969999999,600.0
62.2979999999,563.0
62.2989999999,511.0
62.2999999999,491.0
62.3009999999,516.0
62.3019999999,536.0
62.3029999999,554.0
62.3039999999,517.0
62.3049999999,602.0
62.3059999999,572.0
62.3069999999,517.0
62.3079999999,502.0
62.3089999999,518.0
62.3099999999,546.0
62.3109999999,550.0
62.3119999999,526.0
62.3129999999,586.0
62.3139999999,556.0
62.3149999999,501.0
62.3159999999,502.0
62.3169999999,519.0
62.3179999999,551.0
62.3189999999,539.0
62.3199999999,525.0
62.3209999999,567.0
62.3219999999,547.0
62.3229999999,495.0
62.3239999999,504.0
62.3249999999,523.0
62.3259999999,556.0
62.3269999999,549.0
62.3279999999,536.0
62.3289999999,555.0
62.3299999999,549.0
62.3309999999,497.0
62.3319999999,511.0
62.3329999999,524.0
62.3339999999,564.0
62.3349999999,568.0
62.3359999999,538.0
62.3369999999,538.0
62.3379999999,559.0
62.3389999999,513.0
62.3399999999,523.0
62.3409999999,528.0
62.3419999999,569.0
62.3429999999,556.0
62.3439999999,540.0
62.3449999999,565.0
62.3459999999,795.0
62.3469999999,782.0
62.3479999999,703.0
62.3489999999,566.0
62.3499999999,557.0
62.3509999999,545.0
62.3519999999,539.0
62.3529999999,612.0
62.3539999999,975.0
62.3549999999,950.0
62.3559999999,806.0
62.3569999999,557.0
62.3579999999,524.0
62.3589999999,488.0
62.3599999999,529.0
62.3609999999,683.0
62.3619999999,1010.0
62.3629999999,963.0
62.3639999999,777.0
62.3649999999,496.0
62.3659999999,485.0
62.3669999999,439.0
62.3679999999,475.0
62.3689999999,716.0
62.3699999999,1010.0
62.3709999999,917.0
62.3719999999,662.0
62.3729999999,426.0
62.3739999999,454.0
62.3749999999,416.0
62.3759999999,411.0
62.3769999999,667.0
62.3779999999,995.0
62.3789999999,843.0
62.3799999999,527.0
62.3809999999,385.0
62.3819999999,428.0
62.3829999999,393.0
62.3839999999,343.0
62.3849999999,431.0
62.3859999999,618.0
62.3869999999,516.0
62.3879999999,380.0
62.3889999999,423.0
62.3899999999,461.0
62.3909999999,435.0
62.3919999999,389.0
62.3929999999,401.0
62.3939999999,474.0
62.3949999999,429.0
62.3959999999,404.0
62.3969999999,486.0
62.3979999999,502.0
62.3989999999,474.0
62.3999999999,425.0
62.4009999999,421.0
62.4019999999,488.0
62.4029999999,440.0
62.4039999999,450.0
62.4049999999,526.0
62.4059999999,549.0
62.4069999999,540.0
62.4079999999,489.0
62.4089999999,461.0
62.4099999999,483.0
62.4109999999,469.0
62.4119999999,520.0
62.4129999999,556.0
62.4139999999,558.0
62.4149999999,519.0
62.4159999999,467.0
62.4169999999,464.0
62.4179999999,500.0
62.4189999999,481.0
62.4199999999,536.0
62.4209999999,557.0
62.4219999999,582.0
62.4229999999,532.0
62.4239999999,480.0
62.4249999999,476.0
62.4259999999,510.0
62.4269999999,503.0
62.4279999999,556.0
62.4289999999,574.0
62.4299999999,585.0
62.4309999999,539.0
62.4319999999,491.0
62.4329999999,487.0
62.4339999999,519.0
62.4349999999,526.0
62.4359999999,576.0
62.4369999999,584.0
62.4379999999,590.0
62.4389999999,550.0
62.4399999999,503.0
62.4409999999,502.0
62.4419999999,523.0
62.4429999999,549.0
62.4439999999,588.0
62.4449999999,605.0
62.4459999999,592.0
62.4469999999,552.0
62.4479999999,511.0
62.4489999999,514.0
62.4499999999,530.0
62.4509999999,568.0
62.4519999999,589.0
62.4529999999,612.0
62.4539999999,583.0
62.4549999999,534.0
62.4559999999,493.0
62.4569999999,508.0
62.4579999999,533.0
62.4589999999,570.0
62.4599999999,554.0
62.4609999999,605.0
62.4619999999,574.0
62.4629999999,519.0
62.4639999999,494.0
62.4649999999,507.0
62.4659999999,536.0
62.4669999999,571.0
62.4679999999,553.0
62.4689999999,607.0
62.4699999999,568.0
62.4709999999,512.0
62.4719999999,493.0
62.4729999999,509.0
62.4739999999,547.0
62.4749999999,571.0
62.4759999999,552.0
62.4769999999,594.0
62.4779999999,559.0
62.4789999999,507.0
62.4799999999,494.0
62.4809999999,510.0
62.4819999999,554.0
62.4829999999,610.0
62.4839999999,582.0
62.4849999999,585.0
62.4859999999,547.0
62.4869999999,501.0
62.4879999999,494.0
62.4889999999,513.0
62.4899999999,560.0
62.4909999999,598.0
62.4919999999,574.0
62.4929999999,569.0
62.4939999999,533.0
62.4949999999,490.0
62.4959999999,490.0
62.4969999999,512.0
62.4979999999,571.0
62.4989999999,583.0
62.4999999999,551.0
62.5009999999,525.0
62.5019999999,521.0
62.5029999999,503.0
62.5039999999,514.0
62.5049999999,514.0
62.5059999999,577.0
62.5069999999,595.0
62.5079999999,566.0
62.5089999999,537.0
62.5099999999,530.0
62.5109999999,510.0
62.5119999999,506.0
62.5129999999,522.0
62.5139999999,604.0
62.5149999999,592.0
62.5159999999,554.0
62.5169999999,525.0
62.5179999999,542.0
62.5189999999,527.0
62.5199999999,516.0
62.5209999999,529.0
62.5219999999,599.0
62.5229999999,592.0
62.5239999999,543.0
62.5249999999,516.0
62.5259999999,562.0
62.5269999999,551.0
62.5279999999,528.0
62.5289999999,535.0
62.5299999999,607.0
62.5309999999,583.0
62.5319999999,528.0
62.5329999999,512.0
62.5339999999,591.0
62.5349999999,569.0
62.5359999999,523.0
62.5369999999,539.0
62.5379999999,606.0
62.5389999999,609.0
62.5399999999,549.0
62.5409999999,515.0
62.5419999999,553.0
62.5429999999,529.0
62.5439999999,511.0
62.5449999999,571.0
62.5459999999,618.0
62.5469999999,614.0
62.5479999999,575.0
62.5489999999,533.0
62.5499999999,545.0
62.5509999999,522.0
62.5519999999,532.0
62.5529999999,607.0
62.5539999999,623.0
62.5549999999,622.0
62.5559999999,589.0
62.5569999999,547.0
62.5579999999,541.0
62.5589999999,521.0
62.5599999999,544.0
62.5609999999,616.0
62.5619999999,624.0
62.5629999999,630.0
62.5639999999,599.0
62.5649999999,556.0
62.5659999999,551.0
62.5669999999,538.0
62.5679999999,578.0
62.5689999999,618.0
62.5699999999,631.0
62.5709999999,616.0
62.5719999999,584.0
62.5729999999,548.0
62.5739999999,548.0
62.5749999999,534.0
62.5759999999,577.0
62.5769999999,607.0
62.5779999999,624.0
62.5789999999,589.0
62.5799999999,554.0
62.5809999999,525.0
62.5819999999,534.0
62.5829999999,534.0
62.5839999999,572.0
62.5849999999,579.0
62.5859999999,610.0
62.5869999999,564.0
62.5879999999,527.0
62.5889999999,508.0
62.5899999999,525.0
62.5909999999,535.0
62.5919999999,552.0
62.5929999999,567.0
62.5939999999,597.0
62.5949999999,562.0
62.5959999999,528.0
62.5969999999,516.0
62.5979999999,530.0
62.5989999999,547.0
62.5999999999,548.0
62.6009999999,575.0
62.6019999999,595.0
62.6029999999,557.0
62.6039999999,526.0
62.6049999999,522.0
62.6059999999,538.0
62.6069999999,565.0
62.6079999999,537.0
62.6089999999,584.0
62.6099999999,591.0
62.6109999999,542.0
62.6119999999,515.0
62.6129999999,520.0
62.6139999999,540.0
62.6149999999,573.0
62.6159999999,524.0
62.6169999999,597.0
62.6179999999,579.0
62.6189999999,528.0
62.6199999999,505.0
62.6209999999,527.0
62.6219999999,544.0
62.6229999999,563.0
62.6239999999,516.0
62.6249999999,604.0
62.6259999999,580.0
62.6269999999,525.0
62.6279999999,511.0
62.6289999999,531.0
62.6299999999,556.0
62.6309999999,581.0
62.6319999999,527.0
62.6329999999,590.0
62.6339999999,572.0
62.6349999999,525.0
62.6359999999,514.0
62.6369999999,532.0
62.6379999999,562.0
62.6389999999,585.0
62.6399999999,539.0
62.6409999999,569.0
62.6419999999,566.0
62.6429999999,529.0
62.6439999999,529.0
62.6449999999,536.0
62.6459999999,563.0
62.6469999999,600.0
62.6479999999,551.0
62.6489999999,555.0
62.6499999999,573.0
62.6509999999,559.0
62.6519999999,554.0
62.6529999999,542.0
62.6539999999,571.0
62.6549999999,614.0
62.6559999999,562.0
62.6569999999,550.0
62.6579999999,674.0
62.6589999999,708.0
62.6599999999,658.0
62.6609999999,575.0
62.6619999999,569.0
62.6629999999,569.0
62.6639999999,637.0
62.6649999999,752.0
62.6659999999,1012.0
62.6669999999,1011.0
62.6679999999,1007.0
62.6689999999,713.0
62.6699999999,542.0
62.6709999999,514.0
62.6719999999,566.0
62.6729999999,655.0
62.6739999999,1010.0
62.6749999999,1009.0
62.6759999999,881.0
62.6769999999,564.0
62.6779999999,482.0
62.6789999999,452.0
62.6799999999,583.0
62.6809999999,768.0
62.6819999999,1010.0
62.6829999999,1009.0
62.6839999999,916.0
62.6849999999,514.0
62.6859999999,439.0
62.6869999999,437.0
62.6879999999,364.0
62.6889999999,426.0
62.6899999999,636.0
62.6909999999,640.0
62.6919999999,451.0
62.6929999999,370.0
62.6939999999,462.0
62.6949999999,460.0
62.6959999999,383.0
62.6969999999,418.0
62.6979999999,567.0
62.6989999999,548.0
62.6999999999,408.0
62.7009999999,418.0
62.7019999999,498.0
62.7029999999,488.0
62.7039999999,425.0
62.7049999999,434.0
62.7059999999,529.0
62.7069999999,499.0
62.7079999999,428.0
62.7089999999,488.0
62.7099999999,517.0
62.7109999999,557.0
62.7119999999,512.0
62.7129999999,473.0
62.7139999999,491.0
62.7149999999,477.0
62.7159999999,498.0
62.7169999999,563.0
62.7179999999,565.0
62.7189999999,588.0
62.7199999999,549.0
62.7209999999,510.0
62.7219999999,517.0
62.7229999999,506.0
62.7239999999,547.0
62.7249999999,596.0
62.7259999999,585.0
62.7269999999,583.0
62.7279999999,540.0
62.7289999999,509.0
62.7299999999,530.0
62.7309999999,513.0
62.7319999999,561.0
62.7329999999,604.0
62.7339999999,605.0
62.7349999999,575.0
62.7359999999,523.0
62.7369999999,504.0
62.7379999999,532.0
62.7389999999,527.0
62.7399999999,577.0
62.7409999999,603.0
62.7419999999,623.0
62.7429999999,574.0
62.7439999999,522.0
62.7449999999,507.0
62.7459999999,532.0
62.7469999999,535.0
62.7479999999,584.0
62.7489999999,597.0
62.7499999999,620.0
62.7509999999,569.0
62.7519999999,519.0
62.7529999999,514.0
62.7539999999,538.0
62.7549999999,546.0
62.7559999999,602.0
62.7569999999,603.0
62.7579999999,618.0
62.7589999999,578.0
62.7599999999,527.0
62.7609999999,525.0
62.7619999999,547.0
62.7629999999,566.0
62.7639999999,604.0
62.7649999999,617.0
62.7659999999,614.0
62.7669999999,572.0
62.7679999999,528.0
62.7689999999,527.0
62.7699999999,546.0
62.7709999999,581.0
62.7719999999,615.0
62.7729999999,631.0
62.7739999999,616.0
62.7749999999,570.0
62.7759999999,531.0
62.7769999999,533.0
62.7779999999,554.0
62.7789999999,598.0
62.7799999999,586.0
62.7809999999,620.0
62.7819999999,587.0
62.7829999999,541.0
62.7839999999,508.0
62.7849999999,520.0
62.7859999999,546.0
62.7869999999,596.0
62.7879999999,593.0
62.7889999999,628.0
62.7899999999,593.0
62.7909999999,545.0
62.7919999999,514.0
62.7929999999,524.0
62.7939999999,563.0
62.7949999999,611.0
62.7959999999,575.0
62.7969999999,605.0
62.7979999999,576.0
62.7989999999,528.0
62.7999999999,504.0
62.8009999999,517.0
62.8019999999,563.0
62.8029999999,606.0
62.8039999999,574.0
62.8049999999,584.0
62.8059999999,557.0
62.8069999999,515.0
62.8079999999,501.0
62.8089999999,509.0
62.8099999999,564.0
62.8109999999,609.0
62.8119999999,580.0
62.8129999999,556.0
62.8139999999,541.0
62.8149999999,516.0
62.8159999999,508.0
62.8169999999,509.0
62.8179999999,551.0
62.8189999999,605.0
62.8199999999,574.0
62.8209999999,547.0
62.8219999999,538.0
62.8229999999,527.0
62.8239999999,521.0
62.8249999999,512.0
62.8259999999,572.0
62.8269999999,600.0
62.8279999999,568.0
62.8289999999,531.0
62.8299999999,554.0
62.8309999999,586.0
62.8319999999,564.0
62.8329999999,516.0
62.8339999999,589.0
62.8349999999,596.0
62.8359999999,548.0
62.8369999999,523.0
62.8379999999,609.0
62.8389999999,644.0
62.8399999999,602.0
62.8409999999,522.0
62.8419999999,594.0
62.8429999999,599.0
62.8439999999,551.0
62.8449999999,522.0
62.8459999999,566.0
62.8469999999,576.0
62.8479999999,536.0
62.8489999999,523.0
62.8499999999,606.0
62.8509999999,614.0
62.8519999999,554.0
62.8529999999,521.0
62.8539999999,571.0
62.8549999999,573.0
62.8559999999,523.0
62.8569999999,538.0
62.8579999999,619.0
62.8589999999,629.0
62.8599999999,581.0
62.8609999999,537.0
62.8619999999,555.0
62.8629999999,549.0
62.8639999999,521.0
62.8649999999,585.0
62.8659999999,626.0
62.8669999999,655.0
62.8679999999,628.0
62.8689999999,577.0
62.8699999999,564.0
62.8709999999,553.0
62.8719999999,560.0
62.8729999999,625.0
62.8739999999,623.0
62.8749999999,633.0
62.8759999999,601.0
62.8769999999,555.0
62.8779999999,556.0
62.8789999999,543.0
62.8799999999,555.0
62.8809999999,626.0
62.8819999999,633.0
62.8829999999,624.0
62.8839999999,593.0
62.8849999999,552.0
62.8859999999,557.0
62.8869999999,542.0
62.8879999999,569.0
62.8889999999,630.0
62.8899999999,632.0
62.8909999999,615.0
62.8919999999,581.0
62.8929999999,541.0
62.8939999999,552.0
62.8949999999,544.0
62.8959999999,584.0
62.8969999999,616.0
62.8979999999,631.0
62.8989999999,599.0
62.8999999999,569.0
62.9009999999,535.0
62.9019999999,543.0
62.9029999999,551.0
62.9039999999,586.0
62.9049999999,580.0
62.9059999999,637.0
62.9069999999,600.0
62.9079999999,564.0
62.9089999999,533.0
62.9099999999,548.0
62.9109999999,556.0
62.9119999999,581.0
62.9129999999,569.0
62.9139999999,621.0
62.9149999999,583.0
62.9159999999,545.0
62.9169999999,525.0
62.9179999999,536.0
62.9189999999,554.0
62.9199999999,561.0
62.9209999999,569.0
62.9219999999,615.0
62.9229999999,571.0
62.9239999999,534.0
62.9249999999,522.0
62.9259999999,541.0
62.9269999999,568.0
62.9279999999,552.0
62.9289999999,576.0
62.9299999999,594.0
62.9309999999,554.0
62.9319999999,516.0
62.9329999999,515.0
62.9339999999,536.0
62.9349999999,569.0
62.9359999999,536.0
62.9369999999,578.0
62.9379999999,592.0
62.9389999999,543.0
62.9399999999,505.0
62.9409999999,516.0
62.9419999999,537.0
62.9429999999,579.0
62.9439999999,528.0
62.9449999999,583.0
62.9459999999,576.0
62.9469999999,540.0
62.9479999999,498.0
62.9489999999,514.0
62.9499999999,541.0
62.9509999999,596.0
62.9519999999,541.0
62.9529999999,576.0
62.9539999999,566.0
62.9549999999,541.0
62.9559999999,509.0
62.9569999999,521.0
62.9579999999,546.0
62.9589999999,608.0
62.9599999999,570.0
62.9609999999,563.0
62.9619999999,562.0
62.9629999999,564.0
62.9639999999,529.0
62.9649999999,532.0
62.9659999999,554.0
62.9669999999,619.0
62.9679999999,560.0
62.9689999999,561.0
62.9699999999,666.0
62.9709999999,802.0
62.9719999999,707.0
62.9729999999,626.0
62.9739999999,548.0
62.9749999999,593.0
62.9759999999,549.0
62.9769999999,546.0
62.9779999999,722.0
62.9789999999,896.0
62.9799999999,759.0
62.9809999999,609.0
62.9819999999,537.0
62.9829999999,562.0
62.9839999999,643.0
62.9849999999,706.0
62.9859999999,1018.0
62.9869999999,1018.0
62.9879999999,1007.0
62.9889999999,763.0
62.9899999999,509.0
62.9909999999,485.0
62.9919999999,542.0
62.9929999999,589.0
62.9939999999,1004.0
62.9949999999,1011.0
62.9959999999,893.0
62.9969999999,555.0
62.9979999999,428.0
62.9989999999,444.0
62.9999999999,486.0
63.0009999999,571.0
63.0019999999,974.0
63.0029999999,1012.0
63.0039999999,805.0
63.0049999999,447.0
63.0059999999,407.0
63.0069999999,425.0
63.0079999999,357.0
63.0089999999,365.0
63.0099999999,527.0
63.0109999999,684.0
63.0119999999,460.0
63.0129999999,356.0
63.0139999999,444.0
63.0149999999,488.0
63.0159999999,415.0
63.0169999999,377.0
63.0179999999,419.0
63.0189999999,466.0
63.0199999999,394.0
63.0209999999,430.0
63.0219999999,502.0
63.0229999999,531.0
63.0239999999,451.0
63.0249999999,413.0
63.0259999999,444.0
63.0269999999,476.0
63.0279999999,437.0
63.0289999999,494.0
63.0299999999,529.0
63.0309999999,571.0
63.0319999999,539.0
63.0329999999,494.0
63.0339999999,485.0
63.0349999999,491.0
63.0359999999,510.0
63.0369999999,572.0
63.0379999999,561.0
63.0389999999,572.0
63.0399999999,533.0
63.0409999999,495.0
63.0419999999,501.0
63.0429999999,504.0
63.0439999999,532.0
63.0449999999,588.0
63.0459999999,585.0
63.0469999999,585.0
63.0479999999,544.0
63.0489999999,508.0
63.0499999999,516.0
63.0509999999,517.0
63.0519999999,555.0
63.0529999999,601.0
63.0539999999,614.0
63.0549999999,589.0
63.0559999999,543.0
63.0569999999,512.0
63.0579999999,528.0
63.0589999999,532.0
63.0599999999,582.0
63.0609999999,603.0
63.0619999999,623.0
63.0629999999,575.0
63.0639999999,522.0
63.0649999999,500.0
63.0659999999,530.0
63.0669999999,539.0
63.0679999999,585.0
63.0689999999,591.0
63.0699999999,625.0
63.0709999999,580.0
63.0719999999,526.0
63.0729999999,510.0
63.0739999999,538.0
63.0749999999,559.0
63.0759999999,597.0
63.0769999999,600.0
63.0779999999,632.0
63.0789999999,597.0
63.0799999999,540.0
63.0809999999,532.0
63.0819999999,551.0
63.0829999999,581.0
63.0839999999,614.0
63.0849999999,608.0
63.0859999999,619.0
63.0869999999,583.0
63.0879999999,533.0
63.0889999999,532.0
63.0899999999,552.0
63.0909999999,590.0
63.0919999999,617.0
63.0929999999,621.0
63.0939999999,620.0
63.0949999999,580.0
63.0959999999,532.0
63.0969999999,535.0
63.0979999999,558.0
63.0989999999,605.0
63.0999999999,597.0
63.1009999999,619.0
63.1019999999,606.0
63.1029999999,564.0
63.1039999999,519.0
63.1049999999,530.0
63.1059999999,559.0
63.1069999999,608.0
63.1079999999,623.0
63.1089999999,637.0
63.1099999999,595.0
63.1109999999,558.0
63.1119999999,515.0
63.1129999999,527.0
63.1139999999,565.0
63.1149999999,626.0
63.1159999999,619.0
63.1169999999,613.0
63.1179999999,581.0
63.1189999999,551.0
63.1199999999,514.0
63.1209999999,524.0
63.1219999999,569.0
63.1229999999,634.0
63.1239999999,596.0
63.1249999999,574.0
63.1259999999,554.0
63.1269999999,552.0
63.1279999999,533.0
63.1289999999,532.0
63.1299999999,567.0
63.1309999999,636.0
63.1319999999,603.0
63.1329999999,574.0
63.1339999999,555.0
63.1349999999,564.0
63.1359999999,542.0
63.1369999999,535.0
63.1379999999,580.0
63.1389999999,633.0
63.1399999999,604.0
63.1409999999,558.0
63.1419999999,562.0
63.1429999999,594.0
63.1439999999,566.0
63.1449999999,545.0
63.1459999999,584.0
63.1469999999,624.0
63.1479999999,600.0
63.1489999999,547.0
63.1499999999,579.0
63.1509999999,638.0
63.1519999999,599.0
63.1529999999,553.0
63.1539999999,607.0
63.1549999999,638.0
63.1559999999,605.0
63.1569999999,560.0
63.1579999999,562.0
63.1589999999,595.0
63.1599999999,556.0
63.1609999999,552.0
63.1619999999,632.0
63.1629999999,653.0
63.1639999999,628.0
63.1649999999,582.0
63.1659999999,565.0
63.1669999999,578.0
63.1679999999,549.0
63.1689999999,572.0
63.1699999999,649.0
63.1709999999,652.0
63.1719999999,632.0
63.1729999999,583.0
63.1739999999,560.0
63.1749999999,579.0
63.1759999999,549.0
63.1769999999,593.0
63.1779999999,656.0
63.1789999999,678.0
63.1799999999,656.0
63.1809999999,609.0
63.1819999999,581.0
63.1829999999,583.0
63.1839999999,576.0
63.1849999999,631.0
63.1859999999,656.0
63.1869999999,668.0
63.1879999999,649.0
63.1889999999,602.0
63.1899999999,581.0
63.1909999999,580.0
63.1919999999,579.0
63.1929999999,641.0
63.1939999999,643.0
63.1949999999,651.0
63.1959999999,620.0
63.1969999999,580.0
63.1979999999,560.0
63.1989999999,569.0
63.1999999999,580.0
63.2009999999,629.0
63.2019999999,634.0
63.2029999999,644.0
63.2039999999,617.0
63.2049999999,576.0
63.2059999999,568.0
63.2069999999,571.0
63.2079999999,594.0
63.2089999999,621.0
63.2099999999,623.0
63.2109999999,615.0
63.2119999999,578.0
63.2129999999,541.0
63.2139999999,548.0
63.2149999999,555.0
63.2159999999,583.0
63.2169999999,591.0
63.2179999999,634.0
63.2189999999,611.0
63.2199999999,569.0
63.2209999999,538.0
63.2219999999,552.0
63.2229999999,560.0
63.2239999999,591.0
63.2249999999,567.0
63.2259999999,641.0
63.2269999999,620.0
63.2279999999,575.0
63.2289999999,549.0
63.2299999999,562.0
63.2309999999,576.0
63.2319999999,602.0
63.2329999999,558.0
63.2339999999,641.0
63.2349999999,610.0
63.2359999999,564.0
63.2369999999,543.0
63.2379999999,559.0
63.2389999999,583.0
63.2399999999,598.0
63.2409999999,562.0
63.2419999999,612.0
63.2429999999,578.0
63.2439999999,524.0
63.2449999999,526.0
63.2459999999,554.0
63.2469999999,577.0
63.2479999999,563.0
63.2489999999,564.0
63.2499999999,610.0
63.2509999999,582.0
63.2519999999,527.0
63.2529999999,535.0
63.2539999999,559.0
63.2549999999,593.0
63.2559999999,581.0
63.2569999999,574.0
63.2579999999,604.0
63.2589999999,575.0
63.2599999999,526.0
63.2609999999,540.0
63.2619999999,564.0
63.2629999999,606.0
63.2639999999,581.0
63.2649999999,581.0
63.2659999999,585.0
63.2669999999,577.0
63.2679999999,529.0
63.2689999999,549.0
63.2699999999,565.0
63.2709999999,617.0
63.2719999999,584.0
63.2729999999,579.0
63.2739999999,567.0
63.2749999999,611.0
63.2759999999,572.0
63.2769999999,576.0
63.2779999999,570.0
63.2789999999,622.0
63.2799999999,608.0
63.2809999999,577.0
63.2819999999,614.0
63.2829999999,814.0
63.2839999999,766.0
63.2849999999,691.0
63.2859999999,583.0
63.2869999999,602.0
63.2879999999,558.0
63.2889999999,639.0
63.2899999999,802.0
63.2909999999,1011.0
63.2919999999,992.0
63.2929999999,855.0
63.2939999999,587.0
63.2949999999,552.0
63.2959999999,504.0
63.2969999999,589.0
63.2979999999,862.0
63.2989999999,1009.0
63.2999999999,994.0
63.3009999999,779.0
63.3019999999,517.0
63.3029999999,494.0
63.3039999999,492.0
63.3049999999,585.0
63.3059999999,987.0
63.3069999999,1017.0
63.3079999999,1001.0
63.3089999999,727.0
63.3099999999,450.0
63.3109999999,443.0
63.3119999999,402.0
63.3129999999,370.0
63.3139999999,536.0
63.3149999999,836.0
63.3159999999,661.0
63.3169999999,429.0
63.3179999999,417.0
63.3189999999,445.0
63.3199999999,406.0
63.3209999999,373.0
63.3219999999,465.0
63.3229999999,622.0
63.3239999999,493.0
63.3249999999,399.0
63.3259999999,468.0
63.3269999999,479.0
63.3279999999,441.0
63.3289999999,406.0
63.3299999999,463.0
63.3309999999,572.0
63.3319999999,470.0
63.3329999999,434.0
63.3339999999,528.0
63.3349999999,545.0
63.3359999999,536.0
63.3369999999,486.0
63.3379999999,469.0
63.3389999999,498.0
63.3399999999,476.0
63.3409999999,523.0
63.3419999999,566.0
63.3429999999,587.0
63.3439999999,569.0
63.3449999999,520.0
63.3459999999,499.0
63.3469999999,519.0
63.3479999999,517.0
63.3489999999,573.0
63.3499999999,582.0
63.3509999999,612.0
63.3519999999,574.0
63.3529999999,525.0
63.3539999999,511.0
63.3549999999,524.0
63.3559999999,537.0
63.3569999999,594.0
63.3579999999,592.0
63.3589999999,611.0
63.3599999999,574.0
63.3609999999,528.0
63.3619999999,521.0
63.3629999999,538.0
63.3639999999,550.0
63.3649999999,603.0
63.3659999999,608.0
63.3669999999,611.0
63.3679999999,572.0
63.3689999999,529.0
63.3699999999,532.0
63.3709999999,542.0
63.3719999999,573.0
63.3729999999,614.0
63.3739999999,621.0
63.3749999999,591.0
63.3759999999,543.0
63.3769999999,510.0
63.3779999999,526.0
63.3789999999,547.0
63.3799999999,578.0
63.3809999999,608.0
63.3819999999,630.0
63.3829999999,596.0
63.3839999999,543.0
63.3849999999,515.0
63.3859999999,533.0
63.3869999999,553.0
63.3879999999,595.0
63.3889999999,595.0
63.3899999999,641.0
63.3909999999,604.0
63.3919999999,552.0
63.3929999999,525.0
63.3939999999,541.0
63.3949999999,569.0
63.3959999999,608.0
63.3969999999,604.0
63.3979999999,637.0
63.3989999999,601.0
63.3999999999,552.0
63.4009999999,531.0
63.4019999999,546.0
63.4029999999,580.0
63.4039999999,622.0
63.4049999999,602.0
63.4059999999,628.0
63.4069999999,590.0
63.4079999999,541.0
63.4089999999,530.0
63.4099999999,547.0
63.4109999999,586.0
63.4119999999,636.0
63.4129999999,614.0
63.4139999999,620.0
63.4149999999,583.0
63.4159999999,537.0
63.4169999999,529.0
63.4179999999,544.0
63.4189999999,593.0
63.4199999999,598.0
63.4209999999,591.0
63.4219999999,589.0
63.4229999999,556.0
63.4239999999,515.0
63.4249999999,523.0
63.4259999999,539.0
63.4269999999,599.0
63.4279999999,635.0
63.4289999999,610.0
63.4299999999,586.0
63.4309999999,552.0
63.4319999999,520.0
63.4329999999,524.0
63.4339999999,546.0
63.4349999999,608.0
63.4359999999,621.0
63.4369999999,594.0
63.4379999999,560.0
63.4389999999,556.0
63.4399999999,534.0
63.4409999999,537.0
63.4419999999,558.0
63.4429999999,621.0
63.4439999999,614.0
63.4449999999,584.0
63.4459999999,556.0
63.4469999999,570.0
63.4479999999,552.0
63.4489999999,546.0
63.4499999999,557.0
63.4509999999,633.0
63.4519999999,611.0
63.4529999999,576.0
63.4539999999,549.0
63.4549999999,585.0
63.4559999999,568.0
63.4569999999,551.0
63.4579999999,559.0
63.4589999999,636.0
63.4599999999,611.0
63.4609999999,563.0
63.4619999999,547.0
63.4629999999,617.0
63.4639999999,591.0
63.4649999999,560.0
63.4659999999,568.0
63.4669999999,645.0
63.4679999999,638.0
63.4689999999,579.0
63.4699999999,553.0
63.4709999999,585.0
63.4719999999,559.0
63.4729999999,542.0
63.4739999999,599.0
63.4749999999,640.0
63.4759999999,614.0
63.4769999999,569.0
63.4779999999,554.0
63.4789999999,598.0
63.4799999999,559.0
63.4809999999,548.0
63.4819999999,614.0
63.4829999999,653.0
63.4839999999,659.0
63.4849999999,622.0
63.4859999999,583.0
63.4869999999,587.0
63.4879999999,564.0
63.4889999999,591.0
63.4899999999,650.0
63.4909999999,654.0
63.4919999999,663.0
63.4929999999,630.0
63.4939999999,589.0
63.4949999999,579.0
63.4959999999,564.0
63.4969999999,601.0
63.4979999999,649.0
63.4989999999,659.0
63.4999999999,635.0
63.5009999999,597.0
63.5019999999,569.0
63.5029999999,577.0
63.5039999999,557.0
63.5049999999,604.0
63.5059999999,641.0
63.5069999999,661.0
63.5079999999,629.0
63.5089999999,593.0
63.5099999999,567.0
63.5109999999,577.0
63.5119999999,574.0
63.5129999999,612.0
63.5139999999,624.0
63.5149999999,657.0
63.5159999999,625.0
63.5169999999,590.0
63.5179999999,564.0
63.5189999999,576.0
63.5199999999,583.0
63.5209999999,606.0
63.5219999999,609.0
63.5229999999,642.0
63.5239999999,609.0
63.5249999999,573.0
63.5259999999,558.0
63.5269999999,568.0
63.5279999999,588.0
63.5289999999,592.0
63.5299999999,617.0
63.5309999999,624.0
63.5319999999,585.0
63.5329999999,552.0
63.5339999999,548.0
63.5349999999,559.0
63.5359999999,586.0
63.5369999999,575.0
63.5379999999,618.0
63.5389999999,618.0
63.5399999999,575.0
63.5409999999,546.0
63.5419999999,550.0
63.5429999999,566.0
63.5439999999,599.0
63.5449999999,554.0
63.5459999999,619.0
63.5469999999,605.0
63.5479999999,555.0
63.5489999999,532.0
63.5499999999,544.0
63.5509999999,567.0
63.5519999999,590.0
63.5529999999,539.0
63.5539999999,630.0
63.5549999999,606.0
63.5559999999,546.0
63.5569999999,534.0
63.5579999999,551.0
63.5589999999,568.0
63.5599999999,589.0
63.5609999999,545.0
63.5619999999,618.0
63.5629999999,600.0
63.5639999999,543.0
63.5649999999,531.0
63.5659999999,550.0
63.5669999999,579.0
63.5679999999,596.0
63.5689999999,553.0
63.5699999999,600.0
63.5709999999,590.0
63.5719999999,544.0
63.5729999999,540.0
63.5739999999,550.0
63.5749999999,581.0
63.5759999999,641.0
63.5769999999,574.0
63.5779999999,584.0
63.5789999999,592.0
63.5799999999,552.0
63.5809999999,548.0
63.5819999999,554.0
63.5829999999,591.0
63.5839999999,629.0
63.5849999999,575.0
63.5859999999,566.0
63.5869999999,614.0
63.5879999999,594.0
63.5889999999,581.0
63.5899999999,554.0
63.5909999999,598.0
63.5919999999,614.0
63.5929999999,580.0
63.5939999999,601.0
63.5949999999,802.0
63.5959999999,843.0
63.5969999999,720.0
63.5979999999,586.0
63.5989999999,585.0
63.5999999999,579.0
63.6009999999,627.0
63.6019999999,701.0
63.6029999999,1009.0
63.6039999999,993.0
63.6049999999,829.0
63.6059999999,591.0
63.6069999999,546.0
63.6079999999,523.0
63.6089999999,679.0
63.6099999999,841.0
63.6109999999,1014.0
63.6119999999,1008.0
63.6129999999,920.0
63.6139999999,561.0
63.6149999999,488.0
63.6159999999,461.0
63.6169999999,516.0
63.6179999999,721.0
63.6189999999,1013.0
63.6199999999,986.0
63.6209999999,700.0
63.6219999999,433.0
63.6229999999,463.0
63.6239999999,426.0
63.6249999999,416.0
63.6259999999,592.0
63.6269999999,943.0
63.6279999999,872.0
63.6289999999,540.0
63.6299999999,392.0
63.6309999999,461.0
63.6319999999,464.0
63.6329999999,399.0
63.6339999999,391.0
63.6349999999,467.0
63.6359999999,435.0
63.6369999999,391.0
63.6379999999,455.0
63.6389999999,498.0
63.6399999999,491.0
63.6409999999,439.0
63.6419999999,427.0
63.6429999999,487.0
63.6439999999,453.0
63.6449999999,444.0
63.6459999999,523.0
63.6469999999,543.0
63.6479999999,566.0
63.6489999999,522.0
63.6499999999,488.0
63.6509999999,492.0
63.6519999999,481.0
63.6529999999,520.0
63.6539999999,583.0
63.6549999999,584.0
63.6559999999,573.0
63.6569999999,527.0
63.6579999999,498.0
63.6589999999,514.0
63.6599999999,504.0
63.6609999999,555.0
63.6619999999,600.0
63.6629999999,608.0
63.6639999999,576.0
63.6649999999,528.0
63.6659999999,506.0
63.6669999999,529.0
63.6679999999,522.0
63.6689999999,579.0
63.6699999999,598.0
63.6709999999,616.0
63.6719999999,577.0
63.6729999999,527.0
63.6739999999,510.0
63.6749999999,536.0
63.6759999999,533.0
63.6769999999,587.0
63.6779999999,603.0
63.6789999999,630.0
63.6799999999,592.0
63.6809999999,544.0
63.6819999999,526.0
63.6829999999,544.0
63.6839999999,560.0
63.6849999999,613.0
63.6859999999,611.0
63.6869999999,622.0
63.6879999999,582.0
63.6889999999,535.0
63.6899999999,526.0
63.6909999999,548.0
63.6919999999,571.0
63.6929999999,610.0
63.6939999999,623.0
63.6949999999,617.0
63.6959999999,570.0
63.6969999999,528.0
63.6979999999,531.0
63.6989999999,553.0
63.6999999999,587.0
63.7009999999,610.0
63.7019999999,626.0
63.7029999999,612.0
63.7039999999,567.0
63.7049999999,527.0
63.7059999999,533.0
63.7069999999,559.0
63.7079999999,601.0
63.7089999999,599.0
63.7099999999,645.0
63.7109999999,617.0
63.7119999999,566.0
63.7129999999,533.0
63.7139999999,538.0
63.7149999999,570.0
63.7159999999,614.0
63.7169999999,595.0
63.7179999999,635.0
63.7189999999,600.0
63.7199999999,552.0
63.7209999999,523.0
63.7219999999,536.0
63.7229999999,574.0
63.7239999999,617.0
63.7249999999,604.0
63.7259999999,635.0
63.7269999999,601.0
63.7279999999,551.0
63.7289999999,529.0
63.7299999999,541.0
63.7309999999,591.0
63.7319999999,651.0
63.7329999999,629.0
63.7339999999,626.0
63.7349999999,593.0
63.7359999999,547.0
63.7369999999,528.0
63.7379999999,544.0
63.7389999999,598.0
63.7399999999,640.0
63.7409999999,604.0
63.7419999999,591.0
63.7429999999,569.0
63.7439999999,531.0
63.7449999999,526.0
63.7459999999,535.0
63.7469999999,593.0
63.7479999999,640.0
63.7489999999,612.0
63.7499999999,591.0
63.7509999999,564.0
63.7519999999,540.0
63.7529999999,531.0
63.7539999999,542.0
63.7549999999,606.0
63.7559999999,625.0
63.7569999999,593.0
63.7579999999,560.0
63.7589999999,569.0
63.7599999999,568.0
63.7609999999,555.0
63.7619999999,544.0
63.7629999999,614.0
63.7639999999,624.0
63.7649999999,576.0
63.7659999999,547.0
63.7669999999,605.0
63.7679999999,625.0
63.7689999999,602.0
63.7699999999,546.0
63.7709999999,612.0
63.7719999999,619.0
63.7729999999,565.0
63.7739999999,547.0
63.7749999999,641.0
63.7759999999,663.0
63.7769999999,611.0
63.7779999999,543.0
63.7789999999,624.0
63.7799999999,621.0
63.7809999999,572.0
63.7819999999,541.0
63.7829999999,591.0
63.7839999999,602.0
63.7849999999,550.0
63.7859999999,555.0
63.7869999999,634.0
63.7879999999,662.0
63.7889999999,626.0
63.7899999999,570.0
63.7909999999,566.0
63.7919999999,558.0
63.7929999999,546.0
63.7939999999,612.0
63.7949999999,638.0
63.7959999999,667.0
63.7969999999,638.0
63.7979999999,589.0
63.7989999999,576.0
63.7999999999,565.0
63.8009999999,572.0
63.8019999999,633.0
63.8029999999,647.0
63.8039999999,667.0
63.8049999999,645.0
63.8059999999,599.0
63.8069999999,581.0
63.8079999999,570.0
63.8089999999,591.0
63.8099999999,647.0
63.8109999999,651.0
63.8119999999,640.0
63.8129999999,611.0
63.8139999999,570.0
63.8149999999,562.0
63.8159999999,557.0
63.8169999999,589.0
63.8179999999,641.0
63.8189999999,636.0
63.8199999999,620.0
63.8209999999,589.0
63.8219999999,550.0
63.8229999999,557.0
63.8239999999,555.0
63.8249999999,594.0
63.8259999999,622.0
63.8269999999,643.0
63.8279999999,617.0
63.8289999999,583.0
63.8299999999,551.0
63.8309999999,559.0
63.8319999999,560.0
63.8329999999,598.0
63.8339999999,605.0
63.8349999999,650.0
63.8359999999,609.0
63.8369999999,574.0
63.8379999999,546.0
63.8389999999,560.0
63.8399999999,571.0
63.8409999999,591.0
63.8419999999,582.0
63.8429999999,626.0
63.8439999999,580.0
63.8449999999,543.0
63.8459999999,532.0
63.8469999999,556.0
63.8479999999,562.0
63.8489999999,567.0
63.8499999999,577.0
63.8509999999,612.0
63.8519999999,565.0
63.8529999999,526.0
63.8539999999,528.0
63.8549999999,558.0
63.8559999999,573.0
63.8569999999,564.0
63.8579999999,595.0
63.8589999999,621.0
63.8599999999,578.0
63.8609999999,539.0
63.8619999999,541.0
63.8629999999,563.0
63.8639999999,594.0
63.8649999999,563.0
63.8659999999,612.0
63.8669999999,618.0
63.8679999999,569.0
63.8689999999,536.0
63.8699999999,545.0
63.8709999999,565.0
63.8719999999,604.0
63.8729999999,559.0
63.8739999999,614.0
63.8749999999,606.0
63.8759999999,560.0
63.8769999999,527.0
63.8779999999,542.0
63.8789999999,572.0
63.8799999999,616.0
63.8809999999,575.0
63.8819999999,606.0
63.8829999999,587.0
63.8839999999,559.0
63.8849999999,532.0
63.8859999999,546.0
63.8869999999,570.0
63.8879999999,633.0
63.8889999999,577.0
63.8899999999,592.0
63.8909999999,584.0
63.8919999999,568.0
63.8929999999,539.0
63.8939999999,549.0
63.8949999999,580.0
63.8959999999,641.0
63.8969999999,593.0
63.8979999999,568.0
63.8989999999,603.0
63.8999999999,661.0
63.9009999999,611.0
63.9019999999,578.0
63.9029999999,577.0
63.9039999999,644.0
63.9049999999,590.0
63.9059999999,608.0
63.9069999999,810.0
63.9079999999,989.0
63.9089999999,836.0
63.9099999999,678.0
63.9109999999,566.0
63.9119999999,584.0
63.9129999999,571.0
63.9139999999,609.0
63.9149999999,935.0
63.9159999999,1009.0
63.9169999999,891.0
63.9179999999,653.0
63.9189999999,524.0
63.9199999999,532.0
63.9209999999,554.0
63.9219999999,580.0
63.9229999999,951.0
63.9239999999,1010.0
63.9249999999,871.0
63.9259999999,573.0
63.9269999999,482.0
63.9279999999,488.0
63.9289999999,496.0
63.9299999999,534.0
63.9309999999,899.0
63.9319999999,993.0
63.9329999999,743.0
63.9339999999,471.0
63.9349999999,460.0
63.9359999999,481.0
63.9369999999,406.0
63.9379999999,399.0
63.9389999999,539.0
63.9399999999,630.0
63.9409999999,459.0
63.9419999999,406.0
63.9429999999,486.0
63.9439999999,514.0
63.9449999999,430.0
63.9459999999,413.0
63.9469999999,503.0
63.9479999999,538.0
63.9489999999,432.0
63.9499999999,451.0
63.9509999999,523.0
63.9519999999,557.0
63.9529999999,514.0
63.9539999999,467.0
63.9549999999,473.0
63.9559999999,486.0
63.9569999999,474.0
63.9579999999,537.0
63.9589999999,555.0
63.9599999999,591.0
63.9609999999,551.0
63.9619999999,509.0
63.9629999999,501.0
63.9639999999,504.0
63.9649999999,521.0
63.9659999999,581.0
63.9669999999,576.0
63.9679999999,589.0
63.9689999999,550.0
63.9699999999,511.0
63.9709999999,512.0
63.9719999999,511.0
63.9729999999,541.0
63.9739999999,597.0
63.9749999999,594.0
63.9759999999,584.0
63.9769999999,538.0
63.9779999999,505.0
63.9789999999,519.0
63.9799999999,521.0
63.9809999999,560.0
63.9819999999,605.0
63.9829999999,605.0
63.9839999999,586.0
63.9849999999,540.0
63.9859999999,511.0
63.9869999999,528.0
63.9879999999,533.0
63.9889999999,581.0
63.9899999999,606.0
63.9909999999,619.0
63.9919999999,583.0
63.9929999999,528.0
63.9939999999,507.0
63.9949999999,533.0
63.9959999999,538.0
63.9969999999,593.0
63.9979999999,605.0
63.9989999999,635.0
63.9999999999,597.0
64.0009999999,550.0
64.0019999999,526.0
64.0029999999,541.0
64.0039999999,564.0
64.0049999999,620.0
64.0059999999,603.0
64.0069999999,628.0
64.0079999999,591.0
64.0089999999,542.0
64.0099999999,528.0
64.0109999999,543.0
64.0119999999,572.0
64.0129999999,618.0
64.0139999999,620.0
64.0149999999,616.0
64.0159999999,580.0
64.0169999999,532.0
64.0179999999,523.0
64.0189999999,545.0
64.0199999999,580.0
64.0209999999,615.0
64.0219999999,618.0
64.0229999999,612.0
64.0239999999,571.0
64.0249999999,524.0
64.0259999999,522.0
64.0269999999,551.0
64.0279999999,592.0
64.0289999999,600.0
64.0299999999,616.0
64.0309999999,597.0
64.0319999999,557.0
64.0329999999,511.0
64.0339999999,522.0
64.0349999999,553.0
64.0359999999,600.0
64.0369999999,614.0
64.0379999999,632.0
64.0389999999,589.0
64.0399999999,550.0
64.0409999999,511.0
64.0419999999,527.0
64.0429999999,561.0
64.0439999999,620.0
64.0449999999,593.0
64.0459999999,600.0
64.0469999999,571.0
64.0479999999,540.0
64.0489999999,509.0
64.0499999999,522.0
64.0509999999,562.0
64.0519999999,622.0
64.0529999999,606.0
64.0539999999,583.0
64.0549999999,559.0
64.0559999999,545.0
64.0569999999,524.0
64.0579999999,533.0
64.0589999999,567.0
64.0599999999,628.0
64.0609999999,594.0
64.0619999999,563.0
64.0629999999,551.0
64.0639999999,563.0
64.0649999999,547.0
64.0659999999,535.0
64.0669999999,571.0
64.0679999999,629.0
64.0689999999,596.0
64.0699999999,560.0
64.0709999999,558.0
64.0719999999,580.0
64.0729999999,559.0
64.0739999999,540.0
64.0749999999,584.0
64.0759999999,629.0
64.0769999999,593.0
64.0779999999,544.0
64.0789999999,579.0
64.0799999999,644.0
64.0809999999,635.0
64.0819999999,559.0
64.0829999999,592.0
64.0839999999,639.0
64.0849999999,607.0
64.0859999999,562.0
64.0869999999,564.0
64.0879999999,597.0
64.0889999999,560.0
64.0899999999,548.0
64.0909999999,622.0
64.0919999999,648.0
64.0929999999,611.0
64.0939999999,565.0
64.0949999999,556.0
64.0959999999,583.0
64.0969999999,546.0
64.0979999999,567.0
64.0989999999,647.0
64.0999999999,659.0
64.1009999999,625.0
64.1019999999,579.0
64.1029999999,561.0
64.1039999999,575.0
64.1049999999,548.0
64.1059999999,590.0
64.1069999999,643.0
64.1079999999,670.0
64.1089999999,662.0
64.1099999999,617.0
64.1109999999,589.0
64.1119999999,588.0
64.1129999999,580.0
64.1139999999,633.0
64.1149999999,659.0
64.1159999999,675.0
64.1169999999,652.0
64.1179999999,609.0
64.1189999999,579.0
64.1199999999,583.0
64.1209999999,586.0
64.1219999999,640.0
64.1229999999,652.0
64.1239999999,667.0
64.1249999999,638.0
64.1259999999,596.0
64.1269999999,576.0
64.1279999999,577.0
64.1289999999,593.0
64.1299999999,638.0
64.1309999999,650.0
64.1319999999,647.0
64.1329999999,620.0
64.1339999999,579.0
64.1349999999,566.0
64.1359999999,568.0
64.1369999999,590.0
64.1379999999,625.0
64.1389999999,645.0
64.1399999999,631.0
64.1409999999,604.0
64.1419999999,566.0
64.1429999999,561.0
64.1439999999,565.0
64.1449999999,601.0
64.1459999999,603.0
64.1469999999,633.0
64.1479999999,613.0
64.1489999999,578.0
64.1499999999,547.0
64.1509999999,548.0
64.1519999999,560.0
64.1529999999,597.0
64.1539999999,569.0
64.1549999999,632.0
64.1559999999,609.0
64.1569999999,571.0
64.1579999999,542.0
64.1589999999,548.0
64.1599999999,567.0
64.1609999999,596.0
64.1619999999,553.0
64.1629999999,629.0
64.1639999999,599.0
64.1649999999,558.0
64.1659999999,538.0
64.1669999999,547.0
64.1679999999,573.0
64.1689999999,585.0
64.1699999999,551.0
64.1709999999,604.0
64.1719999999,572.0
64.1729999999,521.0
64.1739999999,524.0
64.1749999999,543.0
64.1759999999,571.0
64.1769999999,570.0
64.1779999999,562.0
64.1789999999,602.0
64.1799999999,571.0
64.1809999999,521.0
64.1819999999,526.0
64.1829999999,546.0
64.1839999999,583.0
64.1849999999,557.0
64.1859999999,558.0
64.1869999999,580.0
64.1879999999,564.0
64.1889999999,514.0
64.1899999999,534.0
64.1909999999,552.0
64.1919999999,587.0
64.1929999999,567.0
64.1939999999,569.0
64.1949999999,568.0
64.1959999999,577.0
64.1969999999,535.0
64.1979999999,556.0
64.1989999999,563.0
64.1999999999,598.0
64.2009999999,586.0
64.2019999999,575.0
64.2029999999,563.0
64.2039999999,627.0
64.2049999999,599.0
64.2059999999,598.0
64.2069999999,573.0
64.2079999999,608.0
64.2089999999,573.0
64.2099999999,581.0
64.2109999999,648.0
64.2119999999,921.0
64.2129999999,914.0
64.2139999999,805.0
64.2149999999,615.0
64.2159999999,586.0
64.2169999999,547.0
64.2179999999,560.0
64.2189999999,673.0
64.2199999999,1020.0
64.2209999999,933.0
64.2219999999,769.0
64.2229999999,558.0
64.2239999999,546.0
64.2249999999,503.0
64.2259999999,643.0
64.2269999999,948.0
64.2279999999,1010.0
64.2289999999,1003.0
64.2299999999,858.0
64.2309999999,541.0
64.2319999999,488.0
64.2329999999,446.0
64.2339999999,468.0
64.2349999999,746.0
64.2359999999,1003.0
64.2369999999,845.0
64.2379999999,577.0
64.2389999999,426.0
64.2399999999,455.0
64.2409999999,445.0
64.2419999999,446.0
64.2429999999,740.0
64.2439999999,1006.0
64.2449999999,818.0
64.2459999999,497.0
64.2469999999,421.0
64.2479999999,448.0
64.2489999999,413.0
64.2499999999,369.0
64.2509999999,445.0
64.2519999999,572.0
64.2529999999,469.0
64.2539999999,394.0
64.2549999999,464.0
64.2559999999,491.0
64.2569999999,459.0
64.2579999999,416.0
64.2589999999,442.0
64.2599999999,521.0
64.2609999999,445.0
64.2619999999,441.0
64.2629999999,526.0
64.2639999999,543.0
64.2649999999,511.0
64.2659999999,460.0
64.2669999999,459.0
64.2679999999,499.0
64.2689999999,461.0
64.2699999999,499.0
64.2709999999,563.0
64.2719999999,589.0
64.2729999999,569.0
64.2739999999,519.0
64.2749999999,496.0
64.2759999999,509.0
64.2769999999,509.0
64.2779999999,568.0
64.2789999999,578.0
64.2799999999,601.0
64.2809999999,564.0
64.2819999999,516.0
64.2829999999,501.0
64.2839999999,519.0
64.2849999999,528.0
64.2859999999,578.0
64.2869999999,583.0
64.2879999999,606.0
64.2889999999,574.0
64.2899999999,529.0
64.2909999999,516.0
64.2919999999,532.0
64.2929999999,547.0
64.2939999999,596.0
64.2949999999,600.0
64.2959999999,595.0
64.2969999999,553.0
64.2979999999,511.0
64.2989999999,515.0
64.2999999999,530.0
64.3009999999,558.0
64.3019999999,605.0
64.3029999999,616.0
64.3039999999,591.0
64.3049999999,550.0
64.3059999999,513.0
64.3069999999,524.0
64.3079999999,537.0
64.3089999999,574.0
64.3099999999,600.0
64.3109999999,620.0
64.3119999999,600.0
64.3129999999,552.0
64.3139999999,521.0
64.3149999999,532.0
64.3159999999,554.0
64.3169999999,596.0
64.3179999999,591.0
64.3189999999,631.0
64.3199999999,598.0
64.3209999999,550.0
64.3219999999,520.0
64.3229999999,531.0
64.3239999999,564.0
64.3249999999,607.0
64.3259999999,588.0
64.3269999999,634.0
64.3279999999,603.0
64.3289999999,550.0
64.3299999999,527.0
64.3309999999,540.0
64.3319999999,576.0
64.3329999999,615.0
64.3339999999,603.0
64.3349999999,627.0
64.3359999999,596.0
64.3369999999,549.0
64.3379999999,532.0
64.3389999999,546.0
64.3399999999,586.0
64.3409999999,598.0
64.3419999999,575.0
64.3429999999,600.0
64.3439999999,567.0
64.3449999999,520.0
64.3459999999,516.0
64.3469999999,526.0
64.3479999999,584.0
64.3489999999,629.0
64.3499999999,616.0
64.3509999999,608.0
64.3519999999,571.0
64.3529999999,526.0
64.3539999999,520.0
64.3549999999,542.0
64.3559999999,598.0
