35.289,552.0
35.29,582.0
35.291,601.0
35.292,607.0
35.293,599.0
35.294,652.0
35.295,621.0
35.296,610.0
35.297,557.0
35.298,590.0
35.299,598.0
35.3,616.0
35.301,592.0
35.302,656.0
35.303,610.0
35.304,673.0
35.305,580.0
35.306,606.0
35.307,597.0
35.308,663.0
35.309,598.0
35.31,622.0
35.311,620.0
35.312,675.0
35.313,596.0
35.314,609.0
35.315,595.0
35.316,631.0
35.317,638.0
35.318,602.0
35.319,667.0
35.32,779.0
35.321,636.0
35.322,625.0
35.323,588.0
35.324,608.0
35.325,676.0
35.326,686.0
35.327,897.0
35.328,987.0
35.329,760.0
35.33,653.0
35.331,564.0
35.332,565.0
35.333,912.0
35.334,971.0
35.335,1015.0
35.336,1010.0
35.337,864.0
35.338,670.0
35.339,546.0
35.34,483.0
35.341,1015.0
35.342,1013.0
35.343,1017.0
35.344,1013.0
35.345,979.0
35.346,710.0
35.347,477.0
35.348,374.0
35.349,947.0
35.35,1007.0
35.351,1018.0
35.352,1006.0
35.353,854.0
35.354,486.0
35.355,322.0
35.356,332.0
35.357,409.0
35.358,503.0
35.359,816.0
35.36,904.0
35.361,549.0
35.362,313.0
35.363,300.0
35.364,327.0
35.365,296.0
35.366,339.0
35.367,494.0
35.368,568.0
35.369,370.0
35.37,294.0
35.371,354.0
35.372,401.0
35.373,355.0
35.374,329.0
35.375,367.0
35.376,427.0
35.377,363.0
35.378,395.0
35.379,425.0
35.38,475.0
35.381,406.0
35.382,385.0
35.383,421.0
35.384,461.0
35.385,425.0
35.386,467.0
35.387,472.0
35.388,527.0
35.389,434.0
35.39,422.0
35.391,459.0
35.392,496.0
35.393,476.0
35.394,524.0
35.395,520.0
35.396,541.0
35.397,469.0
35.398,462.0
35.399,508.0
35.4,535.0
35.401,520.0
35.402,566.0
35.403,574.0
35.404,561.0
35.405,497.0
35.406,492.0
35.407,541.0
35.408,550.0
35.409,562.0
35.41,586.0
35.411,611.0
35.412,571.0
35.413,516.0
35.414,511.0
35.415,546.0
35.416,562.0
35.417,575.0
35.418,583.0
35.419,624.0
35.42,569.0
35.421,527.0
35.422,533.0
35.423,574.0
35.424,583.0
35.425,602.0
35.426,581.0
35.427,654.0
35.428,589.0
35.429,542.0
35.43,547.0
35.431,579.0
35.432,598.0
35.433,618.0
35.434,604.0
35.435,639.0
35.436,592.0
35.437,550.0
35.438,558.0
35.439,587.0
35.44,613.0
35.441,644.0
35.442,633.0
35.443,639.0
35.444,600.0
35.445,557.0
35.446,571.0
35.447,594.0
35.448,624.0
35.449,664.0
35.45,635.0
35.451,625.0
35.452,599.0
35.453,557.0
35.454,575.0
35.455,591.0
35.456,630.0
35.457,634.0
35.458,625.0
35.459,602.0
35.46,604.0
35.461,565.0
35.462,576.0
35.463,589.0
35.464,644.0
35.465,629.0
35.466,620.0
35.467,592.0
35.468,621.0
35.469,596.0
35.47,588.0
35.471,587.0
35.472,641.0
35.473,614.0
35.474,597.0
35.475,598.0
35.476,668.0
35.477,625.0
35.478,604.0
35.479,589.0
35.48,650.0
35.481,614.0
35.482,593.0
35.483,613.0
35.484,861.0
35.485,707.0
35.486,614.0
35.487,576.0
35.488,630.0
35.489,605.0
35.49,578.0
35.491,655.0
35.492,888.0
35.493,733.0
35.494,607.0
35.495,558.0
35.496,617.0
35.497,622.0
35.498,561.0
35.499,581.0
35.5,640.0
35.501,711.0
35.502,574.0
35.503,570.0
35.504,603.0
35.505,613.0
35.506,550.0
35.507,576.0
35.508,706.0
35.509,618.0
35.51,543.0
35.511,589.0
35.512,604.0
35.513,623.0
35.514,559.0
35.515,558.0
35.516,598.0
35.517,567.0
35.518,562.0
35.519,625.0
35.52,633.0
35.521,638.0
35.522,577.0
35.523,563.0
35.524,590.0
35.525,570.0
35.526,584.0
35.527,639.0
35.528,651.0
35.529,604.0
35.53,556.0
35.531,557.0
35.532,601.0
35.533,569.0
35.534,591.0
35.535,638.0
35.536,660.0
35.537,604.0
35.538,559.0
35.539,558.0
35.54,594.0
35.541,578.0
35.542,611.0
35.543,619.0
35.544,670.0
35.545,593.0
35.546,555.0
35.547,561.0
35.548,603.0
35.549,587.0
35.55,619.0
35.551,605.0
35.552,662.0
35.553,595.0
35.554,558.0
35.555,567.0
35.556,600.0
35.557,593.0
35.558,600.0
35.559,617.0
35.56,649.0
35.561,589.0
35.562,557.0
35.563,576.0
35.564,601.0
35.565,597.0
35.566,599.0
35.567,639.0
35.568,637.0
35.569,588.0
35.57,555.0
35.571,575.0
35.572,597.0
35.573,606.0
35.574,599.0
35.575,656.0
35.576,627.0
35.577,596.0
35.578,557.0
35.579,584.0
35.58,596.0
35.581,606.0
35.582,605.0
35.583,663.0
35.584,622.0
35.585,608.0
35.586,560.0
35.587,585.0
35.588,595.0
35.589,624.0
35.59,600.0
35.591,647.0
35.592,625.0
35.593,662.0
35.594,585.0
35.595,588.0
35.596,588.0
35.597,621.0
35.598,617.0
35.599,616.0
35.6,647.0
35.601,686.0
35.602,595.0
35.603,588.0
35.604,589.0
35.605,632.0
35.606,671.0
35.607,622.0
35.608,758.0
35.609,868.0
35.61,671.0
35.611,607.0
35.612,576.0
35.613,594.0
35.614,759.0
35.615,760.0
35.616,1001.0
35.617,994.0
35.618,766.0
35.619,614.0
35.62,552.0
35.621,541.0
35.622,998.0
35.623,924.0
35.624,1023.0
35.625,1010.0
35.626,829.0
35.627,593.0
35.628,505.0
35.629,462.0
35.63,1011.0
35.631,1014.0
35.632,1014.0
35.633,1016.0
35.634,944.0
35.635,593.0
35.636,427.0
35.637,378.0
35.638,594.0
35.639,665.0
35.64,977.0
35.641,948.0
35.642,610.0
35.643,361.0
35.644,345.0
35.645,363.0
35.646,384.0
35.647,442.0
35.648,634.0
35.649,673.0
35.65,435.0
35.651,319.0
35.652,376.0
35.653,419.0
35.654,352.0
35.655,362.0
35.656,500.0
35.657,534.0
35.658,379.0
35.659,371.0
35.66,434.0
35.661,490.0
35.662,414.0
35.663,387.0
35.664,423.0
35.665,464.0
35.666,421.0
35.667,470.0
35.668,489.0
35.669,541.0
35.67,450.0
35.671,428.0
35.672,465.0
35.673,493.0
35.674,477.0
35.675,532.0
35.676,520.0
35.677,538.0
35.678,465.0
35.679,455.0
35.68,493.0
35.681,536.0
35.682,502.0
35.683,551.0
35.684,553.0
35.685,553.0
35.686,486.0
35.687,477.0
35.688,520.0
35.689,547.0
35.69,548.0
35.691,574.0
35.692,599.0
35.693,559.0
35.694,504.0
35.695,496.0
35.696,541.0
35.697,561.0
35.698,576.0
35.699,592.0
35.7,627.0
35.701,576.0
35.702,523.0
35.703,516.0
35.704,554.0
35.705,571.0
35.706,594.0
35.707,588.0
35.708,644.0
35.709,574.0
35.71,529.0
35.711,532.0
35.712,573.0
35.713,586.0
35.714,622.0
35.715,599.0
35.716,643.0
35.717,586.0
35.718,537.0
35.719,545.0
35.72,576.0
35.721,599.0
35.722,634.0
35.723,615.0
35.724,633.0
35.725,589.0
35.726,546.0
35.727,558.0
35.728,584.0
35.729,608.0
35.73,639.0
35.731,635.0
35.732,622.0
35.733,590.0
35.734,547.0
35.735,564.0
35.736,584.0
35.737,628.0
35.738,610.0
35.739,617.0
35.74,605.0
35.741,600.0
35.742,556.0
35.743,569.0
35.744,584.0
35.745,627.0
35.746,629.0
35.747,630.0
35.748,602.0
35.749,598.0
35.75,568.0
35.751,575.0
35.752,593.0
35.753,650.0
35.754,623.0
35.755,609.0
35.756,610.0
35.757,659.0
35.758,624.0
35.759,600.0
35.76,590.0
35.761,643.0
35.762,616.0
35.763,596.0
35.764,615.0
35.765,676.0
35.766,625.0
35.767,593.0
35.768,588.0
35.769,647.0
35.77,626.0
35.771,585.0
35.772,619.0
35.773,717.0
35.774,732.0
35.775,609.0
35.776,578.0
35.777,640.0
35.778,645.0
35.779,580.0
35.78,589.0
35.781,628.0
35.782,588.0
35.783,559.0
35.784,597.0
35.785,638.0
35.786,624.0
35.787,565.0
35.788,589.0
35.789,639.0
35.79,593.0
35.791,561.0
35.792,601.0
35.793,756.0
35.794,646.0
35.795,568.0
35.796,568.0
35.797,637.0
35.798,594.0
35.799,561.0
35.8,618.0
35.801,641.0
35.802,632.0
35.803,577.0
35.804,567.0
35.805,593.0
35.806,570.0
35.807,583.0
35.808,648.0
35.809,655.0
35.81,634.0
35.811,579.0
35.812,565.0
35.813,585.0
35.814,575.0
35.815,605.0
35.816,639.0
35.817,661.0
35.818,605.0
35.819,545.0
35.82,565.0
35.821,613.0
35.822,573.0
35.823,596.0
35.824,621.0
35.825,668.0
35.826,594.0
35.827,551.0
35.828,560.0
35.829,611.0
35.83,580.0
35.831,605.0
35.832,618.0
35.833,667.0
35.834,591.0
35.835,553.0
35.836,567.0
35.837,598.0
35.838,591.0
35.839,605.0
35.84,627.0
35.841,652.0
35.842,582.0
35.843,552.0
35.844,573.0
35.845,598.0
35.846,599.0
35.847,596.0
35.848,641.0
35.849,638.0
35.85,574.0
35.851,535.0
35.852,572.0
35.853,605.0
35.854,590.0
35.855,619.0
35.856,646.0
35.857,620.0
35.858,581.0
35.859,543.0
35.86,573.0
35.861,598.0
35.862,600.0
35.863,618.0
35.864,663.0
35.865,618.0
35.866,583.0
35.867,547.0
35.868,580.0
35.869,587.0
35.87,607.0
35.871,609.0
35.872,658.0
35.873,617.0
35.874,586.0
35.875,550.0
35.876,573.0
35.877,596.0
35.878,624.0
35.879,598.0
35.88,613.0
35.881,633.0
35.882,607.0
35.883,558.0
35.884,577.0
35.885,592.0
35.886,615.0
35.887,617.0
35.888,592.0
35.889,678.0
35.89,676.0
35.891,587.0
35.892,576.0
35.893,583.0
35.894,622.0
35.895,638.0
35.896,589.0
35.897,792.0
35.898,756.0
35.899,617.0
35.9,569.0
35.901,574.0
35.902,593.0
35.903,835.0
35.904,800.0
35.905,1005.0
35.906,984.0
35.907,761.0
35.908,606.0
35.909,553.0
35.91,517.0
35.911,1007.0
35.912,1010.0
35.913,1018.0
35.914,1010.0
35.915,855.0
35.916,589.0
35.917,487.0
35.918,441.0
35.919,1001.0
35.92,1011.0
35.921,1012.0
35.922,1011.0
35.923,889.0
35.924,535.0
35.925,394.0
35.926,363.0
35.927,502.0
35.928,612.0
35.929,1000.0
35.93,897.0
35.931,535.0
35.932,334.0
35.933,339.0
35.934,371.0
35.935,369.0
35.936,471.0
35.937,693.0
35.938,650.0
35.939,386.0
35.94,306.0
35.941,362.0
35.942,410.0
35.943,344.0
35.944,318.0
35.945,373.0
35.946,419.0
35.947,355.0
35.948,399.0
35.949,425.0
35.95,480.0
35.951,398.0
35.952,372.0
35.953,409.0
35.954,442.0
35.955,418.0
35.956,470.0
35.957,480.0
35.958,502.0
35.959,425.0
35.96,412.0
35.961,455.0
35.962,498.0
35.963,466.0
35.964,518.0
35.965,516.0
35.966,514.0
35.967,448.0
35.968,438.0
35.969,493.0
35.97,522.0
35.971,502.0
35.972,537.0
35.973,549.0
35.974,526.0
35.975,468.0
35.976,466.0
35.977,509.0
35.978,526.0
35.979,545.0
35.98,565.0
35.981,602.0
35.982,545.0
35.983,493.0
35.984,489.0
35.985,533.0
35.986,548.0
35.987,579.0
35.988,565.0
35.989,632.0
35.99,561.0
35.991,510.0
35.992,511.0
35.993,545.0
35.994,567.0
35.995,599.0
35.996,569.0
35.997,626.0
35.998,569.0
35.999,522.0
36.0,529.0
36.001,557.0
36.002,586.0
36.003,622.0
36.004,604.0
36.005,618.0
36.006,567.0
36.007,529.0
36.008,543.0
36.009,569.0
36.01,602.0
36.011,626.0
36.012,626.0
36.013,615.0
36.014,571.0
36.015,535.0
36.016,555.0
36.017,577.0
36.018,618.0
36.019,629.0
36.02,631.0
36.021,598.0
36.022,571.0
36.023,529.0
36.024,553.0
36.025,576.0
36.026,617.0
36.027,610.0
36.028,632.0
36.029,588.0
36.03,569.0
36.031,542.0
36.032,561.0
36.033,585.0
36.034,635.0
36.035,609.0
36.036,613.0
36.037,580.0
36.038,574.0
36.039,550.0
36.04,568.0
36.041,589.0
36.042,640.0
36.043,614.0
36.044,588.0
36.045,580.0
36.046,609.0
36.047,574.0
36.048,571.0
36.049,591.0
36.05,650.0
36.051,604.0
36.052,574.0
36.053,603.0
36.054,636.0
36.055,593.0
36.056,572.0
36.057,589.0
36.058,649.0
36.059,604.0
36.06,568.0
36.061,630.0
36.062,676.0
36.063,618.0
36.064,570.0
36.065,587.0
36.066,633.0
36.067,636.0
36.068,566.0
36.069,582.0
36.07,628.0
36.071,593.0
36.072,561.0
36.073,609.0
36.074,629.0
36.075,611.0
36.076,558.0
36.077,602.0
36.078,652.0
36.079,601.0
36.08,561.0
36.081,612.0
36.082,640.0
36.083,626.0
36.084,564.0
36.085,564.0
36.086,605.0
36.087,574.0
36.088,579.0
36.089,635.0
36.09,656.0
36.091,621.0
36.092,566.0
36.093,572.0
36.094,615.0
36.095,574.0
36.096,588.0
36.097,641.0
36.098,672.0
36.099,624.0
36.1,573.0
36.101,572.0
36.102,610.0
36.103,581.0
36.104,618.0
36.105,643.0
36.106,676.0
36.107,597.0
36.108,557.0
36.109,565.0
36.11,606.0
36.111,579.0
36.112,608.0
36.113,614.0
36.114,677.0
36.115,575.0
36.116,546.0
36.117,577.0
36.118,644.0
36.119,578.0
36.12,588.0
36.121,610.0
36.122,642.0
36.123,577.0
36.124,551.0
36.125,577.0
36.126,608.0
36.127,589.0
36.128,592.0
36.129,629.0
36.13,645.0
36.131,583.0
36.132,559.0
36.133,585.0
36.134,604.0
36.135,606.0
36.136,596.0
36.137,632.0
36.138,637.0
36.139,572.0
36.14,552.0
36.141,588.0
36.142,597.0
36.143,607.0
36.144,597.0
36.145,661.0
36.146,626.0
36.147,568.0
36.148,550.0
36.149,588.0
36.15,592.0
36.151,598.0
36.152,636.0
36.153,668.0
36.154,622.0
36.155,566.0
36.156,553.0
36.157,582.0
36.158,594.0
36.159,597.0
36.16,611.0
36.161,633.0
36.162,626.0
36.163,579.0
36.164,562.0
36.165,581.0
36.166,590.0
36.167,611.0
36.168,585.0
36.169,597.0
36.17,660.0
36.171,609.0
36.172,571.0
36.173,575.0
36.174,588.0
36.175,613.0
36.176,609.0
36.177,579.0
36.178,743.0
36.179,672.0
36.18,597.0
36.181,570.0
36.182,577.0
36.183,594.0
36.184,660.0
36.185,610.0
36.186,890.0
36.187,789.0
36.188,649.0
36.189,568.0
36.19,568.0
36.191,577.0
36.192,852.0
36.193,870.0
36.194,1012.0
36.195,995.0
36.196,798.0
36.197,583.0
36.198,519.0
36.199,493.0
36.2,1011.0
36.201,1014.0
36.202,1014.0
36.203,1012.0
36.204,888.0
36.205,569.0
36.206,449.0
36.207,417.0
36.208,894.0
36.209,993.0
36.21,1017.0
36.211,995.0
36.212,754.0
36.213,446.0
36.214,356.0
36.215,375.0
36.216,463.0
36.217,591.0
36.218,907.0
36.219,744.0
36.22,451.0
36.221,312.0
36.222,356.0
36.223,395.0
36.224,323.0
36.225,383.0
36.226,555.0
36.227,531.0
36.228,358.0
36.229,350.0
36.23,399.0
36.231,461.0
36.232,380.0
36.233,362.0
36.234,460.0
36.235,432.0
36.236,398.0
36.237,442.0
36.238,446.0
36.239,500.0
36.24,430.0
36.241,413.0
36.242,496.0
36.243,465.0
36.244,460.0
36.245,521.0
36.246,519.0
36.247,521.0
36.248,463.0
36.249,449.0
36.25,512.0
36.251,492.0
36.252,508.0
36.253,552.0
36.254,550.0
36.255,535.0
36.256,458.0
36.257,464.0
36.258,509.0
36.259,528.0
36.26,517.0
36.261,549.0
36.262,579.0
36.263,534.0
36.264,487.0
36.265,482.0
36.266,525.0
36.267,534.0
36.268,568.0
36.269,567.0
36.27,616.0
36.271,555.0
36.272,509.0
36.273,510.0
36.274,542.0
36.275,556.0
36.276,588.0
36.277,567.0
36.278,622.0
36.279,562.0
36.28,533.0
36.281,526.0
36.282,553.0
36.283,575.0
36.284,609.0
36.285,589.0
36.286,609.0
36.287,564.0
36.288,524.0
36.289,539.0
36.29,562.0
36.291,583.0
36.292,619.0
36.293,615.0
36.294,604.0
36.295,562.0
36.296,524.0
36.297,546.0
36.298,569.0
36.299,596.0
36.3,617.0
36.301,639.0
36.302,604.0
36.303,566.0
36.304,535.0
36.305,554.0
36.306,579.0
36.307,605.0
36.308,601.0
36.309,632.0
36.31,591.0
36.311,562.0
36.312,536.0
36.313,557.0
36.314,579.0
36.315,618.0
36.316,607.0
36.317,636.0
36.318,590.0
36.319,570.0
36.32,545.0
36.321,563.0
36.322,592.0
36.323,633.0
36.324,613.0
36.325,589.0
36.326,579.0
36.327,585.0
36.328,556.0
36.329,557.0
36.33,583.0
36.331,634.0
36.332,624.0
36.333,587.0
36.334,585.0
36.335,594.0
36.336,564.0
36.337,558.0
36.338,588.0
36.339,641.0
36.34,612.0
36.341,575.0
36.342,589.0
36.343,605.0
36.344,564.0
36.345,557.0
36.346,600.0
36.347,626.0
36.348,635.0
36.349,571.0
36.35,600.0
36.351,620.0
36.352,576.0
36.353,560.0
36.354,622.0
36.355,627.0
36.356,609.0
36.357,564.0
36.358,611.0
36.359,638.0
36.36,583.0
36.361,558.0
36.362,609.0
36.363,634.0
36.364,609.0
36.365,561.0
36.366,590.0
36.367,617.0
36.368,567.0
36.369,565.0
36.37,620.0
36.371,634.0
36.372,616.0
36.373,571.0
36.374,573.0
36.375,603.0
36.376,566.0
36.377,577.0
36.378,635.0
36.379,650.0
36.38,629.0
36.381,576.0
36.382,569.0
36.383,595.0
36.384,570.0
36.385,607.0
36.386,646.0
36.387,666.0
36.388,612.0
36.389,571.0
36.39,570.0
36.391,590.0
36.392,578.0
36.393,625.0
36.394,620.0
36.395,669.0
36.396,593.0
36.397,562.0
36.398,573.0
36.399,591.0
36.4,569.0
36.401,621.0
36.402,624.0
36.403,656.0
36.404,593.0
36.405,566.0
36.406,575.0
36.407,588.0
36.408,590.0
36.409,610.0
36.41,629.0
36.411,627.0
36.412,570.0
36.413,549.0
36.414,572.0
36.415,582.0
36.416,597.0
36.417,595.0
36.418,662.0
36.419,621.0
36.42,568.0
36.421,549.0
36.422,571.0
36.423,585.0
36.424,606.0
36.425,579.0
36.426,657.0
36.427,619.0
36.428,564.0
36.429,546.0
36.43,572.0
36.431,583.0
36.432,607.0
36.433,576.0
36.434,663.0
36.435,605.0
36.436,557.0
36.437,546.0
36.438,573.0
36.439,587.0
36.44,593.0
36.441,594.0
36.442,642.0
36.443,600.0
36.444,556.0
36.445,547.0
36.446,569.0
36.447,586.0
36.448,607.0
36.449,586.0
36.45,622.0
36.451,599.0
36.452,560.0
36.453,552.0
36.454,561.0
36.455,591.0
36.456,604.0
36.457,601.0
36.458,594.0
36.459,625.0
36.46,580.0
36.461,564.0
36.462,561.0
36.463,584.0
36.464,612.0
36.465,611.0
36.466,583.0
36.467,695.0
36.468,645.0
36.469,586.0
36.47,560.0
36.471,584.0
36.472,589.0
36.473,802.0
36.474,818.0
36.475,1009.0
36.476,923.0
36.477,733.0
36.478,580.0
36.479,554.0
36.48,530.0
36.481,937.0
36.482,952.0
36.483,1011.0
36.484,976.0
36.485,791.0
36.486,548.0
36.487,499.0
36.488,529.0
36.489,1013.0
36.49,1018.0
36.491,1013.0
36.492,1005.0
36.493,911.0
36.494,565.0
36.495,401.0
36.496,374.0
36.497,694.0
36.498,874.0
36.499,1009.0
36.5,895.0
36.501,577.0
36.502,352.0
36.503,342.0
36.504,350.0
36.505,425.0
36.506,588.0
36.507,721.0
36.508,720.0
36.509,410.0
36.51,316.0
36.511,353.0
36.512,394.0
36.513,317.0
36.514,353.0
36.515,445.0
36.516,434.0
36.517,340.0
36.518,377.0
36.519,419.0
36.52,467.0
36.521,378.0
36.522,368.0
36.523,420.0
36.524,421.0
36.525,403.0
36.526,475.0
36.527,499.0
36.528,509.0
36.529,448.0
36.53,425.0
36.531,472.0
36.532,459.0
36.533,464.0
36.534,523.0
36.535,528.0
36.536,507.0
36.537,456.0
36.538,443.0
36.539,479.0
36.54,485.0
36.541,519.0
36.542,553.0
36.543,570.0
36.544,525.0
36.545,479.0
36.546,470.0
36.547,506.0
36.548,511.0
36.549,555.0
36.55,563.0
36.551,599.0
36.552,533.0
36.553,494.0
36.554,489.0
36.555,528.0
36.556,534.0
36.557,577.0
36.558,562.0
36.559,597.0
36.56,533.0
36.561,497.0
36.562,505.0
36.563,539.0
36.564,553.0
36.565,590.0
36.566,578.0
36.567,608.0
36.568,552.0
36.569,513.0
36.57,524.0
36.571,552.0
36.572,574.0
36.573,620.0
36.574,614.0
36.575,613.0
36.576,565.0
36.577,530.0
36.578,544.0
36.579,567.0
36.58,591.0
36.581,582.0
36.582,637.0
36.583,607.0
36.584,563.0
36.585,532.0
36.586,551.0
36.587,573.0
36.588,608.0
36.589,612.0
36.59,640.0
36.591,589.0
36.592,556.0
36.593,530.0
36.594,551.0
36.595,578.0
36.596,616.0
36.597,610.0
36.598,640.0
36.599,585.0
36.6,560.0
36.601,537.0
36.602,553.0
36.603,587.0
36.604,629.0
36.605,616.0
36.606,627.0
36.607,582.0
36.608,560.0
36.609,544.0
36.61,560.0
36.611,590.0
36.612,636.0
36.613,612.0
36.614,583.0
36.615,571.0
36.616,563.0
36.617,549.0
36.618,553.0
36.619,589.0
36.62,629.0
36.621,608.0
36.622,573.0
36.623,572.0
36.624,593.0
36.625,564.0
36.626,550.0
36.627,588.0
36.628,621.0
36.629,597.0
36.63,561.0
36.631,629.0
36.632,641.0
36.633,596.0
36.634,551.0
36.635,586.0
36.636,658.0
36.637,612.0
36.638,564.0
36.639,638.0
36.64,686.0
36.641,607.0
36.642,554.0
36.643,602.0
36.644,619.0
36.645,590.0
36.646,559.0
36.647,642.0
36.648,665.0
36.649,604.0
36.65,547.0
36.651,605.0
36.652,628.0
36.653,602.0
36.654,549.0
36.655,570.0
36.656,600.0
36.657,556.0
36.658,561.0
36.659,627.0
36.66,640.0
36.661,603.0
36.662,552.0
36.663,563.0
36.664,587.0
36.665,555.0
36.666,583.0
36.667,623.0
36.668,657.0
36.669,618.0
36.67,567.0
36.671,562.0
36.672,581.0
36.673,566.0
36.674,619.0
36.675,624.0
36.676,675.0
36.677,602.0
36.678,562.0
36.679,561.0
36.68,578.0
36.681,579.0
36.682,622.0
36.683,635.0
36.684,667.0
36.685,598.0
36.686,565.0
36.687,566.0
36.688,575.0
36.689,591.0
36.69,624.0
36.691,633.0
36.692,633.0
36.693,576.0
36.694,553.0
36.695,567.0
36.696,577.0
36.697,597.0
36.698,602.0
36.699,642.0
36.7,626.0
36.701,576.0
36.702,553.0
36.703,568.0
36.704,580.0
36.705,607.0
36.706,583.0
36.707,645.0
36.708,607.0
36.709,560.0
36.71,544.0
36.711,568.0
36.712,578.0
36.713,605.0
36.714,576.0
36.715,656.0
36.716,596.0
36.717,547.0
36.718,539.0
36.719,570.0
36.72,582.0
36.721,593.0
36.722,587.0
36.723,641.0
36.724,591.0
36.725,546.0
36.726,542.0
36.727,565.0
36.728,586.0
36.729,589.0
36.73,597.0
36.731,628.0
36.732,594.0
36.733,544.0
36.734,548.0
36.735,565.0
36.736,592.0
36.737,596.0
36.738,592.0
36.739,603.0
36.74,594.0
36.741,541.0
36.742,548.0
36.743,567.0
36.744,593.0
36.745,604.0
36.746,588.0
36.747,577.0
36.748,614.0
36.749,563.0
36.75,554.0
36.751,558.0
36.752,588.0
36.753,600.0
36.754,614.0
36.755,592.0
36.756,722.0
36.757,650.0
36.758,592.0
36.759,560.0
36.76,600.0
36.761,582.0
36.762,860.0
36.763,888.0
36.764,1012.0
36.765,971.0
36.766,788.0
36.767,600.0
36.768,543.0
36.769,527.0
36.77,916.0
36.771,987.0
36.772,1014.0
36.773,961.0
36.774,779.0
36.775,540.0
36.776,477.0
36.777,530.0
36.778,993.0
36.779,1017.0
36.78,1016.0
36.781,992.0
36.782,773.0
36.783,479.0
36.784,391.0
36.785,431.0
36.786,752.0
36.787,1013.0
36.788,1023.0
36.789,879.0
36.79,557.0
36.791,348.0
36.792,329.0
36.793,351.0
36.794,394.0
36.795,577.0
36.796,704.0
36.797,586.0
36.798,360.0
36.799,317.0
36.8,352.0
36.801,388.0
36.802,309.0
36.803,322.0
36.804,391.0
36.805,378.0
36.806,342.0
36.807,392.0
36.808,410.0
36.809,425.0
36.81,362.0
36.811,368.0
36.812,435.0
36.813,425.0
36.814,400.0
36.815,464.0
36.816,473.0
36.817,472.0
36.818,416.0
36.819,409.0
36.82,448.0
36.821,448.0
36.822,470.0
36.823,517.0
36.824,531.0
36.825,482.0
36.826,439.0
36.827,439.0
36.828,485.0
36.829,481.0
36.83,513.0
36.831,537.0
36.832,575.0
36.833,514.0
36.834,473.0
36.835,470.0
36.836,513.0
36.837,515.0
36.838,551.0
36.839,548.0
36.84,590.0
36.841,510.0
36.842,478.0
36.843,487.0
36.844,533.0
36.845,532.0
36.846,571.0
36.847,564.0
36.848,587.0
36.849,530.0
36.85,495.0
36.851,514.0
36.852,546.0
36.853,561.0
36.854,597.0
36.855,591.0
36.856,606.0
36.857,550.0
36.858,518.0
36.859,537.0
36.86,561.0
36.861,584.0
36.862,614.0
36.863,631.0
36.864,606.0
36.865,559.0
36.866,532.0
36.867,552.0
36.868,568.0
36.869,598.0
36.87,604.0
36.871,650.0
36.872,597.0
36.873,547.0
36.874,530.0
36.875,552.0
36.876,576.0
36.877,615.0
36.878,605.0
36.879,643.0
36.88,570.0
36.881,541.0
36.882,526.0
36.883,551.0
36.884,580.0
36.885,618.0
36.886,595.0
36.887,624.0
36.888,582.0
36.889,542.0
36.89,534.0
36.891,554.0
36.892,588.0
36.893,626.0
36.894,601.0
36.895,603.0
36.896,568.0
36.897,548.0
36.898,540.0
36.899,557.0
36.9,587.0
36.901,629.0
36.902,587.0
36.903,561.0
36.904,572.0
36.905,578.0
36.906,559.0
36.907,552.0
36.908,587.0
36.909,621.0
36.91,589.0
36.911,556.0
36.912,583.0
36.913,589.0
36.914,573.0
36.915,554.0
36.916,595.0
36.917,613.0
36.918,600.0
36.919,555.0
36.92,634.0
36.921,646.0
36.922,602.0
36.923,554.0
36.924,596.0
36.925,610.0
36.926,591.0
36.927,552.0
36.928,629.0
36.929,666.0
36.93,600.0
36.931,552.0
36.932,610.0
36.933,612.0
36.934,576.0
36.935,540.0
36.936,607.0
36.937,625.0
36.938,572.0
36.939,556.0
36.94,612.0
36.941,635.0
36.942,602.0
36.943,551.0
36.944,563.0
36.945,584.0
36.946,554.0
36.947,579.0
36.948,629.0
36.949,654.0
36.95,612.0
36.951,560.0
36.952,561.0
36.953,579.0
36.954,560.0
36.955,604.0
36.956,620.0
36.957,659.0
36.958,614.0
36.959,566.0
36.96,564.0
36.961,578.0
36.962,557.0
36.963,617.0
36.964,610.0
36.965,657.0
36.966,578.0
36.967,546.0
36.968,562.0
36.969,575.0
36.97,572.0
36.971,625.0
36.972,623.0
36.973,630.0
36.974,575.0
36.975,552.0
36.976,572.0
36.977,572.0
36.978,584.0
36.979,616.0
36.98,629.0
36.981,614.0
36.982,566.0
36.983,547.0
36.984,572.0
36.985,572.0
36.986,595.0
36.987,594.0
36.988,638.0
36.989,600.0
36.99,550.0
36.991,542.0
36.992,575.0
36.993,575.0
36.994,599.0
36.995,573.0
36.996,656.0
36.997,602.0
36.998,552.0
36.999,546.0
37.0,576.0
37.001,579.0
37.002,592.0
37.003,570.0
37.004,627.0
37.005,592.0
37.006,543.0
37.007,546.0
37.008,580.0
37.009,584.0
37.01,586.0
37.011,589.0
37.012,635.0
37.013,595.0
37.014,546.0
37.015,555.0
37.016,579.0
37.017,595.0
37.018,591.0
37.019,596.0
37.02,619.0
37.021,597.0
37.022,549.0
37.023,554.0
37.024,574.0
37.025,595.0
37.026,597.0
37.027,595.0
37.028,601.0
37.029,597.0
37.03,553.0
37.031,562.0
37.032,572.0
37.033,600.0
37.034,589.0
37.035,593.0
37.036,579.0
37.037,633.0
37.038,580.0
37.039,572.0
37.04,570.0
37.041,605.0
37.042,595.0
37.043,611.0
37.044,592.0
37.045,691.0
37.046,620.0
37.047,590.0
37.048,568.0
37.049,604.0
37.05,591.0
37.051,776.0
37.052,832.0
37.053,1004.0
37.054,846.0
37.055,707.0
37.056,572.0
37.057,564.0
37.058,608.0
37.059,967.0
37.06,1016.0
37.061,1015.0
37.062,967.0
37.063,799.0
37.064,538.0
37.065,488.0
37.066,575.0
37.067,952.0
37.068,1016.0
37.069,1015.0
37.07,970.0
37.071,712.0
37.072,448.0
37.073,407.0
37.074,420.0
37.075,571.0
37.076,852.0
37.077,1005.0
37.078,753.0
37.079,457.0
37.08,358.0
37.081,370.0
37.082,429.0
37.083,441.0
37.084,660.0
37.085,779.0
37.086,604.0
37.087,372.0
37.088,360.0
37.089,383.0
37.09,405.0
37.091,342.0
37.092,375.0
37.093,441.0
37.094,400.0
37.095,379.0
37.096,450.0
37.097,445.0
37.098,461.0
37.099,405.0
37.1,408.0
37.101,451.0
37.102,428.0
37.103,444.0
37.104,501.0
37.105,512.0
37.106,486.0
37.107,439.0
37.108,440.0
37.109,479.0
37.11,466.0
37.111,500.0
37.112,538.0
37.113,554.0
37.114,502.0
37.115,465.0
37.116,466.0
37.117,508.0
37.118,497.0
37.119,542.0
37.12,541.0
37.121,600.0
37.122,527.0
37.123,492.0
37.124,494.0
37.125,520.0
37.126,525.0
37.127,566.0
37.128,561.0
37.129,597.0
37.13,530.0
37.131,503.0
37.132,513.0
37.133,535.0
37.134,548.0
37.135,589.0
37.136,582.0
37.137,592.0
37.138,540.0
37.139,511.0
37.14,527.0
37.141,548.0
37.142,565.0
37.143,606.0
37.144,616.0
37.145,599.0
37.146,550.0
37.147,525.0
37.148,541.0
37.149,553.0
37.15,591.0
37.151,602.0
37.152,643.0
37.153,582.0
37.154,541.0
37.155,525.0
37.156,548.0
37.157,561.0
37.158,590.0
37.159,584.0
37.16,648.0
37.161,581.0
37.162,542.0
37.163,527.0
37.164,550.0
37.165,576.0
37.166,614.0
37.167,599.0
37.168,647.0
37.169,584.0
37.17,548.0
37.171,540.0
37.172,559.0
37.173,588.0
37.174,611.0
37.175,591.0
37.176,607.0
37.177,566.0
37.178,536.0
37.179,534.0
37.18,551.0
37.181,585.0
37.182,617.0
37.183,593.0
37.184,578.0
37.185,556.0
37.186,537.0
37.187,542.0
37.188,547.0
37.189,588.0
37.19,619.0
37.191,582.0
37.192,552.0
37.193,566.0
37.194,555.0
37.195,543.0
37.196,543.0
37.197,583.0
37.198,605.0
37.199,592.0
37.2,555.0
37.201,581.0
37.202,589.0
37.203,550.0
37.204,548.0
37.205,602.0
37.206,599.0
37.207,583.0
37.208,553.0
37.209,618.0
37.21,620.0
37.211,568.0
37.212,547.0
37.213,603.0
37.214,610.0
37.215,583.0
37.216,551.0
37.217,613.0
37.218,605.0
37.219,555.0
37.22,553.0
37.221,614.0
37.222,629.0
37.223,576.0
37.224,549.0
37.225,596.0
37.226,608.0
37.227,551.0
37.228,561.0
37.229,620.0
37.23,653.0
37.231,597.0
37.232,552.0
37.233,570.0
37.234,580.0
37.235,553.0
37.236,593.0
37.237,618.0
37.238,662.0
37.239,608.0
37.24,563.0
37.241,567.0
37.242,576.0
37.243,565.0
37.244,619.0
37.245,629.0
37.246,658.0
37.247,602.0
37.248,563.0
37.249,572.0
37.25,577.0
37.251,572.0
37.252,630.0
37.253,624.0
37.254,633.0
37.255,575.0
37.256,541.0
37.257,572.0
37.258,572.0
37.259,581.0
37.26,632.0
37.261,651.0
37.262,632.0
37.263,586.0
37.264,558.0
37.265,575.0
37.266,576.0
37.267,602.0
37.268,619.0
37.269,646.0
37.27,607.0
37.271,560.0
37.272,546.0
37.273,571.0
37.274,571.0
37.275,605.0
37.276,588.0
37.277,647.0
37.278,592.0
37.279,547.0
37.28,537.0
37.281,569.0
37.282,569.0
37.283,587.0
37.284,561.0
37.285,653.0
37.286,584.0
37.287,544.0
37.288,537.0
37.289,566.0
37.29,572.0
37.291,576.0
37.292,568.0
37.293,631.0
37.294,585.0
37.295,538.0
37.296,541.0
37.297,563.0
37.298,571.0
37.299,572.0
37.3,588.0
37.301,612.0
37.302,581.0
37.303,531.0
37.304,539.0
37.305,555.0
37.306,568.0
37.307,568.0
37.308,594.0
37.309,590.0
37.31,582.0
37.311,528.0
37.312,538.0
37.313,551.0
37.314,581.0
37.315,564.0
37.316,588.0
37.317,574.0
37.318,599.0
37.319,535.0
37.32,545.0
37.321,557.0
37.322,584.0
37.323,567.0
37.324,599.0
37.325,574.0
37.326,616.0
37.327,543.0
37.328,550.0
37.329,552.0
37.33,590.0
37.331,580.0
37.332,600.0
37.333,621.0
37.334,749.0
37.335,621.0
37.336,586.0
37.337,553.0
37.338,590.0
37.339,608.0
37.34,872.0
37.341,956.0
37.342,1010.0
37.343,848.0
37.344,705.0
37.345,547.0
37.346,533.0
37.347,602.0
37.348,891.0
37.349,1009.0
37.35,1017.0
37.351,884.0
37.352,684.0
37.353,489.0
37.354,471.0
37.355,636.0
37.356,955.0
37.357,1012.0
37.358,1014.0
37.359,913.0
37.36,616.0
37.361,412.0
37.362,379.0
37.363,447.0
37.364,504.0
37.365,746.0
37.366,859.0
37.367,640.0
37.368,398.0
37.369,351.0
37.37,367.0
37.371,396.0
37.372,370.0
37.373,489.0
37.374,598.0
37.375,486.0
37.376,346.0
37.377,391.0
37.378,420.0
37.379,425.0
37.38,371.0
37.381,389.0
37.382,437.0
37.383,395.0
37.384,400.0
37.385,463.0
37.386,479.0
37.387,450.0
37.388,408.0
37.389,415.0
37.39,468.0
37.391,434.0
37.392,453.0
37.393,511.0
37.394,536.0
37.395,467.0
37.396,430.0
37.397,451.0
37.398,498.0
37.399,465.0
37.4,498.0
37.401,528.0
37.402,576.0
37.403,497.0
37.404,463.0
37.405,474.0
37.406,517.0
37.407,506.0
37.408,541.0
37.409,561.0
37.41,599.0
37.411,535.0
37.412,502.0
37.413,509.0
37.414,529.0
37.415,543.0
37.416,575.0
37.417,583.0
37.418,594.0
37.419,538.0
37.42,508.0
37.421,520.0
37.422,540.0
37.423,560.0
37.424,588.0
37.425,597.0
37.426,586.0
37.427,537.0
37.428,512.0
37.429,529.0
37.43,546.0
37.431,577.0
37.432,592.0
37.433,619.0
37.434,589.0
37.435,542.0
37.436,522.0
37.437,542.0
37.438,556.0
37.439,588.0
37.44,586.0
37.441,641.0
37.442,582.0
37.443,550.0
37.444,524.0
37.445,544.0
37.446,566.0
37.447,602.0
37.448,572.0
37.449,632.0
37.45,569.0
37.451,533.0
37.452,523.0
37.453,545.0
37.454,574.0
37.455,606.0
37.456,585.0
37.457,623.0
37.458,572.0
37.459,536.0
37.46,534.0
37.461,551.0
37.462,586.0
37.463,617.0
37.464,577.0
37.465,597.0
37.466,557.0
37.467,525.0
37.468,530.0
37.469,548.0
37.47,587.0
37.471,614.0
37.472,594.0
37.473,578.0
37.474,553.0
37.475,528.0
37.476,526.0
37.477,546.0
37.478,589.0
37.479,609.0
37.48,578.0
37.481,547.0
37.482,562.0
37.483,543.0
37.484,535.0
37.485,543.0
37.486,590.0
37.487,601.0
37.488,595.0
37.489,552.0
37.49,567.0
37.491,552.0
37.492,542.0
37.493,556.0
37.494,630.0
37.495,598.0
37.496,579.0
37.497,558.0
37.498,613.0
37.499,593.0
37.5,561.0
37.501,552.0
37.502,619.0
37.503,610.0
37.504,577.0
37.505,552.0
37.506,597.0
37.507,585.0
37.508,551.0
37.509,562.0
37.51,633.0
37.511,625.0
37.512,566.0
37.513,553.0
37.514,600.0
37.515,595.0
37.516,551.0
37.517,572.0
37.518,621.0
37.519,654.0
37.52,592.0
37.521,552.0
37.522,570.0
37.523,572.0
37.524,558.0
37.525,608.0
37.526,625.0
37.527,667.0
37.528,604.0
37.529,560.0
37.53,568.0
37.531,569.0
37.532,574.0
37.533,629.0
37.534,614.0
37.535,635.0
37.536,588.0
37.537,555.0
37.538,571.0
37.539,569.0
37.54,581.0
37.541,641.0
37.542,631.0
37.543,632.0
37.544,585.0
37.545,555.0
37.546,571.0
37.547,573.0
37.548,596.0
37.549,646.0
37.55,649.0
37.551,621.0
37.552,582.0
37.553,556.0
37.554,570.0
37.555,572.0
37.556,607.0
37.557,609.0
37.558,647.0
37.559,596.0
37.56,556.0
37.561,542.0
37.562,566.0
37.563,558.0
37.564,586.0
37.565,578.0
37.566,650.0
37.567,580.0
37.568,543.0
37.569,537.0
37.57,569.0
37.571,568.0
37.572,577.0
37.573,572.0
37.574,629.0
37.575,579.0
37.576,541.0
37.577,541.0
37.578,565.0
37.579,576.0
37.58,582.0
37.581,596.0
37.582,622.0
37.583,575.0
37.584,541.0
37.585,550.0
37.586,563.0
37.587,587.0
37.588,582.0
37.589,621.0
37.59,610.0
37.591,575.0
37.592,539.0
37.593,552.0
37.594,569.0
37.595,594.0
37.596,574.0
37.597,621.0
37.598,595.0
37.599,575.0
37.6,532.0
37.601,548.0
37.602,567.0
37.603,604.0
37.604,569.0
37.605,618.0
37.606,579.0
37.607,583.0
37.608,536.0
37.609,550.0
37.61,567.0
37.611,608.0
37.612,575.0
37.613,606.0
37.614,573.0
37.615,605.0
37.616,546.0
37.617,557.0
37.618,567.0
37.619,615.0
37.62,594.0
37.621,591.0
37.622,616.0
37.623,717.0
37.624,594.0
37.625,576.0
37.626,560.0
37.627,600.0
37.628,629.0
37.629,819.0
37.63,936.0
37.631,1008.0
37.632,788.0
37.633,659.0
37.634,546.0
37.635,536.0
37.636,751.0
37.637,911.0
37.638,1010.0
37.639,1012.0
37.64,868.0
37.641,665.0
37.642,504.0
37.643,463.0
37.644,766.0
37.645,847.0
37.646,1008.0
37.647,1011.0
37.648,824.0
37.649,557.0
37.65,416.0
37.651,391.0
37.652,522.0
37.653,531.0
37.654,744.0
37.655,818.0
37.656,598.0
37.657,398.0
37.658,378.0
37.659,454.0
37.66,451.0
37.661,462.0
37.662,625.0
37.663,695.0
37.664,503.0
37.665,364.0
37.666,397.0
37.667,424.0
37.668,402.0
37.669,355.0
37.67,363.0
37.671,423.0
37.672,386.0
37.673,401.0
37.674,460.0
37.675,488.0
37.676,447.0
37.677,402.0
37.678,412.0
37.679,455.0
37.68,426.0
37.681,463.0
37.682,494.0
37.683,530.0
37.684,452.0
37.685,422.0
37.686,445.0
37.687,484.0
37.688,462.0
37.689,513.0
37.69,511.0
37.691,570.0
37.692,490.0
37.693,459.0
37.694,457.0
37.695,496.0
37.696,509.0
37.697,552.0
37.698,537.0
37.699,562.0
37.7,504.0
37.701,482.0
37.702,497.0
37.703,525.0
37.704,536.0
37.705,575.0
37.706,562.0
37.707,558.0
37.708,504.0
37.709,486.0
37.71,511.0
37.711,531.0
37.712,550.0
37.713,581.0
37.714,606.0
37.715,578.0
37.716,529.0
37.717,511.0
37.718,533.0
37.719,551.0
37.72,578.0
37.721,575.0
37.722,634.0
37.723,574.0
37.724,531.0
37.725,519.0
37.726,540.0
37.727,560.0
37.728,590.0
37.729,574.0
37.73,643.0
37.731,574.0
37.732,534.0
37.733,528.0
37.734,548.0
37.735,571.0
37.736,605.0
37.737,574.0
37.738,619.0
37.739,566.0
37.74,529.0
37.741,529.0
37.742,550.0
37.743,578.0
37.744,617.0
37.745,590.0
37.746,609.0
37.747,566.0
37.748,530.0
37.749,541.0
37.75,562.0
37.751,587.0
37.752,613.0
37.753,590.0
37.754,582.0
37.755,554.0
37.756,528.0
37.757,538.0
37.758,553.0
37.759,597.0
37.76,620.0
37.761,602.0
37.762,574.0
37.763,556.0
37.764,529.0
37.765,534.0
37.766,563.0
37.767,605.0
37.768,598.0
37.769,590.0
37.77,546.0
37.771,561.0
37.772,541.0
37.773,543.0
37.774,557.0
37.775,607.0
37.776,588.0
37.777,576.0
37.778,550.0
37.779,576.0
37.78,560.0
37.781,553.0
37.782,562.0
37.783,624.0
37.784,597.0
37.785,569.0
37.786,558.0
37.787,609.0
37.788,588.0
37.789,564.0
37.79,564.0
37.791,616.0
37.792,634.0
37.793,579.0
37.794,550.0
37.795,582.0
37.796,572.0
37.797,556.0
37.798,578.0
37.799,627.0
37.8,621.0
37.801,570.0
37.802,543.0
37.803,587.0
37.804,581.0
37.805,556.0
37.806,599.0
37.807,617.0
37.808,663.0
37.809,594.0
37.81,561.0
37.811,577.0
37.812,574.0
37.813,569.0
37.814,628.0
37.815,623.0
37.816,654.0
37.817,599.0
37.818,568.0
37.819,580.0
37.82,573.0
37.821,587.0
37.822,643.0
37.823,636.0
37.824,654.0
37.825,609.0
37.826,576.0
37.827,584.0
37.828,581.0
37.829,607.0
37.83,653.0
37.831,643.0
37.832,617.0
37.833,579.0
37.834,558.0
37.835,576.0
37.836,574.0
37.837,610.0
37.838,633.0
37.839,647.0
37.84,604.0
37.841,568.0
37.842,552.0
37.843,576.0
37.844,572.0
37.845,609.0
37.846,606.0
37.847,662.0
37.848,594.0
37.849,564.0
37.85,552.0
37.851,574.0
37.852,571.0
37.853,590.0
37.854,583.0
37.855,641.0
37.856,577.0
37.857,539.0
37.858,550.0
37.859,566.0
37.86,579.0
37.861,581.0
37.862,583.0
37.863,615.0
37.864,564.0
37.865,537.0
37.866,550.0
37.867,571.0
37.868,577.0
37.869,573.0
37.87,612.0
37.871,611.0
37.872,564.0
37.873,534.0
37.874,549.0
37.875,565.0
37.876,582.0
37.877,560.0
37.878,636.0
37.879,600.0
37.88,562.0
37.881,534.0
37.882,553.0
37.883,566.0
37.884,590.0
37.885,568.0
37.886,632.0
37.887,579.0
37.888,570.0
37.889,535.0
37.89,558.0
37.891,569.0
37.892,601.0
37.893,563.0
37.894,613.0
37.895,579.0
37.896,585.0
37.897,545.0
37.898,559.0
37.899,574.0
37.9,614.0
37.901,585.0
37.902,592.0
37.903,581.0
37.904,615.0
37.905,555.0
37.906,561.0
37.907,568.0
37.908,610.0
37.909,616.0
37.91,607.0
37.911,681.0
37.912,774.0
37.913,633.0
37.914,588.0
37.915,557.0
37.916,590.0
37.917,694.0
37.918,773.0
37.919,982.0
37.92,994.0
37.921,761.0
37.922,633.0
37.923,547.0
37.924,522.0
37.925,833.0
37.926,915.0
37.927,1010.0
37.928,1006.0
37.929,863.0
37.93,633.0
37.931,476.0
37.932,458.0
37.933,893.0
37.934,903.0
37.935,1010.0
37.936,1004.0
37.937,821.0
37.938,534.0
37.939,402.0
37.94,388.0
37.941,490.0
37.942,516.0
37.943,744.0
37.944,807.0
37.945,545.0
37.946,373.0
37.947,376.0
37.948,390.0
37.949,389.0
37.95,410.0
37.951,533.0
37.952,587.0
37.953,424.0
37.954,356.0
37.955,414.0
37.956,449.0
37.957,411.0
37.958,374.0
37.959,406.0
37.96,442.0
37.961,397.0
37.962,421.0
37.963,470.0
37.964,520.0
37.965,451.0
37.966,419.0
37.967,434.0
37.968,466.0
37.969,450.0
37.97,497.0
37.971,514.0
37.972,565.0
37.973,503.0
37.974,469.0
37.975,469.0
37.976,497.0
37.977,504.0
37.978,548.0
37.979,528.0
37.98,553.0
37.981,488.0
37.982,468.0
37.983,486.0
37.984,505.0
37.985,523.0
37.986,568.0
37.987,561.0
37.988,551.0
37.989,499.0
37.99,484.0
37.991,506.0
37.992,525.0
37.993,548.0
37.994,583.0
37.995,586.0
37.996,572.0
37.997,526.0
37.998,511.0
37.999,529.0
38.0,543.0
38.001,576.0
38.002,584.0
38.003,618.0
38.004,575.0
38.005,535.0
38.006,522.0
38.007,543.0
38.008,558.0
38.009,601.0
38.01,574.0
38.011,640.0
38.012,578.0
38.013,540.0
38.014,534.0
38.015,552.0
38.016,571.0
38.017,611.0
38.018,595.0
38.019,625.0
38.02,564.0
38.021,534.0
38.022,535.0
38.023,552.0
38.024,578.0
38.025,605.0
38.026,588.0
38.027,614.0
38.028,566.0
38.029,533.0
38.03,542.0
38.031,557.0
38.032,586.0
38.033,619.0
38.034,605.0
38.035,608.0
38.036,566.0
38.037,533.0
38.038,548.0
38.039,564.0
38.04,601.0
38.041,605.0
38.042,605.0
38.043,596.0
38.044,570.0
38.045,536.0
38.046,549.0
38.047,564.0
38.048,602.0
38.049,612.0
38.05,602.0
38.051,562.0
38.052,554.0
38.053,534.0
38.054,542.0
38.055,563.0
38.056,603.0
38.057,597.0
38.058,578.0
38.059,554.0
38.06,571.0
38.061,545.0
38.062,545.0
38.063,565.0
38.064,629.0
38.065,600.0
38.066,579.0
38.067,561.0
38.068,582.0
38.069,559.0
38.07,550.0
38.071,571.0
38.072,637.0
38.073,607.0
38.074,571.0
38.075,576.0
38.076,622.0
38.077,590.0
38.078,554.0
38.079,568.0
38.08,617.0
38.081,640.0
38.082,578.0
38.083,565.0
38.084,587.0
38.085,567.0
38.086,557.0
38.087,597.0
38.088,628.0
38.089,626.0
38.09,567.0
38.091,573.0
38.092,611.0
38.093,582.0
38.094,554.0
38.095,602.0
38.096,615.0
38.097,639.0
38.098,577.0
38.099,565.0
38.1,586.0
38.101,574.0
38.102,571.0
38.103,634.0
38.104,632.0
38.105,648.0
38.106,599.0
38.107,575.0
38.108,591.0
38.109,576.0
38.11,596.0
38.111,664.0
38.112,657.0
38.113,655.0
38.114,609.0
38.115,581.0
38.116,593.0
38.117,586.0
38.118,619.0
38.119,658.0
38.12,670.0
38.121,626.0
38.122,592.0
38.123,575.0
38.124,587.0
38.125,581.0
38.126,622.0
38.127,628.0
38.128,667.0
38.129,614.0
38.13,578.0
38.131,569.0
38.132,579.0
38.133,583.0
38.134,613.0
38.135,610.0
38.136,657.0
38.137,589.0
38.138,563.0
38.139,559.0
38.14,574.0
38.141,585.0
38.142,602.0
38.143,597.0
38.144,634.0
38.145,578.0
38.146,556.0
38.147,560.0
38.148,573.0
38.149,589.0
38.15,580.0
38.151,607.0
38.152,628.0
38.153,579.0
38.154,553.0
38.155,564.0
38.156,574.0
38.157,598.0
38.158,575.0
38.159,633.0
38.16,619.0
38.161,572.0
38.162,549.0
38.163,563.0
38.164,561.0
38.165,605.0
38.166,578.0
38.167,646.0
38.168,602.0
38.169,565.0
38.17,542.0
38.171,559.0
38.172,578.0
38.173,604.0
38.174,568.0
38.175,642.0
38.176,599.0
38.177,565.0
38.178,545.0
38.179,560.0
38.18,585.0
38.181,624.0
38.182,578.0
38.183,617.0
38.184,589.0
38.185,568.0
38.186,546.0
38.187,561.0
38.188,580.0
38.189,628.0
38.19,597.0
38.191,583.0
38.192,604.0
38.193,600.0
38.194,554.0
38.195,556.0
38.196,577.0
38.197,622.0
38.198,642.0
38.199,595.0
38.2,704.0
38.201,717.0
38.202,582.0
38.203,567.0
38.204,569.0
38.205,630.0
38.206,845.0
38.207,859.0
38.208,1000.0
38.209,1003.0
38.21,818.0
38.211,640.0
38.212,544.0
38.213,511.0
38.214,998.0
38.215,1017.0
38.216,1008.0
38.217,1009.0
38.218,883.0
38.219,621.0
38.22,477.0
38.221,448.0
38.222,1018.0
38.223,1012.0
38.224,1014.0
38.225,1009.0
38.226,892.0
38.227,555.0
38.228,386.0
38.229,370.0
38.23,455.0
38.231,489.0
38.232,681.0
38.233,697.0
38.234,462.0
38.235,337.0
38.236,369.0
38.237,401.0
38.238,363.0
38.239,392.0
38.24,488.0
38.241,531.0
38.242,379.0
38.243,345.0
38.244,413.0
38.245,464.0
38.246,397.0
38.247,368.0
38.248,396.0
38.249,444.0
38.25,390.0
38.251,426.0
38.252,467.0
38.253,527.0
38.254,471.0
38.255,433.0
38.256,437.0
38.257,457.0
38.258,465.0
38.259,515.0
38.26,504.0
38.261,550.0
38.262,485.0
38.263,462.0
38.264,476.0
38.265,486.0
38.266,506.0
38.267,558.0
38.268,534.0
38.269,543.0
38.27,475.0
38.271,464.0
38.272,491.0
38.273,506.0
38.274,522.0
38.275,570.0
38.276,594.0
38.277,553.0
38.278,503.0
38.279,489.0
38.28,515.0
38.281,523.0
38.282,564.0
38.283,596.0
38.284,617.0
38.285,565.0
38.286,521.0
38.287,511.0
38.288,535.0
38.289,548.0
38.29,591.0
38.291,580.0
38.292,631.0
38.293,575.0
38.294,530.0
38.295,524.0
38.296,548.0
38.297,563.0
38.298,610.0
38.299,575.0
38.3,625.0
38.301,575.0
38.302,538.0
38.303,539.0
38.304,557.0
38.305,582.0
38.306,613.0
38.307,599.0
38.308,614.0
38.309,558.0
38.31,524.0
38.311,536.0
38.312,558.0
38.313,583.0
38.314,623.0
38.315,622.0
38.316,620.0
38.317,574.0
38.318,546.0
38.319,554.0
38.32,571.0
38.321,596.0
38.322,621.0
38.323,631.0
38.324,602.0
38.325,568.0
38.326,539.0
38.327,557.0
38.328,577.0
38.329,610.0
38.33,616.0
38.331,629.0
38.332,592.0
38.333,564.0
38.334,540.0
38.335,557.0
38.336,581.0
38.337,626.0
38.338,618.0
38.339,614.0
38.34,569.0
38.341,561.0
38.342,539.0
38.343,551.0
38.344,579.0
38.345,644.0
38.346,609.0
38.347,590.0
38.348,562.0
38.349,565.0
38.35,547.0
38.351,550.0
38.352,581.0
38.353,636.0
38.354,613.0
38.355,573.0
38.356,565.0
38.357,592.0
38.358,559.0
38.359,552.0
38.36,579.0
38.361,633.0
38.362,610.0
38.363,566.0
38.364,582.0
38.365,614.0
38.366,573.0
38.367,553.0
38.368,584.0
38.369,615.0
38.37,634.0
38.371,571.0
38.372,565.0
38.373,594.0
38.374,564.0
38.375,556.0
38.376,609.0
38.377,630.0
38.378,622.0
38.379,564.0
38.38,566.0
38.381,599.0
38.382,569.0
38.383,562.0
38.384,627.0
38.385,630.0
38.386,647.0
38.387,588.0
38.388,566.0
38.389,588.0
38.39,567.0
38.391,585.0
38.392,642.0
38.393,634.0
38.394,633.0
38.395,582.0
38.396,564.0
38.397,583.0
38.398,572.0
38.399,599.0
38.4,649.0
38.401,659.0
38.402,636.0
38.403,592.0
38.404,570.0
38.405,585.0
38.406,580.0
38.407,622.0
38.408,633.0
38.409,658.0
38.41,609.0
38.411,572.0
38.412,561.0
38.413,582.0
38.414,582.0
38.415,619.0
38.416,617.0
38.417,668.0
38.418,597.0
38.419,566.0
38.42,560.0
38.421,578.0
38.422,583.0
38.423,601.0
38.424,608.0
38.425,638.0
38.426,578.0
38.427,550.0
38.428,557.0
38.429,572.0
38.43,581.0
38.431,584.0
38.432,620.0
38.433,614.0
38.434,559.0
38.435,539.0
38.436,558.0
38.437,569.0
38.438,585.0
38.439,577.0
38.44,632.0
38.441,609.0
38.442,560.0
38.443,541.0
38.444,559.0
38.445,570.0
38.446,597.0
38.447,579.0
38.448,646.0
38.449,606.0
38.45,553.0
38.451,538.0
38.452,568.0
38.453,573.0
38.454,594.0
38.455,587.0
38.456,656.0
38.457,587.0
38.458,550.0
38.459,537.0
38.46,551.0
38.461,577.0
38.462,596.0
38.463,587.0
38.464,627.0
38.465,570.0
38.466,550.0
38.467,538.0
38.468,559.0
38.469,580.0
38.47,603.0
38.471,575.0
38.472,603.0
38.473,588.0
38.474,555.0
38.475,545.0
38.476,563.0
38.477,585.0
38.478,630.0
38.479,598.0
38.48,576.0
38.481,611.0
38.482,592.0
38.483,562.0
38.484,561.0
38.485,583.0
38.486,618.0
38.487,641.0
38.488,604.0
38.489,765.0
38.49,709.0
38.491,612.0
38.492,565.0
38.493,574.0
38.494,586.0
38.495,696.0
38.496,691.0
38.497,935.0
38.498,888.0
38.499,691.0
38.5,569.0
38.501,546.0
38.502,527.0
38.503,923.0
38.504,926.0
38.505,1015.0
38.506,979.0
38.507,800.0
38.508,567.0
38.509,493.0
38.51,484.0
38.511,880.0
38.512,896.0
38.513,1010.0
38.514,958.0
38.515,722.0
38.516,485.0
38.517,441.0
38.518,466.0
38.519,590.0
38.52,702.0
38.521,920.0
38.522,814.0
38.523,540.0
38.524,385.0
38.525,405.0
38.526,423.0
38.527,435.0
38.528,546.0
38.529,720.0
38.53,659.0
38.531,430.0
38.532,372.0
38.533,402.0
38.534,460.0
38.535,382.0
38.536,365.0
38.537,435.0
38.538,435.0
38.539,393.0
38.54,442.0
38.541,465.0
38.542,515.0
38.543,448.0
38.544,420.0
38.545,450.0
38.546,455.0
38.547,465.0
38.548,518.0
38.549,514.0
38.55,519.0
38.551,464.0
38.552,448.0
38.553,481.0
38.554,486.0
38.555,501.0
38.556,555.0
38.557,530.0
38.558,522.0
38.559,473.0
38.56,462.0
38.561,503.0
38.562,501.0
38.563,532.0
38.564,562.0
38.565,580.0
38.566,538.0
38.567,493.0
38.568,485.0
38.569,519.0
38.57,523.0
38.571,565.0
38.572,566.0
38.573,608.0
38.574,546.0
38.575,504.0
38.576,500.0
38.577,530.0
38.578,543.0
38.579,586.0
38.58,568.0
38.581,615.0
38.582,542.0
38.583,505.0
38.584,509.0
38.585,537.0
38.586,552.0
38.587,596.0
38.588,572.0
38.589,597.0
38.59,546.0
38.591,511.0
38.592,523.0
38.593,546.0
38.594,565.0
38.595,611.0
38.596,614.0
38.597,604.0
38.598,558.0
38.599,530.0
38.6,540.0
38.601,557.0
38.602,583.0
38.603,611.0
38.604,623.0
38.605,597.0
38.606,558.0
38.607,532.0
38.608,547.0
38.609,563.0
38.61,596.0
38.611,592.0
38.612,612.0
38.613,566.0
38.614,537.0
38.615,510.0
38.616,536.0
38.617,558.0
38.618,599.0
38.619,593.0
38.62,624.0
38.621,566.0
38.622,539.0
38.623,526.0
38.624,542.0
38.625,569.0
38.626,609.0
38.627,600.0
38.628,592.0
38.629,549.0
38.63,534.0
38.631,521.0
38.632,538.0
38.633,570.0
38.634,618.0
38.635,595.0
38.636,553.0
38.637,536.0
38.638,566.0
38.639,533.0
38.64,528.0
38.641,557.0
38.642,607.0
38.643,579.0
38.644,546.0
38.645,546.0
38.646,560.0
38.647,536.0
38.648,535.0
38.649,571.0
38.65,629.0
38.651,588.0
38.652,539.0
38.653,569.0
38.654,609.0
38.655,565.0
38.656,537.0
38.657,580.0
38.658,609.0
38.659,605.0
38.66,541.0
38.661,555.0
38.662,583.0
38.663,547.0
38.664,543.0
38.665,606.0
38.666,602.0
38.667,578.0
38.668,536.0
38.669,565.0
38.67,593.0
38.671,553.0
38.672,546.0
38.673,610.0
38.674,625.0
38.675,609.0
38.676,557.0
38.677,550.0
38.678,571.0
38.679,553.0
38.68,573.0
38.681,618.0
38.682,627.0
38.683,604.0
38.684,554.0
38.685,553.0
38.686,575.0
38.687,555.0
38.688,585.0
38.689,627.0
38.69,657.0
38.691,621.0
38.692,576.0
38.693,561.0
38.694,576.0
38.695,562.0
38.696,613.0
38.697,616.0
38.698,655.0
38.699,579.0
38.7,546.0
38.701,550.0
38.702,571.0
38.703,568.0
38.704,604.0
38.705,597.0
38.706,632.0
38.707,568.0
38.708,540.0
38.709,553.0
38.71,568.0
38.711,564.0
38.712,591.0
38.713,613.0
38.714,622.0
38.715,567.0
38.716,543.0
38.717,556.0
38.718,569.0
38.719,584.0
38.72,582.0
38.721,636.0
38.722,625.0
38.723,581.0
38.724,557.0
38.725,567.0
38.726,576.0
38.727,600.0
38.728,566.0
38.729,638.0
38.73,597.0
38.731,556.0
38.732,538.0
38.733,554.0
38.734,565.0
38.735,596.0
38.736,547.0
38.737,632.0
38.738,580.0
38.739,538.0
38.74,529.0
38.741,560.0
38.742,565.0
38.743,577.0
38.744,591.0
38.745,645.0
38.746,576.0
38.747,540.0
38.748,538.0
38.749,553.0
38.75,573.0
38.751,573.0
38.752,573.0
38.753,605.0
38.754,571.0
38.755,529.0
38.756,532.0
38.757,550.0
38.758,572.0
38.759,591.0
38.76,558.0
38.761,581.0
38.762,574.0
38.763,538.0
38.764,537.0
38.765,549.0
38.766,576.0
38.767,586.0
38.768,579.0
38.769,555.0
38.77,620.0
38.771,572.0
38.772,555.0
38.773,556.0
38.774,573.0
38.775,586.0
38.776,607.0
38.777,590.0
38.778,754.0
38.779,692.0
38.78,608.0
38.781,553.0
38.782,564.0
38.783,559.0
38.784,762.0
38.785,783.0
38.786,1009.0
38.787,901.0
38.788,716.0
38.789,562.0
38.79,532.0
38.791,531.0
38.792,1003.0
38.793,1010.0
38.794,1017.0
38.795,992.0
38.796,840.0
38.797,556.0
38.798,462.0
38.799,543.0
38.8,989.0
38.801,1016.0
38.802,1012.0
38.803,1003.0
38.804,787.0
38.805,481.0
38.806,368.0
38.807,365.0
38.808,391.0
38.809,526.0
38.81,684.0
38.811,587.0
38.812,394.0
38.813,331.0
38.814,373.0
38.815,389.0
38.816,339.0
38.817,413.0
38.818,520.0
38.819,472.0
38.82,359.0
38.821,375.0
38.822,419.0
38.823,456.0
38.824,383.0
38.825,378.0
38.826,423.0
38.827,415.0
38.828,408.0
38.829,461.0
38.83,465.0
38.831,503.0
38.832,446.0
38.833,427.0
38.834,457.0
38.835,449.0
38.836,469.0
38.837,525.0
38.838,532.0
38.839,517.0
38.84,468.0
38.841,457.0
38.842,489.0
38.843,478.0
38.844,510.0
38.845,559.0
38.846,570.0
38.847,531.0
38.848,490.0
38.849,478.0
38.85,504.0
38.851,506.0
38.852,550.0
38.853,557.0
38.854,592.0
38.855,530.0
38.856,492.0
38.857,492.0
38.858,516.0
38.859,523.0
38.86,566.0
38.861,556.0
38.862,610.0
38.863,538.0
38.864,504.0
38.865,505.0
38.866,535.0
38.867,538.0
38.868,587.0
38.869,567.0
38.87,600.0
38.871,547.0
38.872,515.0
38.873,523.0
38.874,541.0
38.875,558.0
38.876,605.0
38.877,596.0
38.878,591.0
38.879,546.0
38.88,519.0
38.881,532.0
38.882,545.0
38.883,568.0
38.884,600.0
38.885,611.0
38.886,580.0
38.887,540.0
38.888,516.0
38.889,533.0
38.89,546.0
38.891,577.0
38.892,589.0
38.893,637.0
38.894,575.0
38.895,538.0
38.896,518.0
38.897,538.0
38.898,556.0
38.899,590.0
38.9,588.0
38.901,629.0
38.902,572.0
38.903,539.0
38.904,522.0
38.905,544.0
38.906,567.0
38.907,609.0
38.908,579.0
38.909,602.0
38.91,559.0
38.911,537.0
38.912,521.0
38.913,540.0
38.914,568.0
38.915,615.0
38.916,593.0
38.917,583.0
38.918,554.0
38.919,539.0
38.92,526.0
38.921,543.0
38.922,576.0
38.923,616.0
38.924,575.0
38.925,549.0
38.926,557.0
38.927,563.0
38.928,539.0
38.929,533.0
38.93,569.0
38.931,611.0
38.932,591.0
38.933,553.0
38.934,563.0
38.935,564.0
38.936,542.0
38.937,538.0
38.938,587.0
38.939,601.0
38.94,583.0
38.941,546.0
38.942,610.0
38.943,626.0
38.944,570.0
38.945,539.0
38.946,583.0
38.947,603.0
38.948,586.0
38.949,548.0
38.95,592.0
38.951,604.0
38.952,556.0
38.953,546.0
38.954,607.0
38.955,624.0
38.956,581.0
38.957,548.0
38.958,587.0
38.959,600.0
38.96,553.0
38.961,556.0
38.962,625.0
38.963,639.0
38.964,614.0
38.965,564.0
38.966,565.0
38.967,582.0
38.968,552.0
38.969,581.0
38.97,628.0
38.971,648.0
38.972,622.0
38.973,574.0
38.974,563.0
38.975,577.0
38.976,565.0
38.977,611.0
38.978,629.0
38.979,666.0
38.98,621.0
38.981,578.0
38.982,567.0
38.983,578.0
38.984,579.0
38.985,632.0
38.986,618.0
38.987,650.0
38.988,594.0
38.989,561.0
38.99,560.0
38.991,569.0
38.992,582.0
38.993,625.0
38.994,612.0
38.995,625.0
38.996,577.0
38.997,554.0
38.998,559.0
38.999,573.0
39.0,587.0
39.001,613.0
39.002,623.0
39.003,622.0
39.004,575.0
39.005,553.0
39.006,558.0
39.007,566.0
39.008,590.0
39.009,584.0
39.01,628.0
39.011,601.0
39.012,560.0
39.013,542.0
39.014,557.0
39.015,561.0
39.016,588.0
39.017,560.0
39.018,638.0
39.019,587.0
39.02,539.0
39.021,529.0
39.022,553.0
39.023,561.0
39.024,578.0
39.025,559.0
39.026,624.0
39.027,564.0
39.028,531.0
39.029,527.0
39.03,551.0
39.031,564.0
39.032,569.0
39.033,575.0
39.034,617.0
39.035,576.0
39.036,534.0
39.037,531.0
39.038,555.0
39.039,572.0
39.04,570.0
39.041,586.0
39.042,604.0
39.043,570.0
39.044,532.0
39.045,539.0
39.046,553.0
39.047,578.0
39.048,580.0
39.049,578.0
39.05,581.0
39.051,574.0
39.052,530.0
39.053,538.0
39.054,549.0
39.055,581.0
39.056,570.0
39.057,578.0
39.058,561.0
39.059,614.0
39.06,552.0
39.061,549.0
39.062,541.0
39.063,582.0
39.064,576.0
39.065,596.0
39.066,580.0
39.067,688.0
39.068,608.0
39.069,569.0
39.07,542.0
39.071,583.0
39.072,578.0
39.073,771.0
39.074,819.0
39.075,999.0
39.076,836.0
39.077,691.0
39.078,555.0
39.079,548.0
39.08,568.0
39.081,861.0
39.082,978.0
39.083,1013.0
39.084,912.0
39.085,719.0
39.086,517.0
39.087,481.0
39.088,550.0
39.089,865.0
39.09,1012.0
39.091,1014.0
39.092,959.0
39.093,706.0
39.094,473.0
39.095,421.0
39.096,397.0
39.097,464.0
39.098,640.0
39.099,752.0
39.1,614.0
39.101,416.0
39.102,371.0
39.103,395.0
39.104,426.0
39.105,389.0
39.106,491.0
39.107,611.0
39.108,508.0
39.109,378.0
39.11,402.0
39.111,428.0
39.112,457.0
39.113,396.0
39.114,395.0
39.115,436.0
39.116,415.0
39.117,417.0
39.118,484.0
39.119,484.0
39.12,498.0
39.121,451.0
39.122,430.0
39.123,463.0
39.124,449.0
39.125,476.0
39.126,538.0
39.127,556.0
39.128,525.0
39.129,481.0
39.13,466.0
39.131,488.0
39.132,483.0
39.133,524.0
39.134,554.0
39.135,583.0
39.136,521.0
39.137,482.0
39.138,479.0
39.139,507.0
39.14,509.0
39.141,556.0
39.142,556.0
39.143,603.0
39.144,538.0
39.145,503.0
39.146,502.0
39.147,523.0
39.148,536.0
39.149,574.0
39.15,563.0
39.151,602.0
39.152,547.0
39.153,515.0
39.154,515.0
39.155,536.0
39.156,555.0
39.157,600.0
39.158,591.0
39.159,597.0
39.16,548.0
39.161,521.0
39.162,531.0
39.163,538.0
39.164,558.0
39.165,590.0
39.166,610.0
39.167,576.0
39.168,533.0
39.169,507.0
39.17,524.0
39.171,546.0
39.172,570.0
39.173,593.0
39.174,633.0
39.175,582.0
39.176,540.0
39.177,520.0
39.178,540.0
39.179,558.0
39.18,585.0
39.181,585.0
39.182,636.0
39.183,582.0
39.184,544.0
39.185,529.0
39.186,547.0
39.187,567.0
39.188,602.0
39.189,578.0
39.19,621.0
39.191,562.0
39.192,529.0
39.193,523.0
39.194,542.0
39.195,570.0
39.196,605.0
39.197,578.0
39.198,601.0
39.199,555.0
39.2,524.0
39.201,522.0
39.202,541.0
39.203,574.0
39.204,609.0
39.205,586.0
39.206,578.0
39.207,547.0
39.208,521.0
39.209,523.0
39.21,539.0
39.211,580.0
39.212,601.0
39.213,564.0
39.214,535.0
39.215,546.0
39.216,532.0
39.217,524.0
39.218,524.0
39.219,575.0
39.22,601.0
39.221,579.0
39.222,540.0
39.223,552.0
39.224,543.0
39.225,534.0
39.226,536.0
39.227,587.0
39.228,594.0
39.229,577.0
39.23,535.0
39.231,585.0
39.232,583.0
39.233,550.0
39.234,537.0
39.235,599.0
39.236,615.0
39.237,582.0
39.238,542.0
39.239,565.0
39.24,565.0
39.241,543.0
39.242,555.0
39.243,627.0
39.244,626.0
39.245,569.0
39.246,536.0
39.247,568.0
39.248,575.0
39.249,543.0
39.25,563.0
39.251,618.0
39.252,640.0
39.253,586.0
39.254,545.0
39.255,558.0
39.256,574.0
39.257,548.0
39.258,591.0
39.259,630.0
39.26,663.0
39.261,623.0
39.262,594.0
39.263,567.0
39.264,573.0
39.265,572.0
39.266,627.0
39.267,620.0
39.268,674.0
39.269,630.0
39.27,587.0
39.271,578.0
39.272,579.0
39.273,594.0
39.274,638.0
39.275,627.0
39.276,633.0
39.277,593.0
39.278,565.0
39.279,568.0
39.28,573.0
39.281,595.0
39.282,643.0
39.283,629.0
39.284,613.0
39.285,571.0
39.286,547.0
39.287,560.0
39.288,564.0
39.289,591.0
39.29,615.0
39.291,636.0
39.292,595.0
39.293,561.0
39.294,545.0
39.295,558.0
39.296,564.0
39.297,598.0
39.298,592.0
39.299,646.0
39.3,596.0
39.301,558.0
39.302,543.0
39.303,567.0
39.304,571.0
39.305,595.0
39.306,565.0
39.307,647.0
39.308,581.0
39.309,552.0
39.31,541.0
39.311,558.0
39.312,572.0
39.313,581.0
39.314,560.0
39.315,618.0
39.316,563.0
39.317,535.0
39.318,535.0
39.319,553.0
39.32,563.0
39.321,578.0
39.322,590.0
39.323,600.0
39.324,562.0
39.325,524.0
39.326,534.0
39.327,553.0
39.328,573.0
39.329,573.0
39.33,596.0
39.331,605.0
39.332,570.0
39.333,533.0
39.334,545.0
39.335,562.0
39.336,588.0
39.337,569.0
39.338,602.0
39.339,573.0
39.34,570.0
39.341,529.0
39.342,540.0
39.343,555.0
39.344,592.0
39.345,570.0
39.346,595.0
39.347,561.0
39.348,588.0
39.349,538.0
39.35,549.0
39.351,558.0
39.352,605.0
39.353,588.0
39.354,582.0
39.355,590.0
39.356,677.0
39.357,595.0
39.358,574.0
39.359,556.0
39.36,598.0
39.361,594.0
39.362,753.0
39.363,814.0
39.364,968.0
39.365,772.0
39.366,666.0
39.367,554.0
39.368,553.0
39.369,591.0
39.37,811.0
39.371,988.0
39.372,1009.0
39.373,861.0
39.374,687.0
39.375,520.0
39.376,493.0
39.377,697.0
39.378,895.0
39.379,1010.0
39.38,1007.0
39.381,885.0
39.382,629.0
39.383,452.0
39.384,408.0
39.385,472.0
39.386,530.0
39.387,749.0
39.388,915.0
39.389,683.0
39.39,451.0
39.391,384.0
39.392,393.0
39.393,422.0
39.394,391.0
39.395,515.0
39.396,589.0
39.397,483.0
39.398,374.0
39.399,411.0
39.4,432.0
39.401,410.0
39.402,378.0
39.403,412.0
39.404,469.0
39.405,418.0
39.406,406.0
39.407,472.0
39.408,496.0
39.409,472.0
39.41,422.0
39.411,424.0
39.412,462.0
39.413,446.0
39.414,472.0
39.415,514.0
39.416,537.0
39.417,499.0
39.418,458.0
39.419,453.0
39.42,487.0
39.421,484.0
39.422,524.0
39.423,543.0
39.424,586.0
39.425,516.0
39.426,482.0
39.427,479.0
39.428,510.0
39.429,514.0
39.43,555.0
39.431,544.0
39.432,591.0
39.433,528.0
39.434,497.0
39.435,501.0
39.436,519.0
39.437,530.0
39.438,568.0
39.439,573.0
39.44,565.0
39.441,502.0
39.442,482.0
39.443,504.0
39.444,528.0
39.445,539.0
39.446,580.0
39.447,596.0
39.448,576.0
39.449,527.0
39.45,505.0
39.451,526.0
39.452,539.0
39.453,566.0
39.454,586.0
39.455,609.0
39.456,579.0
39.457,536.0
39.458,515.0
39.459,535.0
39.46,548.0
39.461,588.0
39.462,578.0
39.463,640.0
39.464,584.0
39.465,536.0
39.466,522.0
39.467,545.0
39.468,563.0
39.469,603.0
39.47,571.0
39.471,637.0
39.472,569.0
39.473,534.0
39.474,525.0
39.475,541.0
39.476,563.0
39.477,612.0
39.478,577.0
39.479,607.0
39.48,556.0
39.481,526.0
39.482,527.0
39.483,547.0
39.484,575.0
39.485,592.0
39.486,564.0
39.487,582.0
39.488,545.0
39.489,520.0
39.49,523.0
39.491,540.0
39.492,578.0
39.493,615.0
39.494,591.0
39.495,572.0
39.496,544.0
39.497,523.0
39.498,529.0
39.499,545.0
39.5,586.0
39.501,602.0
39.502,572.0
39.503,535.0
39.504,540.0
39.505,528.0
39.506,531.0
39.507,539.0
39.508,588.0
39.509,590.0
39.51,564.0
39.511,533.0
39.512,550.0
39.513,548.0
39.514,537.0
39.515,542.0
39.516,593.0
39.517,573.0
39.518,560.0
39.519,534.0
39.52,586.0
39.521,575.0
39.522,551.0
39.523,544.0
39.524,599.0
39.525,604.0
39.526,559.0
39.527,537.0
39.528,580.0
39.529,570.0
39.53,546.0
39.531,550.0
39.532,616.0
39.533,615.0
39.534,553.0
39.535,534.0
39.536,570.0
39.537,574.0
39.538,540.0
39.539,564.0
39.54,609.0
39.541,636.0
39.542,575.0
39.543,525.0
39.544,560.0
39.545,559.0
39.546,548.0
39.547,598.0
39.548,607.0
39.549,647.0
39.55,593.0
39.551,554.0
39.552,562.0
39.553,563.0
39.554,569.0
39.555,618.0
39.556,607.0
39.557,635.0
39.558,590.0
39.559,557.0
39.56,563.0
39.561,554.0
39.562,568.0
39.563,618.0
39.564,620.0
39.565,610.0
39.566,566.0
39.567,543.0
39.568,559.0
39.569,556.0
39.57,579.0
39.571,630.0
39.572,621.0
39.573,582.0
39.574,546.0
39.575,532.0
39.576,556.0
39.577,557.0
39.578,584.0
39.579,610.0
39.58,646.0
39.581,598.0
39.582,562.0
39.583,547.0
39.584,566.0
39.585,568.0
39.586,598.0
39.587,585.0
39.588,657.0
39.589,586.0
39.59,561.0
39.591,549.0
39.592,566.0
39.593,571.0
39.594,582.0
39.595,575.0
39.596,628.0
39.597,571.0
39.598,541.0
39.599,542.0
39.6,562.0
39.601,564.0
39.602,569.0
39.603,576.0
39.604,608.0
39.605,567.0
39.606,534.0
39.607,542.0
39.608,559.0
39.609,576.0
39.61,575.0
39.611,607.0
39.612,600.0
39.613,567.0
39.614,535.0
39.615,546.0
39.616,564.0
39.617,583.0
39.618,570.0
39.619,616.0
39.62,583.0
39.621,568.0
39.622,531.0
39.623,550.0
39.624,558.0
39.625,595.0
39.626,562.0
39.627,616.0
39.628,573.0
39.629,579.0
39.63,537.0
39.631,555.0
39.632,565.0
39.633,606.0
39.634,569.0
39.635,602.0
39.636,572.0
39.637,597.0
39.638,549.0
39.639,556.0
39.64,565.0
39.641,618.0
39.642,575.0
39.643,579.0
39.644,607.0
39.645,689.0
39.646,598.0
39.647,574.0
39.648,565.0
39.649,610.0
39.65,639.0
39.651,773.0
39.652,901.0
39.653,999.0
39.654,793.0
39.655,658.0
39.656,610.0
39.657,551.0
39.658,700.0
39.659,795.0
39.66,1010.0
39.661,1007.0
39.662,843.0
39.663,635.0
39.664,606.0
39.665,495.0
39.666,957.0
39.667,1006.0
39.668,1013.0
39.669,1010.0
39.67,930.0
39.671,654.0
39.672,455.0
39.673,405.0
39.674,587.0
39.675,625.0
39.676,882.0
39.677,957.0
39.678,682.0
39.679,427.0
39.68,364.0
39.681,372.0
39.682,385.0
39.683,393.0
39.684,520.0
39.685,607.0
39.686,460.0
39.687,355.0
39.688,395.0
39.689,418.0
39.69,386.0
39.691,359.0
39.692,398.0
39.693,443.0
39.694,387.0
39.695,396.0
39.696,461.0
39.697,497.0
39.698,477.0
39.699,432.0
39.7,424.0
39.701,451.0
39.702,442.0
39.703,489.0
39.704,505.0
39.705,550.0
39.706,495.0
39.707,460.0
39.708,452.0
39.709,481.0
39.71,485.0
39.711,534.0
39.712,526.0
39.713,573.0
39.714,506.0
39.715,479.0
39.716,484.0
39.717,500.0
39.718,515.0
39.719,563.0
39.72,553.0
39.721,561.0
39.722,507.0
39.723,489.0
39.724,504.0
39.725,518.0
39.726,536.0
39.727,579.0
39.728,582.0
39.729,570.0
39.73,525.0
39.731,505.0
39.732,520.0
39.733,536.0
39.734,565.0
39.735,597.0
39.736,614.0
39.737,587.0
39.738,547.0
39.739,527.0
39.74,541.0
39.741,552.0
39.742,595.0
39.743,599.0
39.744,636.0
39.745,579.0
39.746,541.0
39.747,529.0
39.748,543.0
39.749,561.0
39.75,602.0
39.751,576.0
39.752,641.0
39.753,584.0
39.754,548.0
39.755,540.0
39.756,549.0
39.757,572.0
39.758,614.0
39.759,583.0
39.76,627.0
39.761,575.0
39.762,544.0
39.763,545.0
39.764,555.0
39.765,583.0
39.766,607.0
39.767,591.0
39.768,622.0
39.769,577.0
39.77,549.0
39.771,551.0
39.772,562.0
39.773,589.0
39.774,600.0
39.775,582.0
39.776,595.0
39.777,560.0
39.778,532.0
39.779,541.0
39.78,559.0
39.781,595.0
39.782,607.0
39.783,600.0
39.784,576.0
39.785,554.0
39.786,532.0
39.787,539.0
39.788,560.0
39.789,602.0
39.79,610.0
39.791,591.0
39.792,552.0
39.793,555.0
39.794,530.0
39.795,535.0
39.796,555.0
39.797,611.0
39.798,610.0
39.799,578.0
39.8,550.0
39.801,564.0
39.802,543.0
39.803,538.0
39.804,562.0
39.805,625.0
39.806,582.0
39.807,561.0
39.808,561.0
39.809,613.0
39.81,577.0
39.811,548.0
39.812,551.0
39.813,608.0
39.814,608.0
39.815,560.0
39.816,559.0
39.817,598.0
39.818,574.0
39.819,546.0
39.82,563.0
39.821,624.0
39.822,611.0
39.823,557.0
39.824,556.0
39.825,597.0
39.826,569.0
39.827,541.0
39.828,578.0
39.829,607.0
39.83,638.0
39.831,571.0
39.832,551.0
39.833,574.0
39.834,561.0
39.835,548.0
39.836,607.0
39.837,618.0
39.838,655.0
39.839,602.0
39.84,570.0
39.841,573.0
39.842,564.0
39.843,585.0
39.844,632.0
39.845,622.0
39.846,629.0
39.847,586.0
39.848,561.0
39.849,556.0
39.85,562.0
39.851,585.0
39.852,642.0
39.853,641.0
39.854,606.0
39.855,572.0
39.856,550.0
39.857,567.0
39.858,563.0
39.859,598.0
39.86,625.0
39.861,659.0
39.862,620.0
39.863,583.0
39.864,561.0
39.865,573.0
39.866,577.0
39.867,621.0
39.868,622.0
39.869,665.0
39.87,608.0
39.871,581.0
39.872,567.0
39.873,581.0
39.874,585.0
39.875,608.0
39.876,595.0
39.877,632.0
39.878,573.0
39.879,547.0
39.88,548.0
39.881,556.0
39.882,565.0
39.883,576.0
39.884,587.0
39.885,615.0
39.886,557.0
39.887,537.0
39.888,541.0
39.889,558.0
39.89,575.0
39.891,567.0
39.892,603.0
39.893,608.0
39.894,563.0
39.895,539.0
39.896,547.0
39.897,563.0
39.898,585.0
39.899,559.0
39.9,622.0
39.901,593.0
39.902,553.0
39.903,533.0
39.904,547.0
39.905,559.0
39.906,592.0
39.907,560.0
39.908,627.0
39.909,581.0
39.91,551.0
39.911,527.0
39.912,545.0
39.913,564.0
39.914,594.0
39.915,566.0
39.916,619.0
39.917,575.0
39.918,564.0
39.919,531.0
39.92,548.0
39.921,569.0
39.922,624.0
39.923,577.0
39.924,586.0
39.925,593.0
39.926,587.0
39.927,539.0
39.928,545.0
39.929,568.0
39.93,616.0
39.931,603.0
39.932,590.0
39.933,717.0
39.934,740.0
39.935,595.0
39.936,557.0
39.937,555.0
39.938,593.0
39.939,807.0
39.94,916.0
39.941,1014.0
39.942,1007.0
39.943,828.0
39.944,644.0
39.945,536.0
39.946,527.0
39.947,1012.0
39.948,1009.0
39.949,1021.0
39.95,1017.0
39.951,879.0
39.952,595.0
39.953,471.0
39.954,447.0
39.955,1016.0
39.956,1018.0
39.957,1022.0
39.958,1019.0
39.959,1004.0
39.96,701.0
39.961,476.0
39.962,567.0
39.963,1012.0
39.964,1014.0
39.965,1021.0
39.966,1019.0
39.967,1018.0
39.968,867.0
39.969,897.0
39.97,927.0
39.971,1016.0
39.972,1020.0
39.973,1020.0
39.974,1021.0
39.975,1019.0
39.976,1014.0
39.977,961.0
39.978,998.0
39.979,1019.0
39.98,1020.0
39.981,1019.0
39.982,1023.0
39.983,1021.0
39.984,1009.0
39.985,878.0
39.986,985.0
39.987,1018.0
39.988,1019.0
39.989,1017.0
39.99,1018.0
39.991,1018.0
39.992,1010.0
39.993,549.0
39.994,968.0
39.995,1020.0
39.996,1018.0
39.997,1016.0
39.998,1019.0
39.999,1019.0
40.0,1016.0
40.001,384.0
40.002,1016.0
40.003,1018.0
40.004,1021.0
40.005,1017.0
40.006,1017.0
40.007,1022.0
40.008,1020.0
40.009,1019.0
40.01,1019.0
40.011,1019.0
40.012,1022.0
40.013,1020.0
40.014,1019.0
40.015,896.0
40.016,1022.0
40.017,1022.0
40.018,1018.0
40.019,1019.0
40.02,1021.0
40.021,1022.0
40.022,1018.0
40.023,1.0
40.024,1.0
40.025,1019.0
40.026,1019.0
40.027,1020.0
40.028,1021.0
40.029,1020.0
40.03,1016.0
40.031,1018.0
40.032,1018.0
40.033,1015.0
40.034,1017.0
40.035,1019.0
40.036,1019.0
40.037,1021.0
40.038,1017.0
40.039,1021.0
40.04,1020.0
40.041,1019.0
40.042,1021.0
40.043,1020.0
40.044,1019.0
40.045,1021.0
40.046,1020.0
40.047,1019.0
40.048,1019.0
40.049,1020.0
40.05,1020.0
40.051,1018.0
40.052,1021.0
40.053,1018.0
40.054,1020.0
40.055,1019.0
40.056,1019.0
40.057,1020.0
40.058,1021.0
40.059,1019.0
40.06,1021.0
40.061,1020.0
40.062,1020.0
40.063,1019.0
40.064,1021.0
40.065,1020.0
40.066,1019.0
40.067,1019.0
40.068,1021.0
40.069,1020.0
40.07,1019.0
40.071,1012.0
40.072,1020.0
40.073,1020.0
40.074,1019.0
40.075,1021.0
40.076,1021.0
40.077,1020.0
40.078,1018.0
40.079,1.0
40.08,1023.0
40.081,1020.0
40.082,1018.0
40.083,1019.0
40.084,1020.0
40.085,1018.0
40.086,1019.0
40.087,1018.0
40.088,1020.0
40.089,1020.0
40.09,1021.0
40.091,1018.0
40.092,1019.0
40.093,1018.0
40.094,1020.0
40.095,1005.0
40.096,1018.0
40.097,1019.0
40.098,1019.0
40.099,1022.0
40.1,1020.0
40.101,76.0
40.102,1021.0
40.103,1020.0
40.104,1018.0
40.105,1019.0
40.106,1020.0
40.107,1019.0
40.108,1020.0
40.109,1010.0
40.11,1020.0
40.111,3.0
40.112,1018.0
40.113,1018.0
40.114,1019.0
40.115,1019.0
40.116,1021.0
40.117,1019.0
40.118,1018.0
40.119,2.0
40.12,1021.0
40.121,1018.0
40.122,1021.0
40.123,1020.0
40.124,1019.0
40.125,1020.0
40.126,1019.0
40.127,0.0
40.128,0.0
40.129,1017.0
40.13,1019.0
40.131,1009.0
40.132,1022.0
40.133,1021.0
40.134,1021.0
40.135,1020.0
40.136,1020.0
40.137,1019.0
40.138,1023.0
40.139,1019.0
40.14,0.0
40.141,655.0
40.142,1022.0
40.143,1019.0
40.144,1019.0
40.145,1021.0
40.146,1020.0
40.147,539.0
40.148,0.0
40.149,0.0
40.15,1018.0
40.151,1021.0
40.152,1019.0
40.153,1018.0
40.154,1020.0
40.155,2.0
40.156,1.0
40.157,1018.0
40.158,1020.0
40.159,1019.0
40.16,1018.0
40.161,1021.0
40.162,1018.0
40.163,1020.0
40.164,1.0
40.165,0.0
40.166,1018.0
40.167,1020.0
40.168,1020.0
40.169,1023.0
40.17,1021.0
40.171,1018.0
40.172,1020.0
40.173,1020.0
40.174,1017.0
40.175,1020.0
40.176,1020.0
40.177,1019.0
40.178,1019.0
40.179,0.0
40.18,0.0
40.181,1020.0
40.182,1019.0
40.183,1021.0
40.184,1021.0
40.185,1020.0
40.186,1021.0
40.187,2.0
40.188,0.0
40.189,1022.0
40.19,1019.0
40.191,1020.0
40.192,1021.0
40.193,1018.0
40.194,1021.0
40.195,483.0
40.196,1.0
40.197,1020.0
40.198,1019.0
40.199,1017.0
40.2,1018.0
40.201,1019.0
40.202,1019.0
40.203,1020.0
40.204,0.0
40.205,1021.0
40.206,1018.0
40.207,1021.0
40.208,1018.0
40.209,1019.0
40.21,1019.0
40.211,1022.0
40.212,1018.0
40.213,1004.0
40.214,1020.0
40.215,1020.0
40.216,1018.0
40.217,1019.0
40.218,1018.0
40.219,1020.0
40.22,1018.0
40.221,0.0
40.222,1019.0
40.223,1021.0
40.224,1018.0
40.225,1020.0
40.226,1018.0
40.227,0.0
40.228,1021.0
40.229,1021.0
40.23,1019.0
40.231,1021.0
40.232,1019.0
40.233,1021.0
40.234,1020.0
40.235,1019.0
40.236,1019.0
40.237,1018.0
40.238,1019.0
40.239,1020.0
40.24,1017.0
40.241,1018.0
40.242,1020.0
40.243,2.0
40.244,1019.0
40.245,1020.0
40.246,1020.0
40.247,1020.0
40.248,1018.0
40.249,1019.0
40.25,1021.0
40.251,0.0
40.252,1013.0
40.253,1019.0
40.254,1020.0
40.255,1021.0
40.256,1020.0
40.257,785.0
40.258,1019.0
40.259,1020.0
40.26,1018.0
40.261,1018.0
40.262,1018.0
40.263,1018.0
40.264,1018.0
40.265,0.0
40.266,1018.0
40.267,1021.0
40.268,1021.0
40.269,1018.0
40.27,1022.0
40.271,1018.0
40.272,1020.0
40.273,977.0
40.274,1023.0
40.275,1018.0
40.276,1019.0
40.277,1019.0
40.278,999.0
40.279,1018.0
40.28,345.0
40.281,1019.0
40.282,1018.0
40.283,1019.0
40.284,1018.0
40.285,1021.0
40.286,1018.0
40.287,1019.0
40.288,881.0
