44.056,664.0
44.057,657.0
44.058,629.0
44.059,538.0
44.06,519.0
44.061,514.0
44.062,531.0
44.063,607.0
44.064,666.0
44.065,667.0
44.066,627.0
44.067,531.0
44.068,506.0
44.069,512.0
44.07,541.0
44.071,635.0
44.072,669.0
44.073,670.0
44.074,610.0
44.075,518.0
44.076,521.0
44.077,513.0
44.078,553.0
44.079,645.0
44.08,661.0
44.081,660.0
44.082,581.0
44.083,512.0
44.084,532.0
44.085,515.0
44.086,564.0
44.087,649.0
44.088,662.0
44.089,647.0
44.09,561.0
44.091,519.0
44.092,533.0
44.093,517.0
44.094,578.0
44.095,660.0
44.096,660.0
44.097,626.0
44.098,539.0
44.099,559.0
44.1,565.0
44.101,521.0
44.102,589.0
44.103,656.0
44.104,648.0
44.105,594.0
44.106,549.0
44.107,634.0
44.108,625.0
44.109,521.0
44.11,567.0
44.111,639.0
44.112,628.0
44.113,563.0
44.114,586.0
44.115,710.0
44.116,651.0
44.117,522.0
44.118,588.0
44.119,614.0
44.12,596.0
44.121,517.0
44.122,706.0
44.123,880.0
44.124,756.0
44.125,517.0
44.126,567.0
44.127,599.0
44.128,588.0
44.129,499.0
44.13,643.0
44.131,710.0
44.132,615.0
44.133,506.0
44.134,598.0
44.135,617.0
44.136,590.0
44.137,494.0
44.138,577.0
44.139,586.0
44.14,505.0
44.141,534.0
44.142,615.0
44.143,618.0
44.144,600.0
44.145,494.0
44.146,533.0
44.147,527.0
44.148,481.0
44.149,574.0
44.15,626.0
44.151,630.0
44.152,603.0
44.153,497.0
44.154,513.0
44.155,511.0
44.156,499.0
44.157,613.0
44.158,634.0
44.159,643.0
44.16,607.0
44.161,503.0
44.162,504.0
44.163,506.0
44.164,534.0
44.165,637.0
44.166,639.0
44.167,647.0
44.168,582.0
44.169,493.0
44.17,510.0
44.171,506.0
44.172,552.0
44.173,650.0
44.174,641.0
44.175,631.0
44.176,566.0
44.177,492.0
44.178,512.0
44.179,512.0
44.18,583.0
44.181,660.0
44.182,649.0
44.183,626.0
44.184,553.0
44.185,491.0
44.186,522.0
44.187,525.0
44.188,614.0
44.189,655.0
44.19,652.0
44.191,614.0
44.192,529.0
44.193,490.0
44.194,525.0
44.195,533.0
44.196,626.0
44.197,637.0
44.198,654.0
44.199,598.0
44.2,518.0
44.201,495.0
44.202,511.0
44.203,557.0
44.204,640.0
44.205,637.0
44.206,649.0
44.207,573.0
44.208,503.0
44.209,498.0
44.21,516.0
44.211,572.0
44.212,644.0
44.213,637.0
44.214,640.0
44.215,558.0
44.216,495.0
44.217,500.0
44.218,519.0
44.219,590.0
44.22,643.0
44.221,648.0
44.222,635.0
44.223,545.0
44.224,493.0
44.225,505.0
44.226,529.0
44.227,618.0
44.228,644.0
44.229,640.0
44.23,608.0
44.231,527.0
44.232,490.0
44.233,504.0
44.234,531.0
44.235,626.0
44.236,641.0
44.237,633.0
44.238,585.0
44.239,525.0
44.24,500.0
44.241,509.0
44.242,542.0
44.243,635.0
44.244,641.0
44.245,625.0
44.246,562.0
44.247,539.0
44.248,518.0
44.249,515.0
44.25,553.0
44.251,642.0
44.252,634.0
44.253,595.0
44.254,533.0
44.255,639.0
44.256,561.0
44.257,523.0
44.258,551.0
44.259,642.0
44.26,613.0
44.261,558.0
44.262,554.0
44.263,826.0
44.264,637.0
44.265,530.0
44.266,547.0
44.267,629.0
44.268,581.0
44.269,520.0
44.27,660.0
44.271,977.0
44.272,674.0
44.273,515.0
44.274,539.0
44.275,584.0
44.276,537.0
44.277,484.0
44.278,890.0
44.279,1010.0
44.28,758.0
44.281,502.0
44.282,503.0
44.283,535.0
44.284,483.0
44.285,492.0
44.286,1013.0
44.287,1009.0
44.288,788.0
44.289,455.0
44.29,483.0
44.291,498.0
44.292,464.0
44.293,425.0
44.294,795.0
44.295,899.0
44.296,531.0
44.297,422.0
44.298,505.0
44.299,512.0
44.3,467.0
44.301,421.0
44.302,653.0
44.303,672.0
44.304,450.0
44.305,463.0
44.306,531.0
44.307,534.0
44.308,489.0
44.309,438.0
44.31,543.0
44.311,537.0
44.312,444.0
44.313,526.0
44.314,562.0
44.315,570.0
44.316,517.0
44.317,440.0
44.318,478.0
44.319,478.0
44.32,484.0
44.321,584.0
44.322,582.0
44.323,593.0
44.324,521.0
44.325,451.0
44.326,477.0
44.327,465.0
44.328,523.0
44.329,611.0
44.33,597.0
44.331,595.0
44.332,508.0
44.333,460.0
44.334,488.0
44.335,488.0
44.336,550.0
44.337,631.0
44.338,607.0
44.339,591.0
44.34,500.0
44.341,475.0
44.342,497.0
44.343,498.0
44.344,585.0
44.345,639.0
44.346,624.0
44.347,593.0
44.348,501.0
44.349,487.0
44.35,502.0
44.351,509.0
44.352,612.0
44.353,640.0
44.354,634.0
44.355,588.0
44.356,494.0
44.357,492.0
44.358,501.0
44.359,527.0
44.36,634.0
44.361,639.0
44.362,648.0
44.363,583.0
44.364,495.0
44.365,487.0
44.366,508.0
44.367,552.0
44.368,651.0
44.369,644.0
44.37,642.0
44.371,566.0
44.372,493.0
44.373,497.0
44.374,507.0
44.375,574.0
44.376,659.0
44.377,651.0
44.378,634.0
44.379,550.0
44.38,497.0
44.381,499.0
44.382,514.0
44.383,595.0
44.384,663.0
44.385,649.0
44.386,622.0
44.387,530.0
44.388,496.0
44.389,503.0
44.39,525.0
44.391,615.0
44.392,665.0
44.393,649.0
44.394,603.0
44.395,521.0
44.396,512.0
44.397,513.0
44.398,536.0
44.399,629.0
44.4,659.0
44.401,650.0
44.402,579.0
44.403,519.0
44.404,547.0
44.405,519.0
44.406,546.0
44.407,632.0
44.408,656.0
44.409,624.0
44.41,544.0
44.411,574.0
44.412,625.0
44.413,550.0
44.414,544.0
44.415,623.0
44.416,642.0
44.417,596.0
44.418,535.0
44.419,664.0
44.42,685.0
44.421,563.0
44.422,548.0
44.423,631.0
44.424,630.0
44.425,578.0
44.426,537.0
44.427,674.0
44.428,659.0
44.429,531.0
44.43,559.0
44.431,617.0
44.432,607.0
44.433,550.0
44.434,597.0
44.435,785.0
44.436,696.0
44.437,526.0
44.438,556.0
44.439,593.0
44.44,582.0
44.441,508.0
44.442,693.0
44.443,938.0
44.444,760.0
44.445,514.0
44.446,546.0
44.447,564.0
44.448,574.0
44.449,492.0
44.45,605.0
44.451,721.0
44.452,591.0
44.453,486.0
44.454,576.0
44.455,575.0
44.456,572.0
44.457,489.0
44.458,593.0
44.459,638.0
44.46,518.0
44.461,505.0
44.462,599.0
44.463,594.0
44.464,591.0
44.465,495.0
44.466,520.0
44.467,531.0
44.468,477.0
44.469,556.0
44.47,624.0
44.471,625.0
44.472,611.0
44.473,509.0
44.474,489.0
44.475,500.0
44.476,507.0
44.477,605.0
44.478,636.0
44.479,640.0
44.48,605.0
44.481,509.0
44.482,495.0
44.483,503.0
44.484,533.0
44.485,630.0
44.486,655.0
44.487,642.0
44.488,595.0
44.489,507.0
44.49,500.0
44.491,507.0
44.492,559.0
44.493,647.0
44.494,642.0
44.495,625.0
44.496,559.0
44.497,492.0
44.498,506.0
44.499,514.0
44.5,574.0
44.501,648.0
44.502,632.0
44.503,619.0
44.504,542.0
44.505,493.0
44.506,511.0
44.507,519.0
44.508,602.0
44.509,646.0
44.51,650.0
44.511,623.0
44.512,534.0
44.513,495.0
44.514,516.0
44.515,536.0
44.516,632.0
44.517,640.0
44.518,651.0
44.519,602.0
44.52,515.0
44.521,496.0
44.522,514.0
44.523,549.0
44.524,642.0
44.525,644.0
44.526,665.0
44.527,601.0
44.528,520.0
44.529,505.0
44.53,520.0
44.531,577.0
44.532,654.0
44.533,643.0
44.534,650.0
44.535,573.0
44.536,506.0
44.537,503.0
44.538,507.0
44.539,585.0
44.54,654.0
44.541,641.0
44.542,642.0
44.543,560.0
44.544,500.0
44.545,504.0
44.546,527.0
44.547,611.0
44.548,654.0
44.549,632.0
44.55,611.0
44.551,539.0
44.552,502.0
44.553,504.0
44.554,526.0
44.555,619.0
44.556,659.0
44.557,634.0
44.558,591.0
44.559,541.0
44.56,520.0
44.561,510.0
44.562,534.0
44.563,626.0
44.564,650.0
44.565,614.0
44.566,553.0
44.567,589.0
44.568,570.0
44.569,520.0
44.57,536.0
44.571,621.0
44.572,631.0
44.573,575.0
44.574,528.0
44.575,754.0
44.576,697.0
44.577,558.0
44.578,526.0
44.579,611.0
44.58,597.0
44.581,536.0
44.582,563.0
44.583,1011.0
44.584,823.0
44.585,578.0
44.586,507.0
44.587,580.0
44.588,550.0
44.589,487.0
44.59,759.0
44.591,1015.0
44.592,899.0
44.593,571.0
44.594,479.0
44.595,550.0
44.596,514.0
44.597,453.0
44.598,724.0
44.599,1013.0
44.6,735.0
44.601,448.0
44.602,483.0
44.603,528.0
44.604,520.0
44.605,441.0
44.606,617.0
44.607,848.0
44.608,583.0
44.609,434.0
44.61,517.0
44.611,528.0
44.612,520.0
44.613,439.0
44.614,578.0
44.615,710.0
44.616,506.0
44.617,457.0
44.618,547.0
44.619,553.0
44.62,545.0
44.621,454.0
44.622,504.0
44.623,541.0
44.624,454.0
44.625,515.0
44.626,589.0
44.627,580.0
44.628,576.0
44.629,474.0
44.63,461.0
44.631,482.0
44.632,480.0
44.633,581.0
44.634,622.0
44.635,600.0
44.636,562.0
44.637,469.0
44.638,483.0
44.639,496.0
44.64,502.0
44.641,606.0
44.642,621.0
44.643,619.0
44.644,555.0
44.645,471.0
44.646,491.0
44.647,499.0
44.648,531.0
44.649,621.0
44.65,618.0
44.651,617.0
44.652,546.0
44.653,475.0
44.654,489.0
44.655,504.0
44.656,558.0
44.657,639.0
44.658,629.0
44.659,616.0
44.66,533.0
44.661,479.0
44.662,497.0
44.663,510.0
44.664,585.0
44.665,650.0
44.666,638.0
44.667,596.0
44.668,503.0
44.669,507.0
44.67,519.0
44.671,516.0
44.672,599.0
44.673,637.0
44.674,642.0
44.675,604.0
44.676,506.0
44.677,489.0
44.678,509.0
44.679,529.0
44.68,629.0
44.681,647.0
44.682,655.0
44.683,598.0
44.684,504.0
44.685,493.0
44.686,507.0
44.687,550.0
44.688,648.0
44.689,646.0
44.69,656.0
44.691,584.0
44.692,498.0
44.693,498.0
44.694,510.0
44.695,575.0
44.696,657.0
44.697,653.0
44.698,642.0
44.699,555.0
44.7,497.0
44.701,507.0
44.702,496.0
44.703,585.0
44.704,649.0
44.705,634.0
44.706,628.0
44.707,537.0
44.708,511.0
44.709,519.0
44.71,516.0
44.711,594.0
44.712,661.0
44.713,646.0
44.714,613.0
44.715,527.0
44.716,516.0
44.717,517.0
44.718,520.0
44.719,614.0
44.72,662.0
44.721,641.0
44.722,586.0
44.723,525.0
44.724,536.0
44.725,523.0
44.726,531.0
44.727,625.0
44.728,658.0
44.729,633.0
44.73,561.0
44.731,545.0
44.732,559.0
44.733,531.0
44.734,539.0
44.735,634.0
44.736,647.0
44.737,615.0
44.738,537.0
44.739,580.0
44.74,587.0
44.741,540.0
44.742,546.0
44.743,637.0
44.744,628.0
44.745,584.0
44.746,523.0
44.747,688.0
44.748,655.0
44.749,546.0
44.75,546.0
44.751,624.0
44.752,618.0
44.753,571.0
44.754,531.0
44.755,690.0
44.756,628.0
44.757,531.0
44.758,562.0
44.759,616.0
44.76,615.0
44.761,555.0
44.762,524.0
44.763,653.0
44.764,575.0
44.765,508.0
44.766,582.0
44.767,602.0
44.768,611.0
44.769,545.0
44.77,520.0
44.771,619.0
44.772,551.0
44.773,512.0
44.774,608.0
44.775,603.0
44.776,617.0
44.777,538.0
44.778,511.0
44.779,555.0
44.78,509.0
44.781,538.0
44.782,640.0
44.783,640.0
44.784,641.0
44.785,560.0
44.786,502.0
44.787,516.0
44.788,510.0
44.789,590.0
44.79,656.0
44.791,646.0
44.792,635.0
44.793,544.0
44.794,498.0
44.795,515.0
44.796,527.0
44.797,623.0
44.798,661.0
44.799,658.0
44.8,627.0
44.801,535.0
44.802,493.0
44.803,518.0
44.804,549.0
44.805,639.0
44.806,646.0
44.807,651.0
44.808,601.0
44.809,517.0
44.81,498.0
44.811,513.0
44.812,563.0
44.813,641.0
44.814,638.0
44.815,638.0
44.816,576.0
44.817,501.0
44.818,496.0
44.819,514.0
44.82,579.0
44.821,643.0
44.822,639.0
44.823,631.0
44.824,556.0
44.825,493.0
44.826,499.0
44.827,519.0
44.828,600.0
44.829,642.0
44.83,639.0
44.831,618.0
44.832,531.0
44.833,486.0
44.834,502.0
44.835,527.0
44.836,619.0
44.837,635.0
44.838,640.0
44.839,600.0
44.84,510.0
44.841,483.0
44.842,503.0
44.843,537.0
44.844,629.0
44.845,626.0
44.846,650.0
44.847,593.0
44.848,509.0
44.849,490.0
44.85,511.0
44.851,559.0
44.852,641.0
44.853,623.0
44.854,640.0
44.855,570.0
44.856,496.0
44.857,491.0
44.858,508.0
44.859,571.0
44.86,647.0
44.861,619.0
44.862,622.0
44.863,545.0
44.864,493.0
44.865,495.0
44.866,507.0
44.867,582.0
44.868,651.0
44.869,613.0
44.87,596.0
44.871,536.0
44.872,515.0
44.873,502.0
44.874,513.0
44.875,595.0
44.876,644.0
44.877,602.0
44.878,565.0
44.879,569.0
44.88,590.0
44.881,522.0
44.882,515.0
44.883,595.0
44.884,643.0
44.885,592.0
44.886,530.0
44.887,642.0
44.888,700.0
44.889,554.0
44.89,516.0
44.891,596.0
44.892,623.0
44.893,560.0
44.894,514.0
44.895,776.0
44.896,801.0
44.897,575.0
44.898,506.0
44.899,586.0
44.9,590.0
44.901,521.0
44.902,543.0
44.903,1010.0
44.904,930.0
44.905,620.0
44.906,485.0
44.907,547.0
44.908,539.0
44.909,471.0
44.91,681.0
44.911,1014.0
44.912,942.0
44.913,582.0
44.914,457.0
44.915,525.0
44.916,522.0
44.917,449.0
44.918,595.0
44.919,906.0
44.92,700.0
44.921,447.0
44.922,475.0
44.923,520.0
44.924,529.0
44.925,445.0
44.926,526.0
44.927,734.0
44.928,561.0
44.929,439.0
44.93,515.0
44.931,529.0
44.932,550.0
44.933,468.0
44.934,460.0
44.935,528.0
44.936,466.0
44.937,480.0
44.938,576.0
44.939,568.0
44.94,577.0
44.941,485.0
44.942,454.0
44.943,493.0
44.944,465.0
44.945,535.0
44.946,616.0
44.947,598.0
44.948,589.0
44.949,491.0
44.95,465.0
44.951,483.0
44.952,487.0
44.953,586.0
44.954,636.0
44.955,618.0
44.956,592.0
44.957,487.0
44.958,466.0
44.959,492.0
44.96,511.0
44.961,615.0
44.962,636.0
44.963,628.0
44.964,582.0
44.965,481.0
44.966,474.0
44.967,498.0
44.968,534.0
44.969,627.0
44.97,633.0
44.971,632.0
44.972,567.0
44.973,478.0
44.974,484.0
44.975,503.0
44.976,558.0
44.977,640.0
44.978,635.0
44.979,617.0
44.98,536.0
44.981,482.0
44.982,498.0
44.983,510.0
44.984,562.0
44.985,642.0
44.986,637.0
44.987,612.0
44.988,524.0
44.989,485.0
44.99,501.0
44.991,516.0
44.992,595.0
44.993,647.0
44.994,649.0
44.995,611.0
44.996,513.0
44.997,488.0
44.998,501.0
44.999,525.0
45.0,619.0
45.001,648.0
45.002,660.0
45.003,606.0
45.004,510.0
45.005,487.0
45.006,499.0
45.007,543.0
45.008,636.0
45.009,648.0
45.01,659.0
45.011,587.0
45.012,501.0
45.013,494.0
45.014,503.0
45.015,560.0
45.016,645.0
45.017,651.0
45.018,651.0
45.019,571.0
45.02,495.0
45.021,499.0
45.022,506.0
45.023,579.0
45.024,658.0
45.025,642.0
45.026,629.0
45.027,538.0
45.028,492.0
45.029,507.0
45.03,506.0
45.031,589.0
45.032,648.0
45.033,631.0
45.034,601.0
45.035,521.0
45.036,533.0
45.037,538.0
45.038,508.0
45.039,593.0
45.04,645.0
45.041,625.0
45.042,568.0
45.043,539.0
45.044,595.0
45.045,576.0
45.046,511.0
45.047,598.0
45.048,629.0
45.049,610.0
45.05,541.0
45.051,570.0
45.052,665.0
45.053,609.0
45.054,513.0
45.055,596.0
45.056,615.0
45.057,592.0
45.058,513.0
45.059,632.0
45.06,680.0
45.061,606.0
45.062,515.0
45.063,599.0
45.064,596.0
45.065,567.0
45.066,500.0
45.067,727.0
45.068,716.0
45.069,603.0
45.07,513.0
45.071,590.0
45.072,585.0
45.073,558.0
45.074,495.0
45.075,725.0
45.076,655.0
45.077,531.0
45.078,528.0
45.079,594.0
45.08,600.0
45.081,553.0
45.082,486.0
45.083,600.0
45.084,543.0
45.085,485.0
45.086,561.0
45.087,595.0
45.088,615.0
45.089,564.0
45.09,477.0
45.091,525.0
45.092,496.0
45.093,497.0
45.094,602.0
45.095,606.0
45.096,625.0
45.097,572.0
45.098,487.0
45.099,498.0
45.1,490.0
45.101,538.0
45.102,637.0
45.103,627.0
45.104,628.0
45.105,569.0
45.106,486.0
45.107,499.0
45.108,502.0
45.109,574.0
45.11,650.0
45.111,639.0
45.112,624.0
45.113,554.0
45.114,490.0
45.115,503.0
45.116,517.0
45.117,603.0
45.118,654.0
45.119,646.0
45.12,617.0
45.121,537.0
45.122,490.0
45.123,506.0
45.124,529.0
45.125,620.0
45.126,642.0
45.127,645.0
45.128,585.0
45.129,505.0
45.13,484.0
45.131,505.0
45.132,539.0
45.133,626.0
45.134,625.0
45.135,631.0
45.136,569.0
45.137,499.0
45.138,501.0
45.139,505.0
45.14,561.0
45.141,633.0
45.142,623.0
45.143,622.0
45.144,545.0
45.145,488.0
45.146,496.0
45.147,508.0
45.148,576.0
45.149,630.0
45.15,635.0
45.151,618.0
45.152,532.0
45.153,487.0
45.154,500.0
45.155,520.0
45.156,601.0
45.157,630.0
45.158,642.0
45.159,608.0
45.16,517.0
45.161,485.0
45.162,504.0
45.163,527.0
45.164,619.0
45.165,627.0
45.166,645.0
45.167,595.0
45.168,514.0
45.169,489.0
45.17,507.0
45.171,544.0
45.172,634.0
45.173,622.0
45.174,631.0
45.175,567.0
45.176,509.0
45.177,496.0
45.178,507.0
45.179,555.0
45.18,644.0
45.181,629.0
45.182,624.0
45.183,550.0
45.184,516.0
45.185,501.0
45.186,506.0
45.187,570.0
45.188,649.0
45.189,622.0
45.19,594.0
45.191,533.0
45.192,561.0
45.193,521.0
45.194,510.0
45.195,579.0
45.196,637.0
45.197,583.0
45.198,546.0
45.199,618.0
45.2,773.0
45.201,601.0
45.202,518.0
45.203,567.0
45.204,629.0
45.205,578.0
45.206,516.0
45.207,676.0
45.208,853.0
45.209,611.0
45.21,505.0
45.211,563.0
45.212,596.0
45.213,537.0
45.214,500.0
45.215,896.0
45.216,990.0
45.217,675.0
45.218,487.0
45.219,540.0
45.22,567.0
45.221,500.0
45.222,504.0
45.223,1009.0
45.224,960.0
45.225,634.0
45.226,457.0
45.227,533.0
45.228,544.0
45.229,474.0
45.23,494.0
45.231,884.0
45.232,859.0
45.233,522.0
45.234,454.0
45.235,522.0
45.236,541.0
45.237,481.0
45.238,474.0
45.239,680.0
45.24,611.0
45.241,450.0
45.242,504.0
45.243,557.0
45.244,569.0
45.245,494.0
45.246,461.0
45.247,565.0
45.248,518.0
45.249,469.0
45.25,556.0
45.251,570.0
45.252,595.0
45.253,515.0
45.254,455.0
45.255,505.0
45.256,480.0
45.257,514.0
45.258,608.0
45.259,589.0
45.26,602.0
45.261,519.0
45.262,465.0
45.263,508.0
45.264,488.0
45.265,555.0
45.266,638.0
45.267,616.0
45.268,607.0
45.269,517.0
45.27,473.0
45.271,496.0
45.272,499.0
45.273,592.0
45.274,646.0
45.275,627.0
45.276,600.0
45.277,498.0
45.278,480.0
45.279,500.0
45.28,511.0
45.281,614.0
45.282,646.0
45.283,634.0
45.284,588.0
45.285,493.0
45.286,480.0
45.287,507.0
45.288,527.0
45.289,629.0
45.29,640.0
45.291,641.0
45.292,581.0
45.293,490.0
45.294,482.0
45.295,507.0
45.296,542.0
45.297,643.0
45.298,633.0
45.299,628.0
45.3,559.0
45.301,487.0
45.302,486.0
45.303,503.0
45.304,562.0
45.305,642.0
45.306,635.0
45.307,617.0
45.308,537.0
45.309,485.0
45.31,489.0
45.311,507.0
45.312,572.0
45.313,640.0
45.314,639.0
45.315,608.0
45.316,517.0
45.317,491.0
45.318,490.0
45.319,495.0
45.32,594.0
45.321,644.0
45.322,646.0
45.323,597.0
45.324,507.0
45.325,491.0
45.326,491.0
45.327,528.0
45.328,616.0
45.329,643.0
45.33,640.0
45.331,574.0
45.332,496.0
45.333,499.0
45.334,493.0
45.335,534.0
45.336,627.0
45.337,645.0
45.338,635.0
45.339,555.0
45.34,495.0
45.341,503.0
45.342,489.0
45.343,550.0
45.344,635.0
45.345,638.0
45.346,611.0
45.347,525.0
45.348,510.0
45.349,525.0
45.35,492.0
45.351,556.0
45.352,637.0
45.353,628.0
45.354,585.0
45.355,517.0
45.356,568.0
45.357,561.0
45.358,496.0
45.359,563.0
45.36,629.0
45.361,619.0
45.362,567.0
45.363,534.0
45.364,603.0
45.365,571.0
45.366,497.0
45.367,576.0
45.368,613.0
45.369,604.0
45.37,534.0
45.371,577.0
45.372,693.0
45.373,613.0
45.374,500.0
45.375,575.0
45.376,593.0
45.377,584.0
45.378,507.0
45.379,629.0
45.38,731.0
45.381,625.0
45.382,499.0
45.383,566.0
45.384,584.0
45.385,567.0
45.386,488.0
45.387,688.0
45.388,724.0
45.389,600.0
45.39,499.0
45.391,588.0
45.392,592.0
45.393,580.0
45.394,488.0
45.395,563.0
45.396,548.0
45.397,481.0
45.398,536.0
45.399,594.0
45.4,576.0
45.401,554.0
45.402,494.0
45.403,640.0
45.404,604.0
45.405,492.0
45.406,554.0
45.407,608.0
45.408,622.0
45.409,594.0
45.41,494.0
45.411,504.0
45.412,499.0
45.413,501.0
45.414,614.0
45.415,627.0
45.416,639.0
45.417,598.0
45.418,505.0
45.419,497.0
45.42,503.0
45.421,542.0
45.422,642.0
45.423,635.0
45.424,629.0
45.425,575.0
45.426,493.0
45.427,498.0
45.428,504.0
45.429,567.0
45.43,652.0
45.431,641.0
45.432,625.0
45.433,562.0
45.434,492.0
45.435,499.0
45.436,512.0
45.437,592.0
45.438,650.0
45.439,648.0
45.44,609.0
45.441,543.0
45.442,487.0
45.443,500.0
45.444,521.0
45.445,613.0
45.446,637.0
45.447,645.0
45.448,596.0
45.449,519.0
45.45,482.0
45.451,501.0
45.452,538.0
45.453,622.0
45.454,623.0
45.455,630.0
45.456,568.0
45.457,496.0
45.458,482.0
45.459,497.0
45.46,544.0
45.461,621.0
45.462,613.0
45.463,623.0
45.464,551.0
45.465,485.0
45.466,483.0
45.467,500.0
45.468,562.0
45.469,623.0
45.47,620.0
45.471,620.0
45.472,539.0
45.473,481.0
45.474,484.0
45.475,503.0
45.476,584.0
45.477,625.0
45.478,623.0
45.479,608.0
45.48,522.0
45.481,481.0
45.482,488.0
45.483,511.0
45.484,604.0
45.485,620.0
45.486,620.0
45.487,583.0
45.488,509.0
45.489,472.0
45.49,484.0
45.491,520.0
45.492,611.0
45.493,619.0
45.494,610.0
45.495,550.0
45.496,505.0
45.497,477.0
45.498,484.0
45.499,525.0
45.5,616.0
45.501,616.0
45.502,589.0
45.503,522.0
45.504,532.0
45.505,493.0
45.506,485.0
45.507,530.0
45.508,618.0
45.509,603.0
45.51,550.0
45.511,505.0
45.512,665.0
45.513,554.0
45.514,495.0
45.515,523.0
45.516,608.0
45.517,577.0
45.518,519.0
45.519,553.0
45.52,808.0
45.521,607.0
45.522,494.0
45.523,520.0
45.524,584.0
45.525,538.0
45.526,480.0
45.527,675.0
45.528,996.0
45.529,671.0
45.53,483.0
45.531,503.0
45.532,554.0
45.533,507.0
45.534,455.0
45.535,763.0
45.536,1002.0
45.537,671.0
45.538,450.0
45.539,495.0
45.54,514.0
45.541,481.0
45.542,432.0
45.543,703.0
45.544,877.0
45.545,546.0
45.546,424.0
45.547,505.0
45.548,515.0
45.549,478.0
45.55,427.0
45.551,619.0
45.552,686.0
45.553,465.0
45.554,449.0
45.555,531.0
45.556,520.0
45.557,499.0
45.558,427.0
45.559,503.0
45.56,536.0
45.561,439.0
45.562,506.0
45.563,557.0
45.564,560.0
45.565,522.0
45.566,437.0
45.567,474.0
45.568,477.0
45.569,467.0
45.57,563.0
45.571,580.0
45.572,592.0
45.573,530.0
45.574,447.0
45.575,456.0
45.576,470.0
45.577,504.0
45.578,598.0
45.579,590.0
45.58,595.0
45.581,522.0
45.582,449.0
45.583,459.0
45.584,474.0
45.585,537.0
45.586,615.0
45.587,599.0
45.588,593.0
45.589,503.0
45.59,451.0
45.591,468.0
45.592,481.0
45.593,564.0
45.594,626.0
45.595,611.0
45.596,593.0
45.597,502.0
45.598,454.0
45.599,475.0
45.6,495.0
45.601,597.0
45.602,630.0
45.603,624.0
45.604,585.0
45.605,486.0
45.606,459.0
45.607,482.0
45.608,510.0
45.609,613.0
45.61,625.0
45.611,625.0
45.612,572.0
45.613,478.0
45.614,461.0
45.615,484.0
45.616,522.0
45.617,626.0
45.618,620.0
45.619,621.0
45.62,555.0
45.621,472.0
45.622,468.0
45.623,484.0
45.624,541.0
45.625,634.0
45.626,628.0
45.627,617.0
45.628,541.0
45.629,470.0
45.63,472.0
45.631,491.0
45.632,560.0
45.633,637.0
45.634,632.0
45.635,611.0
45.636,527.0
45.637,467.0
45.638,475.0
45.639,498.0
45.64,582.0
45.641,642.0
45.642,632.0
45.643,599.0
45.644,510.0
45.645,465.0
45.646,477.0
45.647,511.0
45.648,603.0
45.649,635.0
45.65,623.0
45.651,574.0
45.652,495.0
45.653,475.0
45.654,480.0
45.655,520.0
45.656,603.0
45.657,635.0
45.658,621.0
45.659,545.0
45.66,494.0
45.661,496.0
45.662,483.0
45.663,527.0
45.664,611.0
45.665,636.0
45.666,600.0
45.667,519.0
45.668,519.0
45.669,530.0
45.67,491.0
45.671,532.0
45.672,614.0
45.673,621.0
45.674,577.0
45.675,505.0
45.676,563.0
45.677,554.0
45.678,496.0
45.679,541.0
45.68,609.0
45.681,607.0
45.682,549.0
45.683,530.0
45.684,669.0
45.685,620.0
45.686,505.0
45.687,543.0
45.688,597.0
45.689,586.0
45.69,518.0
45.691,566.0
45.692,727.0
45.693,623.0
45.694,495.0
45.695,550.0
45.696,582.0
45.697,587.0
45.698,514.0
45.699,516.0
45.7,601.0
45.701,526.0
45.702,484.0
45.703,579.0
45.704,581.0
45.705,571.0
45.706,492.0
45.707,560.0
45.708,615.0
45.709,519.0
45.71,494.0
45.711,583.0
45.712,588.0
45.713,592.0
45.714,504.0
45.715,498.0
45.716,510.0
45.717,471.0
45.718,536.0
45.719,618.0
45.72,617.0
45.721,615.0
45.722,521.0
45.723,479.0
45.724,486.0
45.725,490.0
45.726,588.0
45.727,630.0
45.728,627.0
45.729,606.0
45.73,513.0
45.731,477.0
45.732,490.0
45.733,512.0
45.734,612.0
45.735,627.0
45.736,633.0
45.737,602.0
45.738,504.0
45.739,480.0
45.74,492.0
45.741,540.0
45.742,625.0
45.743,622.0
45.744,620.0
45.745,570.0
45.746,491.0
45.747,480.0
45.748,494.0
45.749,555.0
45.75,634.0
45.751,623.0
45.752,613.0
45.753,546.0
45.754,477.0
45.755,484.0
45.756,496.0
45.757,574.0
45.758,629.0
45.759,626.0
45.76,593.0
45.761,517.0
45.762,469.0
45.763,485.0
45.764,505.0
45.765,592.0
45.766,618.0
45.767,623.0
45.768,585.0
45.769,499.0
45.77,470.0
45.771,488.0
45.772,520.0
45.773,608.0
45.774,612.0
45.775,635.0
45.776,574.0
45.777,492.0
45.778,474.0
45.779,493.0
45.78,540.0
45.781,622.0
45.782,610.0
45.783,625.0
45.784,556.0
45.785,465.0
45.786,477.0
45.787,497.0
45.788,554.0
45.789,614.0
45.79,613.0
45.791,616.0
45.792,541.0
45.793,476.0
45.794,481.0
45.795,502.0
45.796,567.0
45.797,620.0
45.798,606.0
45.799,604.0
45.8,525.0
45.801,476.0
45.802,487.0
45.803,503.0
45.804,588.0
45.805,636.0
45.806,612.0
45.807,594.0
45.808,516.0
45.809,479.0
45.81,490.0
45.811,517.0
45.812,606.0
45.813,633.0
45.814,606.0
45.815,552.0
45.816,523.0
45.817,502.0
45.818,495.0
45.819,518.0
45.82,607.0
45.821,634.0
45.822,579.0
45.823,514.0
45.824,605.0
45.825,584.0
45.826,519.0
45.827,517.0
45.828,602.0
45.829,610.0
45.83,547.0
45.831,505.0
45.832,736.0
45.833,647.0
45.834,531.0
45.835,515.0
45.836,594.0
45.837,572.0
45.838,503.0
45.839,589.0
45.84,1013.0
45.841,828.0
45.842,570.0
45.843,490.0
45.844,553.0
45.845,524.0
45.846,462.0
45.847,734.0
45.848,1011.0
45.849,835.0
45.85,518.0
45.851,472.0
45.852,529.0
45.853,503.0
45.854,431.0
45.855,679.0
45.856,1000.0
45.857,689.0
45.858,439.0
45.859,479.0
45.86,514.0
45.861,508.0
45.862,424.0
45.863,522.0
45.864,691.0
45.865,502.0
45.866,435.0
45.867,521.0
45.868,533.0
45.869,530.0
45.87,442.0
45.871,476.0
45.872,547.0
45.873,450.0
45.874,482.0
45.875,568.0
45.876,540.0
45.877,540.0
45.878,449.0
45.879,485.0
45.88,521.0
45.881,457.0
45.882,527.0
45.883,592.0
45.884,587.0
45.885,566.0
45.886,467.0
45.887,454.0
45.888,487.0
45.889,480.0
45.89,578.0
45.891,606.0
45.892,600.0
45.893,553.0
45.894,459.0
45.895,468.0
45.896,488.0
45.897,506.0
45.898,603.0
45.899,608.0
45.9,616.0
45.901,553.0
45.902,465.0
45.903,473.0
45.904,488.0
45.905,537.0
45.906,622.0
45.907,618.0
45.908,611.0
45.909,538.0
45.91,465.0
45.911,477.0
45.912,497.0
45.913,562.0
45.914,633.0
45.915,624.0
45.916,610.0
45.917,526.0
45.918,464.0
45.919,483.0
45.92,506.0
45.921,589.0
45.922,635.0
45.923,629.0
45.924,580.0
45.925,490.0
45.926,478.0
45.927,494.0
45.928,507.0
45.929,598.0
45.93,627.0
45.931,638.0
45.932,590.0
45.933,497.0
45.934,476.0
45.935,492.0
45.936,528.0
45.937,622.0
45.938,626.0
45.939,642.0
45.94,575.0
45.941,489.0
45.942,479.0
45.943,494.0
45.944,545.0
45.945,626.0
45.946,629.0
45.947,638.0
45.948,563.0
45.949,487.0
45.95,482.0
45.951,496.0
45.952,565.0
45.953,643.0
45.954,634.0
45.955,629.0
45.956,542.0
45.957,482.0
45.958,482.0
45.959,500.0
45.96,575.0
45.961,648.0
45.962,633.0
45.963,610.0
45.964,523.0
45.965,477.0
45.966,487.0
45.967,503.0
45.968,596.0
45.969,638.0
45.97,619.0
45.971,576.0
45.972,502.0
45.973,496.0
45.974,499.0
45.975,508.0
45.976,600.0
45.977,640.0
45.978,618.0
45.979,550.0
45.98,518.0
45.981,538.0
45.982,515.0
45.983,514.0
45.984,604.0
45.985,630.0
45.986,602.0
45.987,528.0
45.988,533.0
45.989,554.0
45.99,518.0
45.991,525.0
45.992,611.0
45.993,617.0
45.994,582.0
45.995,507.0
45.996,593.0
45.997,589.0
45.998,527.0
45.999,528.0
46.0,607.0
46.001,607.0
46.002,560.0
46.003,507.0
46.004,651.0
46.005,624.0
46.006,529.0
46.007,534.0
46.008,599.0
46.009,578.0
46.01,528.0
46.011,546.0
46.012,760.0
46.013,660.0
46.014,519.0
46.015,537.0
46.016,581.0
46.017,586.0
46.018,524.0
46.019,511.0
46.02,637.0
46.021,561.0
46.022,487.0
46.023,566.0
46.024,581.0
46.025,587.0
46.026,520.0
46.027,509.0
46.028,579.0
46.029,511.0
46.03,501.0
46.031,601.0
46.032,607.0
46.033,612.0
46.034,535.0
46.035,486.0
46.036,517.0
46.037,489.0
46.038,542.0
46.039,628.0
46.04,618.0
46.041,620.0
46.042,537.0
46.043,484.0
46.044,501.0
46.045,503.0
46.046,586.0
46.047,654.0
46.048,629.0
46.049,606.0
46.05,520.0
46.051,487.0
46.052,505.0
46.053,510.0
46.054,603.0
46.055,635.0
46.056,643.0
46.057,599.0
46.058,516.0
46.059,488.0
46.06,503.0
46.061,541.0
46.062,624.0
46.063,634.0
46.064,639.0
46.065,588.0
46.066,512.0
46.067,493.0
46.068,506.0
46.069,563.0
46.07,632.0
46.071,625.0
46.072,614.0
46.073,547.0
46.074,485.0
46.075,486.0
46.076,502.0
46.077,568.0
46.078,626.0
46.079,625.0
46.08,614.0
46.081,541.0
46.082,487.0
46.083,494.0
46.084,514.0
46.085,599.0
46.086,629.0
46.087,631.0
46.088,605.0
46.089,520.0
46.09,482.0
46.091,491.0
46.092,525.0
46.093,617.0
46.094,619.0
46.095,634.0
46.096,587.0
46.097,503.0
46.098,478.0
46.099,497.0
46.1,536.0
46.101,623.0
46.102,612.0
46.103,629.0
46.104,562.0
46.105,487.0
46.106,477.0
46.107,497.0
46.108,547.0
46.109,627.0
46.11,604.0
46.111,618.0
46.112,548.0
46.113,485.0
46.114,482.0
46.115,498.0
46.116,564.0
46.117,634.0
46.118,600.0
46.119,593.0
46.12,524.0
46.121,491.0
46.122,484.0
46.123,497.0
46.124,572.0
46.125,637.0
46.126,596.0
46.127,575.0
46.128,529.0
46.129,507.0
46.13,496.0
46.131,504.0
46.132,586.0
46.133,628.0
46.134,591.0
46.135,525.0
46.136,571.0
46.137,592.0
46.138,518.0
46.139,505.0
46.14,583.0
46.141,613.0
46.142,564.0
46.143,508.0
46.144,690.0
46.145,729.0
46.146,560.0
46.147,503.0
46.148,575.0
46.149,597.0
46.15,534.0
46.151,503.0
46.152,840.0
46.153,816.0
46.154,573.0
46.155,493.0
46.156,571.0
46.157,562.0
46.158,494.0
46.159,566.0
46.16,1015.0
46.161,891.0
46.162,580.0
46.163,472.0
46.164,542.0
46.165,547.0
46.166,479.0
46.167,567.0
46.168,941.0
46.169,756.0
46.17,481.0
46.171,476.0
46.172,541.0
46.173,542.0
46.174,460.0
46.175,541.0
46.176,779.0
46.177,594.0
46.178,443.0
46.179,508.0
46.18,539.0
46.181,551.0
46.182,471.0
46.183,475.0
46.184,598.0
46.185,489.0
46.186,464.0
46.187,557.0
46.188,556.0
46.189,577.0
46.19,490.0
46.191,457.0
46.192,508.0
46.193,459.0
46.194,511.0
46.195,598.0
46.196,584.0
46.197,592.0
46.198,504.0
46.199,455.0
46.2,477.0
46.201,477.0
46.202,567.0
46.203,629.0
46.204,611.0
46.205,595.0
46.206,497.0
46.207,463.0
46.208,489.0
46.209,501.0
46.21,603.0
46.211,636.0
46.212,624.0
46.213,586.0
46.214,489.0
46.215,467.0
46.216,495.0
46.217,522.0
46.218,618.0
46.219,630.0
46.22,628.0
46.221,567.0
46.222,479.0
46.223,471.0
46.224,500.0
46.225,541.0
46.226,624.0
46.227,631.0
46.228,627.0
46.229,561.0
46.23,479.0
46.231,477.0
46.232,505.0
46.233,565.0
46.234,638.0
46.235,634.0
46.236,622.0
46.237,548.0
46.238,474.0
46.239,483.0
46.24,512.0
46.241,585.0
46.242,640.0
46.243,638.0
46.244,610.0
46.245,524.0
46.246,469.0
46.247,483.0
46.248,516.0
46.249,602.0
46.25,640.0
46.251,642.0
46.252,589.0
46.253,497.0
46.254,469.0
46.255,482.0
46.256,518.0
46.257,611.0
46.258,630.0
46.259,643.0
46.26,585.0
46.261,493.0
46.262,469.0
46.263,483.0
46.264,536.0
46.265,620.0
46.266,630.0
46.267,637.0
46.268,563.0
46.269,492.0
46.27,472.0
46.271,486.0
46.272,548.0
46.273,633.0
46.274,620.0
46.275,621.0
46.276,538.0
46.277,476.0
46.278,475.0
46.279,485.0
46.28,563.0
46.281,635.0
46.282,627.0
46.283,610.0
46.284,519.0
46.285,480.0
46.286,483.0
46.287,491.0
46.288,584.0
46.289,643.0
46.29,623.0
46.291,583.0
46.292,507.0
46.293,495.0
46.294,494.0
46.295,494.0
46.296,588.0
46.297,636.0
46.298,617.0
46.299,556.0
46.3,516.0
46.301,536.0
46.302,514.0
46.303,501.0
46.304,593.0
46.305,618.0
46.306,598.0
46.307,524.0
46.308,555.0
46.309,596.0
46.31,546.0
46.311,507.0
46.312,597.0
46.313,606.0
46.314,576.0
46.315,505.0
46.316,645.0
46.317,655.0
46.318,573.0
46.319,509.0
46.32,598.0
46.321,607.0
46.322,578.0
46.323,496.0
46.324,584.0
46.325,566.0
46.326,502.0
46.327,535.0
46.328,599.0
46.329,596.0
46.33,559.0
46.331,495.0
46.332,601.0
46.333,552.0
46.334,488.0
46.335,555.0
46.336,602.0
46.337,618.0
46.338,573.0
46.339,487.0
46.34,533.0
46.341,500.0
46.342,488.0
46.343,588.0
46.344,606.0
46.345,626.0
46.346,579.0
46.347,493.0
46.348,497.0
46.349,487.0
46.35,525.0
46.351,626.0
46.352,623.0
46.353,630.0
46.354,574.0
46.355,490.0
46.356,494.0
46.357,491.0
46.358,549.0
46.359,640.0
46.36,632.0
46.361,625.0
46.362,561.0
46.363,481.0
46.364,494.0
46.365,505.0
46.366,583.0
46.367,645.0
46.368,628.0
46.369,607.0
46.37,536.0
46.371,479.0
46.372,493.0
46.373,513.0
46.374,605.0
46.375,644.0
46.376,638.0
46.377,599.0
46.378,525.0
46.379,482.0
46.38,500.0
46.381,528.0
46.382,617.0
46.383,645.0
46.384,634.0
46.385,580.0
46.386,507.0
46.387,480.0
46.388,495.0
46.389,547.0
46.39,620.0
46.391,615.0
46.392,619.0
46.393,558.0
46.394,494.0
46.395,483.0
46.396,498.0
46.397,561.0
46.398,621.0
46.399,617.0
46.4,605.0
46.401,531.0
46.402,478.0
46.403,482.0
46.404,501.0
46.405,575.0
46.406,619.0
46.407,628.0
46.408,610.0
46.409,523.0
46.41,481.0
46.411,492.0
46.412,514.0
46.413,605.0
46.414,623.0
46.415,637.0
46.416,603.0
46.417,509.0
46.418,480.0
46.419,495.0
46.42,529.0
46.421,619.0
46.422,612.0
46.423,630.0
46.424,559.0
46.425,491.0
46.426,475.0
46.427,491.0
46.428,537.0
46.429,624.0
46.43,614.0
46.431,618.0
46.432,554.0
46.433,487.0
46.434,478.0
46.435,493.0
46.436,548.0
46.437,634.0
46.438,614.0
46.439,601.0
46.44,533.0
46.441,498.0
46.442,485.0
46.443,493.0
46.444,561.0
46.445,636.0
46.446,601.0
46.447,562.0
46.448,546.0
46.449,560.0
46.45,507.0
46.451,493.0
46.452,564.0
46.453,620.0
46.454,581.0
46.455,526.0
46.456,605.0
46.457,645.0
46.458,537.0
46.459,495.0
46.46,562.0
46.461,614.0
46.462,562.0
46.463,501.0
46.464,685.0
46.465,791.0
46.466,571.0
46.467,489.0
46.468,547.0
46.469,576.0
46.47,520.0
46.471,496.0
46.472,922.0
46.473,955.0
46.474,639.0
46.475,475.0
46.476,537.0
46.477,543.0
46.478,480.0
46.479,516.0
46.48,1010.0
46.481,952.0
46.482,604.0
46.483,449.0
46.484,525.0
46.485,537.0
46.486,479.0
46.487,447.0
46.488,695.0
46.489,622.0
46.49,450.0
46.491,480.0
46.492,548.0
46.493,560.0
46.494,492.0
46.495,449.0
46.496,605.0
46.497,519.0
46.498,448.0
46.499,528.0
46.5,559.0
46.501,583.0
46.502,520.0
46.503,446.0
46.504,506.0
46.505,470.0
46.506,493.0
46.507,583.0
46.508,586.0
46.509,599.0
46.51,530.0
46.511,456.0
46.512,485.0
46.513,475.0
46.514,537.0
46.515,619.0
46.516,596.0
46.517,596.0
46.518,514.0
46.519,459.0
46.52,492.0
46.521,484.0
46.522,564.0
46.523,633.0
46.524,611.0
46.525,591.0
46.526,500.0
46.527,458.0
46.528,502.0
46.529,496.0
46.53,593.0
46.531,635.0
46.532,618.0
46.533,588.0
46.534,493.0
46.535,462.0
46.536,499.0
46.537,514.0
46.538,614.0
46.539,634.0
46.54,633.0
46.541,579.0
46.542,487.0
46.543,467.0
46.544,510.0
46.545,543.0
46.546,626.0
46.547,631.0
46.548,636.0
46.549,574.0
46.55,486.0
46.551,470.0
46.552,508.0
46.553,557.0
46.554,641.0
46.555,635.0
46.556,616.0
46.557,542.0
46.558,473.0
46.559,478.0
46.56,509.0
46.561,566.0
46.562,641.0
46.563,642.0
46.564,619.0
46.565,538.0
46.566,474.0
46.567,481.0
46.568,520.0
46.569,592.0
46.57,646.0
46.571,649.0
46.572,615.0
46.573,527.0
46.574,472.0
46.575,488.0
46.576,528.0
46.577,613.0
46.578,645.0
46.579,644.0
46.58,593.0
46.581,504.0
46.582,470.0
46.583,486.0
46.584,537.0
46.585,623.0
46.586,644.0
46.587,639.0
46.588,573.0
46.589,494.0
46.59,474.0
46.591,487.0
46.592,551.0
46.593,637.0
46.594,638.0
46.595,619.0
46.596,538.0
46.597,489.0
46.598,490.0
46.599,486.0
46.6,552.0
46.601,635.0
46.602,635.0
46.603,600.0
46.604,516.0
46.605,509.0
46.606,510.0
46.607,492.0
46.608,557.0
46.609,632.0
46.61,622.0
46.611,574.0
46.612,518.0
46.613,561.0
46.614,546.0
46.615,499.0
46.616,571.0
46.617,627.0
46.618,618.0
46.619,562.0
46.62,527.0
46.621,578.0
46.622,546.0
46.623,504.0
46.624,586.0
46.625,615.0
46.626,606.0
46.627,535.0
46.628,560.0
46.629,647.0
46.63,592.0
46.631,510.0
46.632,590.0
46.633,616.0
46.634,599.0
46.635,518.0
46.636,582.0
46.637,626.0
46.638,559.0
46.639,517.0
46.64,606.0
46.641,610.0
46.642,604.0
46.643,513.0
46.644,554.0
46.645,562.0
46.646,510.0
46.647,542.0
46.648,625.0
46.649,633.0
46.65,608.0
46.651,512.0
46.652,522.0
46.653,523.0
46.654,493.0
46.655,583.0
46.656,634.0
46.657,648.0
46.658,628.0
46.659,529.0
46.66,503.0
46.661,509.0
46.662,524.0
46.663,627.0
46.664,643.0
46.665,657.0
46.666,624.0
46.667,529.0
46.668,507.0
46.669,514.0
46.67,553.0
46.671,648.0
46.672,642.0
46.673,643.0
46.674,599.0
46.675,512.0
46.676,505.0
46.677,511.0
46.678,568.0
46.679,653.0
46.68,644.0
46.681,637.0
46.682,585.0
46.683,506.0
46.684,503.0
46.685,510.0
46.686,581.0
46.687,655.0
46.688,644.0
46.689,616.0
46.69,553.0
46.691,489.0
46.692,499.0
46.693,519.0
46.694,603.0
46.695,642.0
46.696,642.0
46.697,603.0
46.698,530.0
46.699,486.0
46.7,504.0
46.701,530.0
46.702,618.0
46.703,627.0
46.704,643.0
46.705,587.0
46.706,518.0
46.707,486.0
46.708,501.0
46.709,544.0
46.71,624.0
46.711,620.0
46.712,633.0
46.713,569.0
46.714,504.0
46.715,486.0
46.716,504.0
46.717,559.0
46.718,629.0
46.719,624.0
46.72,622.0
46.721,550.0
46.722,491.0
46.723,489.0
46.724,507.0
46.725,566.0
46.726,621.0
46.727,626.0
46.728,616.0
46.729,534.0
46.73,486.0
46.731,491.0
46.732,511.0
46.733,593.0
46.734,619.0
46.735,623.0
46.736,597.0
46.737,514.0
46.738,479.0
46.739,491.0
46.74,517.0
46.741,606.0
46.742,619.0
46.743,619.0
46.744,568.0
46.745,501.0
46.746,475.0
46.747,491.0
46.748,523.0
46.749,615.0
46.75,626.0
46.751,609.0
46.752,549.0
46.753,507.0
46.754,486.0
46.755,494.0
46.756,537.0
46.757,618.0
46.758,620.0
46.759,587.0
46.76,520.0
46.761,544.0
46.762,509.0
46.763,496.0
46.764,543.0
46.765,629.0
46.766,605.0
46.767,550.0
46.768,513.0
46.769,661.0
46.77,560.0
46.771,503.0
46.772,543.0
46.773,612.0
46.774,573.0
46.775,515.0
46.776,599.0
46.777,875.0
46.778,645.0
46.779,510.0
46.78,533.0
46.781,581.0
46.782,539.0
46.783,485.0
46.784,747.0
46.785,1007.0
46.786,718.0
46.787,501.0
46.788,485.0
46.789,552.0
46.79,514.0
46.791,458.0
46.792,704.0
46.793,972.0
46.794,635.0
46.795,459.0
46.796,516.0
46.797,542.0
46.798,504.0
46.799,444.0
46.8,630.0
46.801,743.0
46.802,514.0
46.803,462.0
46.804,546.0
46.805,538.0
46.806,510.0
46.807,446.0
46.808,567.0
46.809,608.0
46.81,470.0
46.811,501.0
46.812,571.0
46.813,578.0
46.814,526.0
46.815,456.0
46.816,514.0
46.817,531.0
46.818,471.0
46.819,553.0
46.82,594.0
46.821,600.0
46.822,561.0
46.823,473.0
46.824,476.0
46.825,489.0
46.826,511.0
46.827,605.0
46.828,604.0
46.829,607.0
46.83,540.0
46.831,468.0
46.832,489.0
46.833,498.0
46.834,538.0
46.835,625.0
46.836,611.0
46.837,616.0
46.838,538.0
46.839,474.0
46.84,486.0
46.841,502.0
46.842,568.0
46.843,640.0
46.844,629.0
46.845,621.0
46.846,539.0
46.847,478.0
46.848,492.0
46.849,510.0
46.85,602.0
46.851,649.0
46.852,633.0
46.853,595.0
46.854,504.0
46.855,471.0
46.856,493.0
46.857,515.0
46.858,613.0
46.859,636.0
46.86,633.0
46.861,589.0
46.862,498.0
46.863,476.0
46.864,501.0
46.865,528.0
46.866,626.0
46.867,630.0
46.868,638.0
46.869,577.0
46.87,492.0
46.871,478.0
46.872,502.0
46.873,547.0
46.874,639.0
46.875,635.0
46.876,632.0
46.877,566.0
46.878,486.0
46.879,484.0
46.88,506.0
46.881,565.0
46.882,647.0
46.883,643.0
46.884,627.0
46.885,550.0
46.886,485.0
46.887,487.0
46.888,512.0
46.889,585.0
46.89,653.0
46.891,646.0
46.892,620.0
46.893,533.0
46.894,484.0
46.895,490.0
46.896,519.0
46.897,600.0
46.898,650.0
46.899,640.0
46.9,598.0
46.901,516.0
46.902,488.0
46.903,492.0
46.904,525.0
46.905,615.0
46.906,649.0
46.907,641.0
46.908,572.0
46.909,506.0
46.91,492.0
46.911,495.0
46.912,536.0
46.913,627.0
46.914,653.0
46.915,624.0
46.916,551.0
46.917,511.0
46.918,511.0
46.919,498.0
46.92,543.0
46.921,631.0
46.922,642.0
46.923,606.0
46.924,529.0
46.925,532.0
46.926,528.0
46.927,500.0
46.928,553.0
46.929,634.0
46.93,631.0
46.931,583.0
46.932,520.0
46.933,581.0
46.934,559.0
46.935,504.0
46.936,562.0
46.937,620.0
46.938,619.0
46.939,559.0
46.94,541.0
46.941,641.0
46.942,586.0
46.943,506.0
46.944,564.0
46.945,608.0
46.946,605.0
46.947,533.0
46.948,573.0
46.949,707.0
46.95,608.0
46.951,506.0
46.952,576.0
46.953,600.0
46.954,596.0
46.955,522.0
46.956,565.0
46.957,638.0
46.958,553.0
46.959,505.0
46.96,597.0
46.961,608.0
46.962,615.0
46.963,534.0
46.964,523.0
46.965,538.0
46.966,494.0
46.967,538.0
46.968,624.0
46.969,625.0
46.97,627.0
46.971,542.0
46.972,508.0
46.973,514.0
46.974,497.0
46.975,585.0
46.976,638.0
46.977,637.0
46.978,631.0
46.979,543.0
46.98,503.0
46.981,512.0
46.982,524.0
46.983,621.0
46.984,651.0
46.985,653.0
46.986,618.0
46.987,531.0
46.988,501.0
46.989,513.0
46.99,544.0
46.991,638.0
46.992,643.0
46.993,646.0
46.994,601.0
46.995,520.0
46.996,496.0
46.997,509.0
46.998,565.0
46.999,644.0
47.0,639.0
47.001,638.0
47.002,586.0
47.003,513.0
47.004,503.0
47.005,517.0
47.006,587.0
47.007,647.0
47.008,641.0
47.009,621.0
47.01,561.0
47.011,499.0
47.012,503.0
47.013,519.0
47.014,603.0
47.015,637.0
47.016,638.0
47.017,603.0
47.018,532.0
47.019,485.0
47.02,497.0
47.021,522.0
47.022,613.0
47.023,620.0
47.024,633.0
47.025,592.0
47.026,516.0
47.027,486.0
47.028,504.0
47.029,535.0
47.03,625.0
47.031,615.0
47.032,636.0
47.033,578.0
47.034,506.0
47.035,490.0
47.036,502.0
47.037,556.0
47.038,632.0
47.039,624.0
47.04,637.0
47.041,569.0
47.042,504.0
47.043,500.0
47.044,512.0
47.045,578.0
47.046,639.0
47.047,623.0
47.048,621.0
47.049,543.0
47.05,489.0
47.051,492.0
47.052,511.0
47.053,584.0
47.054,632.0
47.055,613.0
47.056,598.0
47.057,521.0
47.058,481.0
47.059,493.0
47.06,513.0
47.061,603.0
47.062,635.0
47.063,611.0
47.064,581.0
47.065,517.0
47.066,487.0
47.067,496.0
47.068,525.0
47.069,619.0
47.07,621.0
47.071,607.0
47.072,549.0
47.073,536.0
47.074,511.0
47.075,497.0
47.076,530.0
47.077,615.0
47.078,633.0
47.079,578.0
47.08,520.0
47.081,620.0
47.082,581.0
47.083,515.0
47.084,527.0
47.085,618.0
47.086,613.0
47.087,546.0
47.088,515.0
47.089,728.0
47.09,625.0
47.091,517.0
47.092,524.0
47.093,600.0
47.094,569.0
47.095,506.0
47.096,618.0
47.097,984.0
47.098,751.0
47.099,527.0
47.1,501.0
47.101,567.0
47.102,542.0
47.103,471.0
47.104,679.0
47.105,1009.0
47.106,742.0
47.107,482.0
47.108,491.0
47.109,529.0
47.11,525.0
47.111,448.0
47.112,588.0
47.113,811.0
47.114,579.0
47.115,442.0
47.116,516.0
47.117,537.0
47.118,531.0
47.119,453.0
47.12,531.0
47.121,627.0
47.122,492.0
47.123,470.0
47.124,572.0
47.125,565.0
47.126,563.0
47.127,478.0
47.128,491.0
47.129,531.0
47.13,470.0
47.131,529.0
47.132,606.0
47.133,600.0
47.134,589.0
47.135,493.0
47.136,471.0
47.137,493.0
47.138,491.0
47.139,587.0
47.14,628.0
47.141,626.0
47.142,600.0
47.143,502.0
47.144,484.0
47.145,497.0
47.146,527.0
47.147,624.0
47.148,633.0
47.149,636.0
47.15,587.0
47.151,496.0
47.152,479.0
47.153,501.0
47.154,548.0
47.155,632.0
47.156,627.0
47.157,629.0
47.158,570.0
47.159,486.0
47.16,481.0
47.161,500.0
47.162,569.0
47.163,640.0
47.164,624.0
47.165,612.0
47.166,539.0
47.167,472.0
47.168,483.0
47.169,504.0
47.17,582.0
47.171,644.0
47.172,634.0
47.173,611.0
47.174,529.0
47.175,474.0
47.176,490.0
47.177,516.0
47.178,604.0
47.179,646.0
47.18,647.0
47.181,612.0
47.182,522.0
47.183,482.0
47.184,501.0
47.185,536.0
47.186,633.0
47.187,647.0
47.188,659.0
47.189,596.0
47.19,513.0
47.191,487.0
47.192,508.0
47.193,555.0
47.194,643.0
47.195,649.0
47.196,658.0
47.197,594.0
47.198,513.0
47.199,495.0
47.2,514.0
47.201,573.0
47.202,656.0
47.203,647.0
47.204,650.0
47.205,573.0
47.206,500.0
47.207,499.0
47.208,516.0
47.209,589.0
47.21,658.0
47.211,648.0
47.212,637.0
47.213,553.0
47.214,495.0
47.215,501.0
47.216,524.0
47.217,611.0
47.218,665.0
47.219,646.0
47.22,625.0
47.221,538.0
47.222,498.0
47.223,506.0
47.224,535.0
47.225,630.0
47.226,675.0
47.227,658.0
47.228,609.0
47.229,527.0
47.23,502.0
47.231,504.0
47.232,536.0
47.233,641.0
47.234,664.0
47.235,639.0
47.236,571.0
47.237,525.0
47.238,519.0
47.239,514.0
47.24,549.0
47.241,635.0
47.242,645.0
47.243,615.0
47.244,542.0
47.245,563.0
47.246,572.0
47.247,537.0
47.248,549.0
47.249,631.0
47.25,628.0
47.251,592.0
47.252,532.0
47.253,649.0
47.254,626.0
47.255,556.0
47.256,555.0
47.257,634.0
47.258,622.0
47.259,574.0
47.26,543.0
47.261,676.0
47.262,627.0
47.263,540.0
47.264,574.0
47.265,636.0
47.266,634.0
47.267,576.0
47.268,520.0
47.269,596.0
47.27,545.0
47.271,510.0
47.272,591.0
47.273,614.0
47.274,620.0
47.275,554.0
47.276,513.0
47.277,573.0
47.278,521.0
47.279,507.0
47.28,601.0
47.281,605.0
47.282,618.0
47.283,550.0
47.284,488.0
47.285,506.0
47.286,484.0
47.287,536.0
47.288,631.0
47.289,630.0
47.29,636.0
47.291,568.0
47.292,499.0
47.293,502.0
47.294,507.0
47.295,586.0
47.296,649.0
47.297,640.0
47.298,632.0
47.299,555.0
47.3,499.0
47.301,509.0
47.302,529.0
47.303,620.0
47.304,657.0
47.305,643.0
47.306,619.0
47.307,536.0
47.308,501.0
47.309,513.0
47.31,546.0
47.311,635.0
47.312,651.0
47.313,653.0
47.314,609.0
47.315,530.0
47.316,504.0
47.317,518.0
47.318,567.0
47.319,643.0
47.32,643.0
47.321,645.0
47.322,590.0
47.323,520.0
47.324,507.0
47.325,518.0
47.326,580.0
47.327,639.0
47.328,629.0
47.329,622.0
47.33,553.0
47.331,491.0
47.332,489.0
47.333,499.0
47.334,572.0
47.335,613.0
47.336,612.0
47.337,590.0
47.338,516.0
47.339,473.0
47.34,487.0
47.341,510.0
47.342,592.0
47.343,607.0
47.344,624.0
47.345,586.0
47.346,503.0
47.347,470.0
47.348,487.0
47.349,519.0
47.35,600.0
47.351,606.0
47.352,631.0
47.353,571.0
47.354,495.0
47.355,475.0
47.356,495.0
47.357,541.0
47.358,620.0
47.359,605.0
47.36,627.0
47.361,563.0
47.362,495.0
47.363,490.0
47.364,507.0
47.365,563.0
47.366,636.0
47.367,606.0
47.368,612.0
47.369,545.0
47.37,498.0
47.371,503.0
47.372,519.0
47.373,586.0
47.374,660.0
47.375,630.0
47.376,616.0
47.377,547.0
47.378,510.0
47.379,514.0
47.38,530.0
47.381,608.0
47.382,667.0
47.383,624.0
47.384,584.0
47.385,546.0
47.386,537.0
47.387,515.0
47.388,525.0
47.389,611.0
47.39,651.0
47.391,598.0
47.392,537.0
47.393,599.0
47.394,638.0
47.395,548.0
47.396,516.0
47.397,608.0
47.398,631.0
47.399,569.0
47.4,520.0
47.401,693.0
47.402,714.0
47.403,568.0
47.404,520.0
47.405,590.0
47.406,592.0
47.407,523.0
47.408,568.0
47.409,1013.0
47.41,920.0
47.411,642.0
47.412,490.0
47.413,544.0
47.414,541.0
47.415,473.0
47.416,607.0
47.417,1013.0
47.418,876.0
47.419,558.0
47.42,452.0
47.421,526.0
47.422,516.0
47.423,435.0
47.424,566.0
47.425,851.0
47.426,676.0
47.427,447.0
47.428,458.0
47.429,513.0
47.43,492.0
47.431,433.0
47.432,459.0
47.433,608.0
47.434,494.0
47.435,420.0
47.436,502.0
47.437,522.0
47.438,530.0
47.439,447.0
47.44,440.0
47.441,517.0
47.442,450.0
47.443,466.0
47.444,559.0
47.445,547.0
47.446,568.0
47.447,475.0
47.448,432.0
47.449,452.0
47.45,446.0
47.451,520.0
47.452,594.0
47.453,579.0
47.454,567.0
47.455,473.0
47.456,437.0
47.457,459.0
47.458,466.0
47.459,559.0
47.46,609.0
47.461,596.0
47.462,569.0
47.463,472.0
47.464,447.0
47.465,468.0
47.466,492.0
47.467,589.0
47.468,617.0
47.469,617.0
47.47,570.0
47.471,474.0
47.472,455.0
47.473,480.0
47.474,523.0
47.475,614.0
47.476,621.0
47.477,625.0
47.478,568.0
47.479,480.0
47.48,464.0
47.481,496.0
47.482,554.0
47.483,634.0
47.484,634.0
47.485,630.0
47.486,562.0
47.487,481.0
47.488,485.0
47.489,504.0
47.49,572.0
47.491,641.0
47.492,637.0
47.493,621.0
47.494,542.0
47.495,475.0
47.496,485.0
47.497,513.0
47.498,597.0
47.499,639.0
47.5,642.0
47.501,608.0
47.502,519.0
47.503,469.0
47.504,490.0
47.505,525.0
47.506,618.0
47.507,642.0
47.508,657.0
47.509,609.0
47.51,523.0
47.511,487.0
47.512,512.0
47.513,559.0
47.514,649.0
47.515,661.0
47.516,676.0
47.517,610.0
47.518,534.0
47.519,512.0
47.52,533.0
47.521,585.0
47.522,678.0
47.523,676.0
47.524,684.0
47.525,603.0
47.526,532.0
47.527,525.0
47.528,537.0
47.529,604.0
47.53,683.0
47.531,676.0
47.532,661.0
47.533,575.0
47.534,517.0
47.535,523.0
47.536,536.0
47.537,617.0
47.538,686.0
47.539,669.0
47.54,641.0
47.541,556.0
47.542,525.0
47.543,535.0
47.544,545.0
47.545,634.0
47.546,686.0
47.547,664.0
47.548,616.0
47.549,556.0
47.55,566.0
47.551,564.0
47.552,545.0
47.553,636.0
47.554,670.0
47.555,651.0
47.556,587.0
47.557,562.0
47.558,593.0
47.559,571.0
47.56,544.0
47.561,624.0
47.562,638.0
47.563,618.0
47.564,541.0
47.565,585.0
47.566,612.0
47.567,568.0
47.568,529.0
47.569,616.0
47.57,615.0
47.571,568.0
47.572,504.0
47.573,683.0
47.574,676.0
47.575,587.0
47.576,507.0
47.577,583.0
47.578,582.0
47.579,549.0
47.58,486.0
47.581,616.0
47.582,586.0
47.583,507.0
47.584,519.0
47.585,591.0
47.586,598.0
47.587,558.0
47.588,478.0
47.589,531.0
47.59,503.0
47.591,477.0
47.592,567.0
47.593,601.0
47.594,619.0
47.595,579.0
47.596,490.0
47.597,494.0
47.598,483.0
47.599,508.0
47.6,612.0
47.601,614.0
47.602,634.0
47.603,585.0
47.604,501.0
47.605,488.0
47.606,495.0
47.607,550.0
47.608,637.0
47.609,627.0
47.61,640.0
47.611,584.0
47.612,507.0
47.613,503.0
47.614,514.0
47.615,585.0
47.616,653.0
47.617,637.0
47.618,625.0
47.619,561.0
47.62,497.0
47.621,502.0
47.622,522.0
47.623,606.0
47.624,651.0
47.625,646.0
47.626,618.0
47.627,548.0
47.628,499.0
47.629,509.0
47.63,538.0
47.631,621.0
47.632,643.0
47.633,650.0
47.634,605.0
47.635,533.0
47.636,498.0
47.637,511.0
47.638,556.0
47.639,633.0
47.64,629.0
47.641,636.0
47.642,580.0
47.643,512.0
47.644,496.0
47.645,511.0
47.646,568.0
47.647,633.0
47.648,627.0
47.649,633.0
47.65,568.0
47.651,509.0
47.652,503.0
47.653,517.0
47.654,584.0
47.655,632.0
47.656,632.0
47.657,620.0
47.658,542.0
47.659,494.0
47.66,500.0
47.661,518.0
47.662,601.0
47.663,626.0
47.664,636.0
47.665,606.0
47.666,522.0
47.667,491.0
47.668,504.0
47.669,526.0
47.67,618.0
47.671,623.0
47.672,645.0
47.673,595.0
47.674,515.0
47.675,493.0
47.676,509.0
47.677,545.0
47.678,631.0
47.679,624.0
47.68,637.0
47.681,576.0
47.682,509.0
47.683,498.0
47.684,511.0
47.685,557.0
47.686,645.0
47.687,624.0
47.688,628.0
47.689,557.0
47.69,510.0
47.691,507.0
47.692,523.0
47.693,583.0
47.694,664.0
47.695,637.0
47.696,619.0
47.697,549.0
47.698,525.0
47.699,521.0
47.7,532.0
47.701,605.0
47.702,664.0
47.703,628.0
47.704,579.0
47.705,561.0
47.706,595.0
47.707,546.0
47.708,532.0
47.709,604.0
47.71,659.0
47.711,608.0
47.712,551.0
47.713,619.0
47.714,718.0
47.715,584.0
47.716,536.0
47.717,600.0
47.718,642.0
47.719,586.0
47.72,534.0
47.721,694.0
47.722,790.0
47.723,603.0
47.724,537.0
47.725,594.0
47.726,624.0
47.727,556.0
47.728,532.0
47.729,801.0
47.73,840.0
47.731,597.0
47.732,522.0
47.733,600.0
47.734,606.0
47.735,541.0
47.736,532.0
47.737,764.0
47.738,734.0
47.739,543.0
47.74,528.0
47.741,609.0
47.742,608.0
47.743,540.0
47.744,537.0
47.745,672.0
47.746,628.0
47.747,510.0
47.748,565.0
47.749,615.0
47.75,622.0
47.751,556.0
47.752,509.0
47.753,571.0
47.754,542.0
47.755,523.0
47.756,609.0
47.757,620.0
47.758,647.0
47.759,586.0
47.76,510.0
47.761,519.0
47.762,517.0
47.763,567.0
47.764,651.0
47.765,634.0
47.766,640.0
47.767,563.0
47.768,501.0
47.769,520.0
47.77,520.0
47.771,590.0
47.772,667.0
47.773,650.0
47.774,643.0
47.775,563.0
47.776,506.0
47.777,518.0
47.778,531.0
47.779,620.0
47.78,674.0
47.781,652.0
47.782,627.0
47.783,537.0
47.784,496.0
47.785,517.0
47.786,541.0
47.787,641.0
47.788,659.0
47.789,652.0
47.79,610.0
47.791,518.0
47.792,493.0
47.793,516.0
47.794,550.0
47.795,645.0
47.796,646.0
47.797,648.0
47.798,586.0
47.799,500.0
47.8,493.0
47.801,516.0
47.802,562.0
47.803,652.0
47.804,649.0
47.805,644.0
47.806,568.0
47.807,493.0
47.808,496.0
47.809,520.0
47.81,583.0
47.811,660.0
47.812,645.0
47.813,625.0
47.814,531.0
47.815,545.0
47.816,539.0
47.817,531.0
47.818,595.0
47.819,662.0
47.82,646.0
47.821,594.0
47.822,534.0
47.823,817.0
47.824,651.0
47.825,532.0
47.826,589.0
47.827,623.0
47.828,614.0
47.829,543.0
47.83,686.0
47.831,1004.0
47.832,740.0
47.833,522.0
47.834,557.0
47.835,581.0
47.836,571.0
47.837,493.0
47.838,883.0
47.839,1011.0
47.84,768.0
47.841,493.0
47.842,523.0
47.843,510.0
47.844,505.0
47.845,505.0
47.846,1017.0
47.847,1020.0
47.848,831.0
47.849,450.0
47.85,469.0
47.851,454.0
47.852,425.0
47.853,697.0
47.854,1017.0
47.855,1015.0
47.856,807.0
47.857,388.0
47.858,411.0
47.859,386.0
47.86,335.0
47.861,1018.0
47.862,1020.0
47.863,1017.0
47.864,697.0
47.865,312.0
47.866,324.0
47.867,291.0
47.868,266.0
47.869,1018.0
47.87,1017.0
47.871,1014.0
47.872,535.0
47.873,238.0
47.874,230.0
47.875,212.0
47.876,244.0
47.877,1018.0
47.878,1020.0
47.879,1006.0
47.88,342.0
47.881,158.0
47.882,153.0
47.883,134.0
47.884,481.0
47.885,1019.0
47.886,1018.0
47.887,1012.0
47.888,241.0
47.889,87.0
47.89,90.0
47.891,84.0
47.892,329.0
47.893,1018.0
47.894,1014.0
47.895,934.0
47.896,100.0
47.897,86.0
47.898,84.0
47.899,53.0
47.9,731.0
47.901,1018.0
47.902,1013.0
47.903,809.0
47.904,68.0
47.905,72.0
47.906,81.0
47.907,46.0
47.908,716.0
47.909,1016.0
47.91,935.0
47.911,338.0
47.912,86.0
47.913,114.0
47.914,149.0
47.915,98.0
47.916,371.0
47.917,880.0
47.918,578.0
47.919,147.0
47.92,181.0
47.921,193.0
47.922,218.0
47.923,154.0
47.924,471.0
47.925,774.0
47.926,445.0
47.927,183.0
47.928,278.0
47.929,281.0
47.93,288.0
47.931,216.0
47.932,442.0
47.933,578.0
47.934,354.0
47.935,268.0
47.936,366.0
47.937,356.0
47.938,341.0
47.939,274.0
47.94,532.0
47.941,566.0
47.942,396.0
47.943,349.0
47.944,418.0
47.945,417.0
47.946,366.0
47.947,431.0
47.948,832.0
47.949,726.0
47.95,413.0
47.951,399.0
47.952,434.0
47.953,463.0
47.954,400.0
47.955,384.0
47.956,594.0
47.957,538.0
47.958,408.0
47.959,491.0
47.96,461.0
47.961,502.0
47.962,440.0
47.963,441.0
47.964,572.0
47.965,537.0
47.966,454.0
47.967,513.0
47.968,504.0
47.969,520.0
47.97,463.0
47.971,515.0
47.972,599.0
47.973,549.0
47.974,491.0
47.975,534.0
47.976,539.0
47.977,536.0
47.978,525.0
47.979,575.0
47.98,604.0
47.981,532.0
47.982,536.0
47.983,558.0
47.984,569.0
47.985,552.0
47.986,597.0
47.987,563.0
47.988,553.0
47.989,513.0
47.99,583.0
47.991,575.0
47.992,585.0
47.993,547.0
47.994,709.0
47.995,651.0
47.996,582.0
47.997,524.0
47.998,604.0
47.999,593.0
48.0,592.0
48.001,545.0
48.002,661.0
48.003,586.0
48.004,538.0
48.005,534.0
48.006,623.0
48.007,609.0
48.008,587.0
48.009,541.0
48.01,717.0
48.011,597.0
48.012,535.0
48.013,550.0
48.014,637.0
48.015,606.0
48.016,559.0
48.017,588.0
48.018,910.0
48.019,661.0
48.02,544.0
48.021,552.0
48.022,629.0
48.023,586.0
48.024,533.0
48.025,712.0
48.026,1005.0
48.027,693.0
48.028,533.0
48.029,550.0
48.03,599.0
48.031,546.0
48.032,505.0
48.033,1012.0
48.034,1014.0
48.035,769.0
48.036,526.0
48.037,515.0
48.038,546.0
48.039,507.0
48.04,521.0
48.041,1012.0
48.042,1013.0
48.043,781.0
48.044,479.0
48.045,481.0
48.046,504.0
48.047,460.0
48.048,512.0
48.049,1011.0
48.05,1006.0
48.051,658.0
48.052,426.0
48.053,485.0
48.054,494.0
48.055,453.0
48.056,448.0
48.057,777.0
48.058,776.0
48.059,471.0
48.06,445.0
48.061,519.0
48.062,532.0
48.063,480.0
48.064,442.0
48.065,573.0
48.066,554.0
48.067,448.0
48.068,520.0
48.069,562.0
48.07,572.0
48.071,524.0
48.072,451.0
48.073,485.0
48.074,487.0
48.075,496.0
48.076,592.0
48.077,596.0
48.078,605.0
48.079,538.0
48.08,466.0
48.081,489.0
48.082,499.0
48.083,547.0
48.084,630.0
48.085,614.0
48.086,620.0
48.087,539.0
48.088,478.0
48.089,498.0
48.09,512.0
48.091,586.0
48.092,657.0
48.093,629.0
48.094,623.0
48.095,534.0
48.096,489.0
48.097,505.0
48.098,527.0
48.099,616.0
48.1,674.0
48.101,647.0
48.102,625.0
48.103,528.0
48.104,496.0
48.105,524.0
48.106,542.0
48.107,646.0
48.108,675.0
48.109,660.0
48.11,622.0
48.111,524.0
48.112,503.0
48.113,529.0
48.114,560.0
48.115,666.0
48.116,665.0
48.117,656.0
48.118,594.0
48.119,518.0
48.12,519.0
48.121,532.0
48.122,571.0
48.123,670.0
48.124,661.0
48.125,664.0
48.126,594.0
48.127,523.0
48.128,519.0
48.129,539.0
48.13,598.0
48.131,679.0
48.132,664.0
48.133,656.0
48.134,576.0
48.135,512.0
48.136,516.0
48.137,540.0
48.138,615.0
48.139,680.0
48.14,671.0
48.141,645.0
48.142,555.0
48.143,509.0
48.144,518.0
48.145,549.0
48.146,634.0
48.147,681.0
48.148,664.0
48.149,621.0
48.15,535.0
48.151,507.0
48.152,514.0
48.153,555.0
48.154,643.0
48.155,677.0
48.156,663.0
48.157,603.0
48.158,525.0
48.159,504.0
48.16,516.0
48.161,567.0
48.162,652.0
48.163,670.0
48.164,647.0
48.165,568.0
48.166,518.0
48.167,518.0
48.168,511.0
48.169,571.0
48.17,652.0
48.171,662.0
48.172,617.0
48.173,535.0
48.174,547.0
48.175,548.0
48.176,514.0
48.177,570.0
48.178,649.0
48.179,643.0
48.18,595.0
48.181,535.0
48.182,594.0
48.183,567.0
48.184,516.0
48.185,578.0
48.186,642.0
48.187,629.0
48.188,575.0
48.189,565.0
48.19,623.0
48.191,574.0
48.192,516.0
48.193,592.0
48.194,634.0
48.195,626.0
48.196,559.0
48.197,570.0
48.198,628.0
48.199,561.0
48.2,523.0
48.201,607.0
48.202,621.0
48.203,607.0
48.204,530.0
48.205,640.0
48.206,708.0
48.207,597.0
48.208,528.0
48.209,614.0
48.21,624.0
48.211,617.0
48.212,533.0
48.213,579.0
48.214,580.0
48.215,525.0
48.216,553.0
48.217,646.0
48.218,638.0
48.219,634.0
48.22,543.0
48.221,535.0
48.222,539.0
48.223,512.0
48.224,592.0
48.225,660.0
48.226,651.0
48.227,639.0
48.228,543.0
48.229,523.0
48.23,531.0
48.231,536.0
48.232,633.0
48.233,672.0
48.234,668.0
48.235,647.0
48.236,555.0
48.237,523.0
48.238,533.0
48.239,564.0
48.24,659.0
48.241,665.0
48.242,672.0
48.243,630.0
48.244,543.0
48.245,525.0
48.246,542.0
48.247,591.0
48.248,669.0
48.249,662.0
48.25,659.0
48.251,613.0
48.252,538.0
48.253,527.0
48.254,546.0
48.255,610.0
48.256,681.0
48.257,670.0
48.258,653.0
48.259,594.0
48.26,530.0
48.261,528.0
48.262,553.0
48.263,628.0
48.264,674.0
48.265,661.0
48.266,635.0
48.267,569.0
48.268,521.0
48.269,531.0
48.27,555.0
48.271,644.0
48.272,663.0
48.273,667.0
48.274,625.0
48.275,555.0
48.276,518.0
48.277,535.0
48.278,575.0
48.279,659.0
48.28,643.0
48.281,662.0
48.282,602.0
48.283,535.0
48.284,513.0
48.285,532.0
48.286,580.0
48.287,653.0
48.288,638.0
48.289,654.0
48.29,590.0
48.291,527.0
48.292,520.0
48.293,537.0
48.294,594.0
48.295,657.0
48.296,644.0
48.297,652.0
48.298,559.0
48.299,520.0
48.3,528.0
48.301,548.0
48.302,619.0
48.303,662.0
48.304,644.0
48.305,636.0
48.306,554.0
48.307,510.0
48.308,526.0
48.309,552.0
48.31,633.0
48.311,658.0
48.312,636.0
48.313,609.0
48.314,539.0
48.315,509.0
48.316,520.0
48.317,551.0
48.318,641.0
48.319,663.0
48.32,638.0
48.321,585.0
48.322,545.0
48.323,517.0
48.324,528.0
48.325,564.0
48.326,649.0
48.327,659.0
48.328,616.0
48.329,555.0
48.33,591.0
48.331,554.0
48.332,535.0
48.333,570.0
48.334,654.0
48.335,649.0
48.336,584.0
48.337,551.0
48.338,724.0
48.339,622.0
48.34,549.0
48.341,565.0
48.342,650.0
48.343,624.0
48.344,553.0
48.345,593.0
48.346,865.0
48.347,677.0
48.348,547.0
48.349,560.0
48.35,631.0
48.351,588.0
48.352,524.0
48.353,752.0
48.354,1004.0
48.355,733.0
48.356,535.0
48.357,547.0
48.358,595.0
48.359,556.0
48.36,500.0
48.361,747.0
48.362,983.0
48.363,672.0
48.364,498.0
48.365,550.0
48.366,574.0
48.367,551.0
48.368,487.0
48.369,683.0
48.37,806.0
48.371,580.0
48.372,495.0
48.373,571.0
48.374,549.0
48.375,549.0
48.376,486.0
48.377,637.0
48.378,703.0
48.379,531.0
48.38,520.0
48.381,602.0
48.382,595.0
48.383,588.0
48.384,500.0
48.385,511.0
48.386,538.0
48.387,508.0
48.388,586.0
48.389,643.0
48.39,631.0
48.391,604.0
48.392,509.0
48.393,503.0
48.394,524.0
48.395,539.0
48.396,635.0
48.397,656.0
48.398,658.0
48.399,616.0
48.4,523.0
48.401,510.0
48.402,531.0
48.403,578.0
48.404,661.0
48.405,654.0
48.406,662.0
48.407,601.0
48.408,520.0
48.409,515.0
48.41,536.0
48.411,601.0
48.412,672.0
48.413,657.0
48.414,651.0
48.415,580.0
48.416,510.0
48.417,518.0
48.418,540.0
48.419,618.0
48.42,674.0
48.421,658.0
48.422,645.0
48.423,567.0
48.424,508.0
48.425,522.0
48.426,553.0
48.427,638.0
48.428,677.0
48.429,668.0
48.43,636.0
48.431,552.0
48.432,511.0
48.433,531.0
48.434,565.0
48.435,656.0
48.436,666.0
48.437,670.0
48.438,625.0
48.439,540.0
48.44,509.0
48.441,536.0
48.442,578.0
48.443,664.0
48.444,661.0
48.445,669.0
48.446,606.0
48.447,528.0
48.448,509.0
48.449,535.0
48.45,592.0
48.451,669.0
48.452,659.0
48.453,664.0
48.454,596.0
48.455,528.0
48.456,520.0
48.457,544.0
48.458,617.0
48.459,671.0
48.46,661.0
48.461,655.0
48.462,580.0
48.463,519.0
48.464,524.0
48.465,552.0
48.466,627.0
48.467,669.0
48.468,648.0
48.469,634.0
48.47,550.0
48.471,507.0
48.472,518.0
48.473,553.0
48.474,634.0
48.475,673.0
48.476,657.0
48.477,623.0
48.478,541.0
48.479,507.0
48.48,523.0
48.481,567.0
48.482,645.0
48.483,669.0
48.484,653.0
48.485,597.0
48.486,526.0
48.487,507.0
48.488,520.0
48.489,571.0
48.49,650.0
48.491,664.0
48.492,628.0
48.493,557.0
48.494,522.0
48.495,512.0
48.496,514.0
48.497,570.0
48.498,647.0
48.499,648.0
48.5,612.0
48.501,536.0
48.502,534.0
48.503,525.0
48.504,522.0
48.505,579.0
48.506,656.0
48.507,641.0
48.508,589.0
48.509,530.0
48.51,576.0
48.511,546.0
48.512,525.0
48.513,589.0
48.514,643.0
48.515,640.0
48.516,587.0
48.517,535.0
48.518,578.0
48.519,544.0
48.52,534.0
48.521,613.0
48.522,645.0
48.523,648.0
48.524,583.0
48.525,535.0
48.526,565.0
48.527,534.0
48.528,552.0
48.529,640.0
48.53,647.0
48.531,664.0
48.532,599.0
48.533,538.0
48.534,539.0
48.535,534.0
48.536,584.0
48.537,671.0
48.538,656.0
48.539,671.0
48.54,602.0
48.541,535.0
48.542,541.0
48.543,548.0
48.544,617.0
48.545,684.0
48.546,665.0
48.547,663.0
48.548,591.0
48.549,536.0
48.55,542.0
48.551,557.0
48.552,638.0
48.553,677.0
48.554,672.0
48.555,647.0
48.556,576.0
48.557,531.0
48.558,544.0
48.559,575.0
48.56,655.0
48.561,666.0
48.562,669.0
48.563,633.0
48.564,561.0
48.565,532.0
48.566,547.0
48.567,587.0
48.568,658.0
48.569,654.0
48.57,657.0
48.571,613.0
48.572,553.0
48.573,535.0
48.574,546.0
48.575,602.0
48.576,657.0
48.577,642.0
48.578,639.0
48.579,586.0
48.58,531.0
48.581,526.0
48.582,538.0
48.583,603.0
48.584,644.0
48.585,636.0
48.586,609.0
48.587,545.0
48.588,501.0
48.589,511.0
48.59,533.0
48.591,607.0
48.592,629.0
48.593,633.0
48.594,607.0
48.595,541.0
48.596,508.0
48.597,523.0
48.598,551.0
48.599,632.0
48.6,630.0
48.601,658.0
48.602,608.0
48.603,541.0
48.604,519.0
48.605,535.0
48.606,573.0
48.607,642.0
48.608,625.0
48.609,650.0
48.61,598.0
48.611,536.0
48.612,526.0
48.613,539.0
48.614,585.0
48.615,647.0
48.616,621.0
48.617,637.0
48.618,576.0
48.619,517.0
48.62,521.0
48.621,541.0
48.622,597.0
48.623,654.0
48.624,619.0
48.625,617.0
48.626,549.0
48.627,505.0
48.628,516.0
48.629,541.0
48.63,608.0
48.631,654.0
48.632,619.0
48.633,603.0
48.634,534.0
48.635,500.0
48.636,517.0
48.637,547.0
48.638,620.0
48.639,651.0
48.64,609.0
48.641,566.0
48.642,520.0
48.643,501.0
48.644,509.0
48.645,542.0
48.646,623.0
48.647,641.0
48.648,594.0
48.649,528.0
48.65,537.0
48.651,528.0
48.652,511.0
48.653,542.0
48.654,625.0
48.655,635.0
48.656,567.0
48.657,522.0
48.658,608.0
48.659,574.0
48.66,519.0
48.661,542.0
48.662,621.0
48.663,608.0
48.664,542.0
48.665,543.0
48.666,714.0
48.667,628.0
48.668,527.0
48.669,546.0
48.67,617.0
48.671,587.0
48.672,516.0
48.673,641.0
48.674,859.0
48.675,703.0
48.676,529.0
48.677,545.0
48.678,615.0
48.679,608.0
48.68,541.0
48.681,534.0
48.682,609.0
48.683,539.0
48.684,515.0
48.685,594.0
48.686,625.0
48.687,620.0
48.688,549.0
48.689,518.0
48.69,549.0
48.691,518.0
48.692,549.0
48.693,631.0
48.694,631.0
48.695,648.0
48.696,577.0
48.697,520.0
48.698,525.0
48.699,532.0
48.7,600.0
48.701,668.0
48.702,655.0
48.703,655.0
48.704,577.0
48.705,524.0
48.706,533.0
48.707,554.0
48.708,629.0
48.709,679.0
48.71,675.0
48.711,652.0
48.712,574.0
48.713,530.0
48.714,539.0
48.715,572.0
48.716,652.0
48.717,673.0
48.718,660.0
48.719,632.0
48.72,553.0
48.721,520.0
48.722,536.0
48.723,572.0
48.724,646.0
48.725,650.0
48.726,648.0
48.727,601.0
48.728,522.0
48.729,503.0
48.73,525.0
48.731,578.0
48.732,643.0
48.733,634.0
48.734,633.0
48.735,584.0
48.736,512.0
48.737,507.0
48.738,523.0
48.739,590.0
48.74,645.0
48.741,641.0
48.742,629.0
48.743,571.0
48.744,509.0
48.745,513.0
48.746,545.0
48.747,608.0
48.748,646.0
48.749,643.0
48.75,620.0
48.751,556.0
48.752,503.0
48.753,517.0
48.754,547.0
48.755,623.0
48.756,642.0
48.757,643.0
48.758,587.0
48.759,513.0
48.76,477.0
48.761,502.0
48.762,537.0
48.763,620.0
48.764,628.0
48.765,643.0
48.766,590.0
48.767,518.0
48.768,490.0
48.769,512.0
48.77,561.0
48.771,634.0
48.772,627.0
48.773,637.0
48.774,574.0
48.775,509.0
48.776,494.0
48.777,516.0
48.778,575.0
48.779,639.0
48.78,628.0
48.781,628.0
48.782,563.0
48.783,497.0
48.784,494.0
48.785,521.0
48.786,585.0
48.787,641.0
48.788,622.0
48.789,608.0
48.79,527.0
48.791,480.0
48.792,485.0
48.793,517.0
48.794,594.0
48.795,644.0
48.796,621.0
48.797,588.0
48.798,508.0
48.799,477.0
48.8,482.0
48.801,517.0
48.802,603.0
48.803,640.0
48.804,616.0
48.805,564.0
48.806,496.0
48.807,480.0
48.808,486.0
48.809,528.0
48.81,614.0
48.811,631.0
48.812,605.0
48.813,544.0
48.814,504.0
48.815,493.0
48.816,492.0
48.817,540.0
48.818,628.0
48.819,626.0
48.82,603.0
48.821,534.0
48.822,515.0
48.823,505.0
48.824,502.0
48.825,559.0
48.826,624.0
48.827,619.0
48.828,584.0
48.829,518.0
48.83,559.0
48.831,537.0
48.832,516.0
48.833,567.0
48.834,636.0
48.835,628.0
48.836,598.0
48.837,525.0
48.838,538.0
48.839,519.0
48.84,522.0
48.841,603.0
48.842,647.0
48.843,638.0
48.844,607.0
48.845,528.0
48.846,525.0
48.847,521.0
48.848,541.0
48.849,637.0
48.85,645.0
48.851,661.0
48.852,610.0
48.853,536.0
48.854,524.0
48.855,531.0
48.856,578.0
48.857,664.0
48.858,661.0
48.859,677.0
48.86,627.0
48.861,557.0
48.862,543.0
48.863,554.0
48.864,613.0
48.865,681.0
48.866,664.0
48.867,663.0
48.868,609.0
48.869,545.0
48.87,542.0
48.871,565.0
48.872,633.0
48.873,676.0
48.874,663.0
48.875,647.0
48.876,590.0
48.877,539.0
48.878,543.0
48.879,575.0
48.88,647.0
48.881,666.0
48.882,665.0
48.883,632.0
48.884,572.0
48.885,530.0
48.886,543.0
48.887,582.0
48.888,651.0
48.889,648.0
48.89,653.0
48.891,611.0
48.892,555.0
48.893,539.0
48.894,539.0
48.895,589.0
48.896,647.0
48.897,638.0
48.898,639.0
48.899,587.0
48.9,534.0
48.901,522.0
48.902,530.0
48.903,595.0
48.904,641.0
48.905,630.0
48.906,625.0
48.907,564.0
48.908,518.0
48.909,515.0
48.91,531.0
48.911,605.0
48.912,633.0
48.913,634.0
48.914,611.0
48.915,542.0
48.916,509.0
48.917,517.0
48.918,539.0
48.919,618.0
48.92,626.0
48.921,644.0
48.922,609.0
48.923,540.0
48.924,515.0
48.925,529.0
48.926,558.0
48.927,632.0
48.928,624.0
48.929,642.0
48.93,589.0
48.931,522.0
48.932,510.0
48.933,526.0
48.934,567.0
48.935,635.0
48.936,615.0
48.937,622.0
48.938,560.0
48.939,501.0
48.94,502.0
48.941,517.0
48.942,572.0
48.943,645.0
48.944,614.0
48.945,605.0
48.946,538.0
48.947,489.0
48.948,499.0
48.949,518.0
48.95,579.0
48.951,641.0
48.952,606.0
48.953,586.0
48.954,518.0
48.955,489.0
48.956,497.0
48.957,518.0
48.958,592.0
48.959,640.0
48.96,591.0
48.961,539.0
48.962,523.0
48.963,543.0
48.964,504.0
48.965,508.0
48.966,582.0
48.967,624.0
48.968,577.0
48.969,522.0
48.97,552.0
48.971,581.0
48.972,514.0
48.973,515.0
48.974,590.0
48.975,620.0
48.976,558.0
48.977,510.0
48.978,630.0
48.979,658.0
48.98,533.0
48.981,514.0
48.982,594.0
48.983,602.0
48.984,536.0
48.985,523.0
48.986,708.0
48.987,687.0
48.988,528.0
48.989,515.0
48.99,599.0
48.991,606.0
48.992,539.0
48.993,505.0
48.994,609.0
48.995,574.0
48.996,501.0
48.997,548.0
48.998,620.0
48.999,618.0
49.0,552.0
49.001,504.0
49.002,538.0
49.003,526.0
49.004,515.0
49.005,593.0
49.006,619.0
49.007,635.0
49.008,563.0
49.009,502.0
49.01,513.0
49.011,508.0
49.012,547.0
49.013,632.0
49.014,631.0
49.015,647.0
49.016,578.0
49.017,514.0
49.018,509.0
49.019,520.0
49.02,587.0
49.021,657.0
49.022,632.0
49.023,634.0
49.024,564.0
49.025,505.0
49.026,511.0
49.027,529.0
49.028,605.0
49.029,665.0
49.03,640.0
49.031,628.0
49.032,548.0
49.033,501.0
49.034,513.0
49.035,536.0
49.036,622.0
49.037,654.0
49.038,638.0
49.039,611.0
49.04,529.0
49.041,495.0
49.042,513.0
49.043,545.0
49.044,631.0
49.045,644.0
49.046,641.0
49.047,595.0
49.048,514.0
49.049,489.0
49.05,511.0
49.051,556.0
49.052,634.0
49.053,628.0
49.054,625.0
49.055,572.0
