12.3725,4141.0
12.375,4156.0
12.3775,4145.0
12.38,4152.0
12.3825,4100.0
12.385,4097.0
12.3875,4125.0
12.39,4131.0
12.3925,4147.0
12.395,4150.0
12.3975,4147.0
12.4,4159.0
12.4025,4152.0
12.405,4112.0
12.4075,4132.0
12.41,4120.0
12.4125,4140.0
12.415,4129.0
12.4175,4144.0
12.42,4125.0
12.4225,4123.0
12.425,4125.0
12.4275,4120.0
12.43,4122.0
12.4325,4135.0
12.435,4131.0
12.4375,4119.0
12.44,4129.0
12.4425,4111.0
12.445,4096.0
12.4475,4115.0
12.45,4106.0
12.4525,4083.0
12.455,4102.0
12.4575,4110.0
12.46,4104.0
12.4625,4106.0
12.465,4122.0
12.4675,4120.0
12.47,4114.0
12.4725,4141.0
12.475,4116.0
12.4775,4151.0
12.48,4127.0
12.4825,4129.0
12.485,4123.0
12.4875,4135.0
12.49,4115.0
12.4925,4127.0
12.495,4122.0
12.4975,4137.0
12.5,4101.0
12.5025,4112.0
12.505,4119.0
12.5075,4098.0
12.51,4094.0
12.5125,4127.0
12.515,4132.0
12.5175,4134.0
12.52,4130.0
12.5225,4134.0
12.525,4128.0
12.5275,4111.0
12.53,4138.0
12.5325,4117.0
12.535,4134.0
12.5375,4119.0
12.54,4121.0
12.5425,4125.0
12.545,4103.0
12.5475,4126.0
12.55,4117.0
12.5525,4143.0
12.555,4141.0
12.5575,4148.0
12.56,4152.0
12.5625,4121.0
12.565,4134.0
12.5675,4130.0
12.57,4149.0
12.5725,4143.0
12.575,4144.0
12.5775,4145.0
12.58,4149.0
12.5825,4128.0
12.585,4144.0
12.5875,4128.0
12.59,4118.0
12.5925,4117.0
12.595,4128.0
12.5975,4129.0
12.6,4125.0
12.6025,4109.0
12.605,4133.0
12.6075,4140.0
12.61,4124.0
12.6125,4124.0
12.615,4123.0
12.6175,4129.0
12.62,4132.0
12.6225,4138.0
12.625,4136.0
12.6275,4129.0
12.63,4120.0
12.6325,4120.0
12.635,4100.0
12.6375,4115.0
12.64,4128.0
12.6425,4125.0
12.645,4103.0
12.6475,4118.0
12.65,4103.0
12.6525,4097.0
12.655,4074.0
12.6575,4094.0
12.66,4101.0
12.6625,4089.0
12.665,4089.0
12.6675,4087.0
12.67,4135.0
12.6725,4123.0
12.675,4122.0
12.6775,4116.0
12.68,4133.0
12.6825,4137.0
12.685,4140.0
12.6875,4143.0
12.69,4132.0
12.6925,4102.0
12.695,4102.0
12.6975,4095.0
12.7,4103.0
12.7025,4098.0
12.705,4109.0
12.7075,4107.0
12.71,4116.0
12.7125,4114.0
12.715,4105.0
12.7175,4115.0
12.72,4114.0
12.7225,4120.0
12.725,4126.0
12.7275,4118.0
12.73,4118.0
12.7325,4108.0
12.735,4109.0
12.7375,4075.0
12.74,4078.0
12.7425,4071.0
12.745,4062.0
12.7475,4096.0
12.75,4084.0
12.7525,4061.0
12.755,4090.0
12.7575,4080.0
12.76,4075.0
12.7625,4071.0
12.765,4078.0
12.7675,4072.0
12.77,4075.0
12.7725,4036.0
12.775,3984.0
12.7775,3867.0
12.78,3777.0
12.7825,3677.0
12.785,3625.0
12.7875,3591.0
12.79,3624.0
12.7925,3723.0
12.795,3874.0
12.7975,4052.0
12.8,4459.0
12.8025,5061.0
12.805,5787.0
12.8075,6683.0
12.81,7342.0
12.8125,7827.0
12.815,7989.0
12.8175,7583.0
12.82,6725.0
12.8225,5478.0
12.825,4522.0
12.8275,4112.0
12.83,3958.0
12.8325,3893.0
12.835,3821.0
12.8375,3757.0
12.84,3700.0
12.8425,3640.0
12.845,3595.0
12.8475,3577.0
12.85,3510.0
12.8525,3488.0
12.855,3481.0
12.8575,3471.0
12.86,3435.0
12.8625,3437.0
12.865,3441.0
12.8675,3438.0
12.87,3451.0
12.8725,3464.0
12.875,3491.0
12.8775,3499.0
12.88,3495.0
12.8825,3491.0
12.885,3509.0
12.8875,3523.0
12.89,3520.0
12.8925,3549.0
12.895,3548.0
12.8975,3574.0
12.9,3576.0
12.9025,3568.0
12.905,3577.0
12.9075,3599.0
12.91,3608.0
12.9125,3594.0
12.915,3598.0
12.9175,3626.0
12.92,3636.0
12.9225,3640.0
12.925,3639.0
12.9275,3642.0
12.93,3633.0
12.9325,3636.0
12.935,3647.0
12.9375,3648.0
12.94,3643.0
12.9425,3657.0
12.945,3659.0
12.9475,3680.0
12.95,3684.0
12.9525,3714.0
12.955,3723.0
12.9575,3726.0
12.96,3729.0
12.9625,3748.0
12.965,3747.0
12.9675,3741.0
12.97,3768.0
12.9725,3769.0
12.975,3739.0
12.9775,3756.0
12.98,3748.0
12.9825,3740.0
12.985,3749.0
12.9875,3746.0
12.99,3748.0
12.9925,3752.0
12.995,3759.0
12.9975,3749.0
13.0,3767.0
13.0025,3762.0
13.005,3782.0
13.0075,3791.0
13.01,3784.0
13.0125,3788.0
13.015,3776.0
13.0175,3774.0
13.02,3769.0
13.0225,3795.0
13.025,3785.0
13.0275,3799.0
13.03,3824.0
13.0325,3840.0
13.035,3856.0
13.0375,3874.0
13.04,3844.0
13.0425,3867.0
13.045,3868.0
13.0475,3893.0
13.05,3908.0
13.0525,3925.0
13.055,3941.0
13.0575,3948.0
13.06,3946.0
13.0625,4003.0
13.065,4037.0
13.0675,4029.0
13.07,4043.0
13.0725,4058.0
13.075,4079.0
13.0775,4078.0
13.08,4095.0
13.0825,4101.0
13.085,4102.0
13.0875,4132.0
13.09,4116.0
13.0925,4117.0
13.095,4159.0
13.0975,4146.0
13.1,4148.0
13.1025,4153.0
13.105,4175.0
13.1075,4156.0
13.11,4139.0
13.1125,4153.0
13.115,4150.0
13.1175,4119.0
13.12,4144.0
13.1225,4170.0
13.125,4127.0
13.1275,4133.0
13.13,4142.0
13.1325,4140.0
13.135,4152.0
13.1375,4148.0
13.14,4182.0
13.1425,4178.0
13.145,4166.0
13.1475,4153.0
13.15,4127.0
13.1525,4131.0
13.155,4149.0
13.1575,4166.0
13.16,4180.0
13.1625,4170.0
13.165,4164.0
13.1675,4137.0
13.17,4127.0
13.1725,4106.0
13.175,4105.0
13.1775,4091.0
13.18,4078.0
13.1825,4105.0
13.185,4106.0
13.1875,4087.0
13.19,4082.0
13.1925,4077.0
13.195,4067.0
13.1975,4106.0
13.2,4117.0
13.2025,4116.0
13.205,4118.0
13.2075,4091.0
13.21,4091.0
13.2125,4112.0
13.215,4104.0
13.2175,4109.0
13.22,4125.0
13.2225,4121.0
13.225,4111.0
13.2275,4125.0
13.23,4113.0
13.2325,4101.0
13.235,4102.0
13.2375,4090.0
13.24,4073.0
13.2425,4103.0
13.245,4111.0
13.2475,4116.0
13.25,4099.0
13.2525,4098.0
13.255,4090.0
13.2575,4093.0
13.26,4107.0
13.2625,4117.0
13.265,4112.0
13.2675,4111.0
13.27,4101.0
13.2725,4088.0
13.275,4118.0
13.2775,4093.0
13.28,4092.0
13.2825,4099.0
13.285,4087.0
13.2875,4081.0
13.29,4095.0
13.2925,4098.0
13.295,4119.0
13.2975,4106.0
13.3,4107.0
13.3025,4116.0
13.305,4110.0
13.3075,4108.0
13.31,4100.0
13.3125,4093.0
13.315,4099.0
13.3175,4071.0
13.32,4085.0
13.3225,4109.0
13.325,4101.0
13.3275,4097.0
13.33,4092.0
13.3325,4108.0
13.335,4119.0
13.3375,4105.0
13.34,4085.0
13.3425,4098.0
13.345,4088.0
13.3475,4110.0
13.35,4080.0
13.3525,4073.0
13.355,4071.0
13.3575,4059.0
13.36,4072.0
13.3625,4095.0
13.365,4078.0
13.3675,4088.0
13.37,4095.0
13.3725,4075.0
13.375,4092.0
13.3775,4119.0
13.38,4101.0
13.3825,4082.0
13.385,4112.0
13.3875,4079.0
13.39,4089.0
13.3925,4084.0
13.395,4087.0
13.3975,4061.0
13.4,4079.0
13.4025,4092.0
13.405,4090.0
13.4075,4080.0
13.41,4097.0
13.4125,4073.0
13.415,4075.0
13.4175,4068.0
13.42,4070.0
13.4225,4088.0
13.425,4099.0
13.4275,4088.0
13.43,4090.0
13.4325,4120.0
13.435,4122.0
13.4375,4102.0
13.44,4119.0
13.4425,4117.0
13.445,4112.0
13.4475,4101.0
13.45,4101.0
13.4525,4123.0
13.455,4120.0
13.4575,4116.0
13.46,4106.0
13.4625,4131.0
13.465,4150.0
13.4675,4151.0
13.47,4136.0
13.4725,4142.0
13.475,4146.0
13.4775,4151.0
13.48,4158.0
13.4825,4162.0
13.485,4154.0
13.4875,4130.0
13.49,4162.0
13.4925,4172.0
13.495,4169.0
13.4975,4151.0
13.5,4155.0
13.5025,4142.0
13.505,4131.0
13.5075,4144.0
13.51,4170.0
13.5125,4166.0
13.515,4159.0
13.5175,4162.0
13.52,4145.0
13.5225,4122.0
13.525,4116.0
13.5275,4112.0
13.53,4174.0
13.5325,4165.0
13.535,4175.0
13.5375,4188.0
13.54,4163.0
13.5425,4180.0
13.545,4168.0
13.5475,4186.0
13.55,4187.0
13.5525,4191.0
13.555,4176.0
13.5575,4197.0
13.56,4174.0
13.5625,4179.0
13.565,4180.0
13.5675,4181.0
13.57,4188.0
13.5725,4200.0
13.575,4210.0
13.5775,4221.0
13.58,4206.0
13.5825,4210.0
13.585,4236.0
13.5875,4249.0
13.59,4246.0
13.5925,4281.0
13.595,4275.0
13.5975,4272.0
13.6,4261.0
13.6025,4257.0
13.605,4246.0
13.6075,4222.0
13.61,4244.0
13.6125,4243.0
13.615,4245.0
13.6175,4244.0
13.62,4246.0
13.6225,4266.0
13.625,4261.0
13.6275,4255.0
13.63,4275.0
13.6325,4290.0
13.635,4311.0
13.6375,4305.0
13.64,4274.0
13.6425,4266.0
13.645,4275.0
13.6475,4279.0
13.65,4259.0
13.6525,4263.0
13.655,4263.0
13.6575,4244.0
13.66,4273.0
13.6625,4269.0
13.665,4264.0
13.6675,4265.0
13.67,4294.0
13.6725,4260.0
13.675,4268.0
13.6775,4265.0
13.68,4261.0
13.6825,4196.0
13.685,4117.0
13.6875,4002.0
13.69,3921.0
13.6925,3852.0
13.695,3812.0
13.6975,3813.0
13.7,3927.0
13.7025,4008.0
13.705,4177.0
13.7075,4464.0
13.71,4932.0
13.7125,5602.0
13.715,6402.0
13.7175,7243.0
13.72,7793.0
13.7225,8131.0
13.725,7862.0
13.7275,7225.0
13.73,6040.0
13.7325,4991.0
13.735,4521.0
13.7375,4308.0
13.74,4204.0
13.7425,4106.0
13.745,4044.0
13.7475,3989.0
13.75,3924.0
13.7525,3861.0
13.755,3825.0
13.7575,3769.0
13.76,3753.0
13.7625,3745.0
13.765,3735.0
13.7675,3713.0
13.77,3727.0
13.7725,3706.0
13.775,3691.0
13.7775,3700.0
13.78,3714.0
13.7825,3737.0
13.785,3743.0
13.7875,3761.0
13.79,3765.0
13.7925,3773.0
13.795,3775.0
13.7975,3792.0
13.8,3790.0
13.8025,3821.0
13.805,3819.0
13.8075,3835.0
13.81,3803.0
13.8125,3834.0
13.815,3842.0
13.8175,3873.0
13.82,3860.0
13.8225,3863.0
13.825,3877.0
13.8275,3886.0
13.83,3888.0
13.8325,3894.0
13.835,3900.0
13.8375,3918.0
13.84,3925.0
13.8425,3933.0
13.845,3949.0
13.8475,3950.0
13.85,3958.0
13.8525,3928.0
13.855,3956.0
13.8575,3955.0
13.86,3945.0
13.8625,3953.0
13.865,3974.0
13.8675,3980.0
13.87,3970.0
13.8725,3950.0
13.875,3987.0
13.8775,3981.0
13.88,3980.0
13.8825,3992.0
13.885,4001.0
13.8875,4006.0
13.89,4011.0
13.8925,3994.0
13.895,3986.0
13.8975,3996.0
13.9,4005.0
13.9025,4001.0
13.905,4026.0
13.9075,3998.0
13.91,4020.0
13.9125,3995.0
13.915,4030.0
13.9175,4025.0
13.92,4041.0
13.9225,4031.0
13.925,4032.0
13.9275,4050.0
13.93,4048.0
13.9325,4061.0
13.935,4070.0
13.9375,4085.0
13.94,4073.0
13.9425,4090.0
13.945,4097.0
13.9475,4107.0
13.95,4104.0
13.9525,4128.0
13.955,4149.0
13.9575,4180.0
13.96,4174.0
13.9625,4191.0
13.965,4181.0
13.9675,4194.0
13.97,4202.0
13.9725,4228.0
13.975,4250.0
13.9775,4264.0
13.98,4272.0
13.9825,4318.0
13.985,4287.0
13.9875,4294.0
13.99,4279.0
13.9925,4294.0
13.995,4287.0
13.9975,4266.0
14.0,4244.0
14.0025,4242.0
14.005,4237.0
14.0075,4215.0
14.01,4232.0
14.0125,4229.0
14.015,4217.0
14.0175,4208.0
14.02,4197.0
14.0225,4198.0
14.025,4184.0
14.0275,4204.0
14.03,4197.0
14.0325,4192.0
14.035,4205.0
14.0375,4177.0
14.04,4182.0
14.0425,4169.0
14.045,4172.0
14.0475,4156.0
14.05,4158.0
14.0525,4165.0
14.055,4182.0
14.0575,4194.0
14.06,4181.0
14.0625,4191.0
14.065,4184.0
14.0675,4172.0
14.07,4156.0
14.0725,4171.0
14.075,4170.0
14.0775,4153.0
14.08,4126.0
14.0825,4138.0
14.085,4170.0
14.0875,4171.0
14.09,4166.0
14.0925,4172.0
14.095,4169.0
14.0975,4155.0
14.1,4138.0
14.1025,4142.0
14.105,4138.0
14.1075,4146.0
14.11,4143.0
14.1125,4133.0
14.115,4125.0
14.1175,4107.0
14.12,4090.0
14.1225,4109.0
14.125,4105.0
14.1275,4116.0
14.13,4130.0
14.1325,4111.0
14.135,4110.0
14.1375,4126.0
14.14,4111.0
14.1425,4117.0
14.145,4095.0
14.1475,4132.0
14.15,4110.0
14.1525,4102.0
14.155,4100.0
14.1575,4102.0
14.16,4110.0
14.1625,4120.0
14.165,4114.0
14.1675,4109.0
14.17,4105.0
14.1725,4091.0
14.175,4101.0
14.1775,4102.0
14.18,4096.0
14.1825,4119.0
14.185,4126.0
14.1875,4118.0
14.19,4097.0
14.1925,4104.0
14.195,4101.0
14.1975,4121.0
14.2,4091.0
14.2025,4103.0
14.205,4110.0
14.2075,4102.0
14.21,4088.0
14.2125,4091.0
14.215,4092.0
14.2175,4125.0
14.22,4119.0
14.2225,4104.0
14.225,4106.0
14.2275,4107.0
14.23,4096.0
14.2325,4109.0
14.235,4092.0
14.2375,4078.0
14.24,4102.0
14.2425,4119.0
14.245,4115.0
14.2475,4122.0
14.25,4116.0
14.2525,4086.0
14.255,4105.0
14.2575,4105.0
14.26,4130.0
14.2625,4121.0
14.265,4086.0
14.2675,4084.0
14.27,4094.0
14.2725,4098.0
14.275,4090.0
14.2775,4081.0
14.28,4074.0
14.2825,4094.0
14.285,4092.0
14.2875,4085.0
14.29,4114.0
14.2925,4092.0
14.295,4101.0
14.2975,4088.0
14.3,4078.0
14.3025,4084.0
14.305,4074.0
14.3075,4085.0
14.31,4071.0
14.3125,4059.0
14.315,4082.0
14.3175,4076.0
14.32,4088.0
14.3225,4081.0
14.325,4051.0
14.3275,4070.0
14.33,4046.0
14.3325,4054.0
14.335,4063.0
14.3375,4097.0
14.34,4092.0
14.3425,4068.0
14.345,4056.0
14.3475,4072.0
14.35,4083.0
14.3525,4106.0
14.355,4089.0
14.3575,4094.0
14.36,4073.0
14.3625,4084.0
14.365,4055.0
14.3675,4103.0
14.37,4110.0
14.3725,4073.0
14.375,4098.0
14.3775,4088.0
14.38,4113.0
14.3825,4096.0
14.385,4081.0
14.3875,4085.0
14.39,4073.0
14.3925,4082.0
14.395,4085.0
14.3975,4061.0
14.4,4080.0
14.4025,4072.0
14.405,4073.0
14.4075,4090.0
14.41,4101.0
14.4125,4084.0
14.415,4090.0
14.4175,4067.0
14.42,4083.0
14.4225,4080.0
14.425,4087.0
14.4275,4077.0
14.43,4093.0
14.4325,4054.0
14.435,4064.0
14.4375,4082.0
14.44,4081.0
14.4425,4084.0
14.445,4056.0
14.4475,4052.0
14.45,4054.0
14.4525,4076.0
14.455,4081.0
14.4575,4090.0
14.46,4085.0
14.4625,4061.0
14.465,4087.0
14.4675,4097.0
14.47,4098.0
14.4725,4097.0
14.475,4094.0
14.4775,4085.0
14.48,4069.0
14.4825,4065.0
14.485,4074.0
14.4875,4068.0
14.49,4080.0
14.4925,4085.0
14.495,4048.0
14.4975,4077.0
14.5,4067.0
14.5025,4046.0
14.505,4070.0
14.5075,4093.0
14.51,4091.0
14.5125,4108.0
14.515,4095.0
14.5175,4090.0
14.52,4097.0
14.5225,4087.0
14.525,4075.0
14.5275,4087.0
14.53,4088.0
14.5325,4071.0
14.535,4071.0
14.5375,4070.0
14.54,4070.0
14.5425,4095.0
14.545,4076.0
14.5475,4112.0
14.55,4103.0
14.5525,4088.0
14.555,4072.0
14.5575,4104.0
14.56,4072.0
14.5625,4069.0
14.565,4085.0
14.5675,4087.0
14.57,4094.0
14.5725,4091.0
14.575,4092.0
14.5775,4096.0
14.58,4082.0
14.5825,4083.0
14.585,4076.0
14.5875,4091.0
14.59,4097.0
14.5925,4100.0
14.595,4095.0
14.5975,4077.0
14.6,4076.0
14.6025,4075.0
14.605,4047.0
14.6075,3981.0
14.61,3868.0
14.6125,3760.0
14.615,3650.0
14.6175,3608.0
14.62,3576.0
14.6225,3636.0
14.625,3773.0
14.6275,3921.0
14.63,4157.0
14.6325,4605.0
14.635,5267.0
14.6375,6047.0
14.64,6968.0
14.6425,7521.0
14.645,7919.0
14.6475,7937.0
14.65,7384.0
14.6525,6409.0
14.655,5199.0
14.6575,4441.0
14.66,4137.0
14.6625,3992.0
14.665,3904.0
14.6675,3832.0
14.67,3777.0
14.6725,3712.0
14.675,3627.0
14.6775,3598.0
14.68,3583.0
14.6825,3538.0
14.685,3502.0
14.6875,3467.0
14.69,3459.0
14.6925,3451.0
14.695,3455.0
14.6975,3468.0
14.7,3451.0
14.7025,3489.0
14.705,3498.0
14.7075,3497.0
14.71,3505.0
14.7125,3521.0
14.715,3541.0
14.7175,3523.0
14.72,3550.0
14.7225,3541.0
14.725,3568.0
14.7275,3578.0
14.73,3590.0
14.7325,3609.0
14.735,3587.0
14.7375,3620.0
14.74,3638.0
14.7425,3621.0
14.745,3653.0
14.7475,3669.0
14.75,3655.0
14.7525,3660.0
14.755,3672.0
14.7575,3663.0
14.76,3695.0
14.7625,3703.0
14.765,3713.0
14.7675,3721.0
14.77,3721.0
14.7725,3720.0
14.775,3741.0
14.7775,3764.0
14.78,3748.0
14.7825,3764.0
14.785,3752.0
14.7875,3756.0
14.79,3766.0
14.7925,3780.0
14.795,3784.0
14.7975,3795.0
14.8,3792.0
14.8025,3799.0
14.805,3795.0
14.8075,3790.0
14.81,3784.0
14.8125,3790.0
14.815,3799.0
14.8175,3811.0
14.82,3800.0
14.8225,3813.0
14.825,3800.0
14.8275,3832.0
14.83,3811.0
14.8325,3815.0
14.835,3811.0
14.8375,3835.0
14.84,3867.0
14.8425,3861.0
14.845,3848.0
14.8475,3869.0
14.85,3872.0
14.8525,3876.0
14.855,3886.0
14.8575,3907.0
14.86,3952.0
14.8625,3960.0
14.865,3952.0
14.8675,3972.0
14.87,3990.0
14.8725,3982.0
14.875,3984.0
14.8775,4021.0
14.88,4029.0
14.8825,4035.0
14.885,4041.0
14.8875,4065.0
14.89,4078.0
14.8925,4085.0
14.895,4103.0
14.8975,4142.0
14.9,4132.0
14.9025,4147.0
14.905,4170.0
14.9075,4223.0
14.91,4210.0
14.9125,4214.0
14.915,4209.0
14.9175,4224.0
14.92,4253.0
14.9225,4213.0
14.925,4213.0
14.9275,4216.0
14.93,4221.0
14.9325,4206.0
14.935,4186.0
14.9375,4200.0
14.94,4227.0
14.9425,4211.0
14.945,4209.0
14.9475,4206.0
14.95,4197.0
14.9525,4191.0
14.955,4189.0
14.9575,4214.0
14.96,4226.0
14.9625,4224.0
14.965,4222.0
14.9675,4219.0
14.97,4205.0
14.9725,4202.0
14.975,4208.0
14.9775,4231.0
14.98,4198.0
14.9825,4208.0
14.985,4192.0
14.9875,4201.0
14.99,4187.0
14.9925,4162.0
14.995,4193.0
14.9975,4163.0
15.0,4183.0
15.0025,4147.0
15.005,4165.0
15.0075,4167.0
15.01,4170.0
15.0125,4155.0
15.015,4140.0
15.0175,4168.0
15.02,4182.0
15.0225,4159.0
15.025,4146.0
15.0275,4151.0
15.03,4148.0
15.0325,4126.0
15.035,4147.0
15.0375,4148.0
15.04,4179.0
15.0425,4154.0
15.045,4128.0
15.0475,4130.0
15.05,4150.0
15.0525,4114.0
15.055,4142.0
15.0575,4131.0
15.06,4162.0
15.0625,4145.0
15.065,4167.0
15.0675,4202.0
15.07,4186.0
15.0725,4169.0
15.075,4173.0
15.0775,4158.0
15.08,4140.0
15.0825,4152.0
15.085,4164.0
15.0875,4160.0
15.09,4163.0
15.0925,4148.0
15.095,4172.0
15.0975,4181.0
15.1,4144.0
15.1025,4144.0
15.105,4137.0
15.1075,4155.0
15.11,4146.0
15.1125,4154.0
15.115,4147.0
15.1175,4157.0
15.12,4178.0
15.1225,4184.0
15.125,4155.0
15.1275,4183.0
15.13,4171.0
15.1325,4172.0
15.135,4180.0
15.1375,4195.0
15.14,4190.0
15.1425,4136.0
15.145,4153.0
15.1475,4155.0
15.15,4159.0
15.1525,4162.0
15.155,4151.0
15.1575,4166.0
15.16,4186.0
15.1625,4169.0
15.165,4173.0
15.1675,4174.0
15.17,4128.0
15.1725,4138.0
15.175,4146.0
15.1775,4157.0
15.18,4173.0
15.1825,4166.0
15.185,4166.0
15.1875,4179.0
15.19,4134.0
15.1925,4152.0
15.195,4146.0
15.1975,4163.0
15.2,4157.0
15.2025,4165.0
15.205,4126.0
15.2075,4140.0
15.21,4158.0
15.2125,4150.0
15.215,4131.0
15.2175,4143.0
15.22,4106.0
15.2225,4129.0
15.225,4125.0
15.2275,4159.0
15.23,4129.0
15.2325,4155.0
15.235,4142.0
15.2375,4134.0
15.24,4130.0
15.2425,4153.0
15.245,4166.0
15.2475,4141.0
15.25,4148.0
15.2525,4162.0
15.255,4153.0
15.2575,4154.0
15.26,4151.0
15.2625,4157.0
15.265,4181.0
15.2675,4145.0
15.27,4169.0
15.2725,4166.0
15.275,4143.0
15.2775,4165.0
15.28,4140.0
15.2825,4156.0
15.285,4144.0
15.2875,4119.0
15.29,4155.0
15.2925,4154.0
15.295,4122.0
15.2975,4110.0
15.3,4118.0
15.3025,4115.0
15.305,4114.0
15.3075,4107.0
15.31,4136.0
15.3125,4115.0
15.315,4131.0
15.3175,4110.0
15.32,4121.0
15.3225,4125.0
15.325,4108.0
15.3275,4109.0
15.33,4152.0
15.3325,4119.0
15.335,4099.0
15.3375,4124.0
15.34,4115.0
15.3425,4103.0
15.345,4099.0
15.3475,4109.0
15.35,4122.0
15.3525,4107.0
15.355,4108.0
15.3575,4114.0
15.36,4104.0
15.3625,4117.0
15.365,4102.0
15.3675,4123.0
15.37,4095.0
15.3725,4105.0
15.375,4109.0
15.3775,4102.0
15.38,4132.0
15.3825,4135.0
15.385,4152.0
15.3875,4144.0
15.39,4159.0
15.3925,4148.0
15.395,4124.0
15.3975,4098.0
15.4,4129.0
15.4025,4121.0
15.405,4121.0
15.4075,4118.0
15.41,4116.0
15.4125,4125.0
15.415,4119.0
15.4175,4099.0
15.42,4120.0
15.4225,4112.0
15.425,4112.0
15.4275,4149.0
15.43,4158.0
15.4325,4166.0
15.435,4119.0
15.4375,4118.0
15.44,4133.0
15.4425,4129.0
15.445,4127.0
15.4475,4133.0
15.45,4123.0
15.4525,4124.0
15.455,4135.0
15.4575,4114.0
15.46,4138.0
15.4625,4154.0
15.465,4121.0
15.4675,4123.0
15.47,4123.0
15.4725,4122.0
15.475,4098.0
15.4775,4048.0
15.48,3972.0
15.4825,3814.0
15.485,3729.0
15.4875,3640.0
15.49,3585.0
15.4925,3576.0
15.495,3680.0
15.4975,3805.0
15.5,3963.0
15.5025,4338.0
15.505,4904.0
15.5075,5631.0
15.51,6459.0
15.5125,7215.0
15.515,7721.0
15.5175,8013.0
15.52,7807.0
15.5225,7098.0
15.525,5944.0
15.5275,4854.0
15.53,4274.0
15.5325,4068.0
15.535,3938.0
15.5375,3905.0
15.54,3820.0
15.5425,3764.0
15.545,3704.0
15.5475,3651.0
15.55,3614.0
15.5525,3608.0
15.555,3549.0
15.5575,3531.0
15.56,3521.0
15.5625,3521.0
15.565,3505.0
15.5675,3505.0
15.57,3514.0
15.5725,3509.0
15.575,3484.0
15.5775,3511.0
15.58,3514.0
15.5825,3533.0
15.585,3542.0
15.5875,3551.0
15.59,3556.0
15.5925,3570.0
15.595,3589.0
15.5975,3596.0
15.6,3577.0
15.6025,3620.0
15.605,3617.0
15.6075,3623.0
15.61,3634.0
15.6125,3658.0
15.615,3672.0
15.6175,3646.0
15.62,3697.0
15.6225,3696.0
15.625,3676.0
15.6275,3682.0
15.63,3685.0
15.6325,3701.0
15.635,3701.0
15.6375,3671.0
15.64,3705.0
15.6425,3742.0
15.645,3737.0
15.6475,3726.0
15.65,3721.0
15.6525,3747.0
15.655,3738.0
15.6575,3750.0
15.66,3743.0
15.6625,3786.0
15.665,3796.0
15.6675,3770.0
15.67,3777.0
15.6725,3799.0
15.675,3819.0
15.6775,3813.0
15.68,3796.0
15.6825,3796.0
15.685,3808.0
15.6875,3788.0
15.69,3804.0
15.6925,3797.0
15.695,3798.0
15.6975,3798.0
15.7,3820.0
15.7025,3827.0
15.705,3837.0
15.7075,3817.0
15.71,3832.0
15.7125,3844.0
15.715,3831.0
15.7175,3813.0
15.72,3860.0
15.7225,3865.0
15.725,3877.0
15.7275,3868.0
15.73,3899.0
15.7325,3903.0
15.735,3902.0
15.7375,3910.0
15.74,3938.0
15.7425,3935.0
15.745,3958.0
15.7475,3944.0
15.75,3966.0
15.7525,3981.0
15.755,3975.0
15.7575,3988.0
15.76,4021.0
15.7625,4043.0
15.765,4050.0
15.7675,4043.0
15.77,4032.0
15.7725,4073.0
15.775,4092.0
15.7775,4111.0
15.78,4124.0
15.7825,4159.0
15.785,4148.0
15.7875,4136.0
15.79,4152.0
15.7925,4163.0
15.795,4123.0
15.7975,4181.0
15.8,4205.0
15.8025,4190.0
15.805,4184.0
15.8075,4179.0
15.81,4194.0
15.8125,4194.0
15.815,4175.0
15.8175,4179.0
15.82,4201.0
15.8225,4155.0
15.825,4136.0
15.8275,4140.0
15.83,4135.0
15.8325,4142.0
15.835,4150.0
15.8375,4139.0
15.84,4158.0
15.8425,4151.0
15.845,4159.0
15.8475,4156.0
15.85,4156.0
15.8525,4141.0
15.855,4141.0
15.8575,4160.0
15.86,4167.0
15.8625,4174.0
15.865,4175.0
15.8675,4139.0
15.87,4150.0
15.8725,4168.0
15.875,4139.0
15.8775,4133.0
15.88,4166.0
15.8825,4159.0
15.885,4140.0
15.8875,4131.0
15.89,4142.0
15.8925,4133.0
15.895,4145.0
15.8975,4118.0
15.9,4133.0
15.9025,4125.0
15.905,4119.0
15.9075,4116.0
15.91,4124.0
15.9125,4118.0
15.915,4109.0
15.9175,4097.0
15.92,4125.0
15.9225,4108.0
15.925,4107.0
15.9275,4103.0
15.93,4122.0
15.9325,4116.0
15.935,4119.0
15.9375,4094.0
15.94,4080.0
15.9425,4084.0
15.945,4089.0
15.9475,4090.0
15.95,4112.0
15.9525,4101.0
15.955,4120.0
15.9575,4118.0
15.96,4109.0
15.9625,4116.0
15.965,4103.0
15.9675,4099.0
15.97,4102.0
15.9725,4091.0
15.975,4137.0
15.9775,4117.0
15.98,4136.0
15.9825,4110.0
15.985,4127.0
15.9875,4115.0
15.99,4111.0
15.9925,4150.0
15.995,4140.0
15.9975,4128.0
16.0,4139.0
16.0025,4124.0
16.005,4100.0
16.0075,4107.0
16.01,4090.0
16.0125,4093.0
16.015,4119.0
16.0175,4089.0
16.02,4118.0
16.0225,4110.0
16.025,4102.0
16.0275,4104.0
16.03,4109.0
16.0325,4082.0
16.035,4101.0
16.0375,4092.0
16.04,4088.0
16.0425,4104.0
16.045,4112.0
16.0475,4090.0
16.05,4093.0
16.0525,4113.0
16.055,4117.0
16.0575,4112.0
16.06,4120.0
16.0625,4126.0
16.065,4110.0
16.0675,4115.0
16.07,4105.0
16.0725,4105.0
16.075,4132.0
16.0775,4122.0
16.08,4100.0
16.0825,4096.0
16.085,4119.0
16.0875,4099.0
16.09,4073.0
16.0925,4085.0
16.095,4081.0
16.0975,4091.0
16.1,4086.0
16.1025,4076.0
16.105,4089.0
16.1075,4077.0
16.11,4077.0
16.1125,4070.0
16.115,4109.0
16.1175,4084.0
16.12,4096.0
16.1225,4102.0
16.125,4071.0
16.1275,4077.0
16.13,4081.0
16.1325,4070.0
16.135,4083.0
16.1375,4081.0
16.14,4101.0
16.1425,4103.0
16.145,4101.0
16.1475,4072.0
16.15,4080.0
16.1525,4095.0
16.155,4099.0
16.1575,4104.0
16.16,4103.0
16.1625,4098.0
16.165,4096.0
16.1675,4084.0
16.17,4087.0
16.1725,4115.0
16.175,4096.0
16.1775,4097.0
16.18,4078.0
16.1825,4095.0
16.185,4080.0
16.1875,4051.0
16.19,4083.0
16.1925,4089.0
16.195,4095.0
16.1975,4076.0
16.2,4076.0
16.2025,4062.0
16.205,4055.0
16.2075,4080.0
16.21,4071.0
16.2125,4057.0
16.215,4055.0
16.2175,4046.0
16.22,4062.0
16.2225,4072.0
16.225,4078.0
16.2275,4099.0
16.23,4085.0
16.2325,4096.0
16.235,4090.0
16.2375,4085.0
16.24,4072.0
16.2425,4095.0
16.245,4104.0
16.2475,4086.0
16.25,4092.0
16.2525,4085.0
16.255,4090.0
16.2575,4077.0
16.26,4084.0
16.2625,4092.0
16.265,4102.0
16.2675,4119.0
16.27,4124.0
16.2725,4135.0
16.275,4118.0
16.2775,4121.0
16.28,4123.0
16.2825,4147.0
16.285,4121.0
16.2875,4136.0
16.29,4129.0
16.2925,4094.0
16.295,4107.0
16.2975,4094.0
16.3,4109.0
16.3025,4125.0
16.305,4113.0
16.3075,4118.0
16.31,4111.0
16.3125,4100.0
16.315,4129.0
16.3175,4115.0
16.32,4127.0
16.3225,4098.0
16.325,4032.0
16.3275,3926.0
16.33,3816.0
16.3325,3728.0
16.335,3677.0
16.3375,3667.0
16.34,3697.0
16.3425,3788.0
16.345,3900.0
16.3475,4074.0
16.35,4431.0
16.3525,4962.0
16.355,5670.0
16.3575,6528.0
16.36,7255.0
16.3625,7749.0
16.365,7917.0
16.3675,7449.0
16.37,6539.0
16.3725,5416.0
16.375,4631.0
16.3775,4308.0
16.38,4118.0
16.3825,4019.0
16.385,3947.0
16.3875,3874.0
16.39,3815.0
16.3925,3747.0
16.395,3716.0
16.3975,3698.0
16.4,3640.0
16.4025,3658.0
16.405,3620.0
16.4075,3606.0
16.41,3596.0
16.4125,3594.0
16.415,3568.0
16.4175,3598.0
16.42,3582.0
16.4225,3597.0
16.425,3610.0
16.4275,3607.0
16.43,3602.0
16.4325,3598.0
16.435,3631.0
16.4375,3639.0
16.44,3652.0
16.4425,3677.0
16.445,3688.0
16.4475,3689.0
16.45,3682.0
16.4525,3720.0
16.455,3733.0
16.4575,3751.0
16.46,3739.0
16.4625,3729.0
16.465,3749.0
16.4675,3750.0
16.47,3772.0
16.4725,3766.0
16.475,3795.0
16.4775,3812.0
16.48,3787.0
16.4825,3780.0
16.485,3796.0
16.4875,3799.0
16.49,3799.0
16.4925,3783.0
16.495,3799.0
16.4975,3815.0
16.5,3819.0
16.5025,3815.0
16.505,3805.0
16.5075,3823.0
16.51,3832.0
16.5125,3857.0
16.515,3865.0
16.5175,3880.0
16.52,3875.0
16.5225,3862.0
16.525,3881.0
16.5275,3874.0
16.53,3868.0
16.5325,3881.0
16.535,3875.0
16.5375,3874.0
16.54,3871.0
16.5425,3913.0
16.545,3915.0
16.5475,3912.0
16.55,3915.0
16.5525,3931.0
16.555,3941.0
16.5575,3957.0
16.56,3953.0
16.5625,3958.0
16.565,3953.0
16.5675,3960.0
16.57,3963.0
16.5725,3955.0
16.575,3959.0
16.5775,3962.0
16.58,3988.0
16.5825,3985.0
16.585,3993.0
16.5875,3998.0
16.59,4012.0
16.5925,3999.0
16.595,4010.0
16.5975,4014.0
16.6,4045.0
16.6025,4052.0
16.605,4069.0
16.6075,4077.0
16.61,4082.0
16.6125,4104.0
16.615,4130.0
16.6175,4146.0
16.62,4149.0
16.6225,4176.0
16.625,4172.0
16.6275,4176.0
16.63,4178.0
16.6325,4184.0
16.635,4181.0
16.6375,4189.0
16.64,4170.0
16.6425,4170.0
16.645,4155.0
16.6475,4143.0
16.65,4142.0
16.6525,4142.0
16.655,4142.0
16.6575,4142.0
16.66,4132.0
16.6625,4135.0
16.665,4133.0
16.6675,4138.0
16.67,4124.0
16.6725,4127.0
16.675,4145.0
16.6775,4134.0
16.68,4121.0
16.6825,4140.0
16.685,4125.0
16.6875,4120.0
16.69,4109.0
16.6925,4117.0
16.695,4121.0
16.6975,4153.0
16.7,4145.0
16.7025,4134.0
16.705,4128.0
16.7075,4142.0
16.71,4122.0
16.7125,4161.0
16.715,4140.0
16.7175,4151.0
16.72,4145.0
16.7225,4137.0
16.725,4150.0
16.7275,4148.0
16.73,4149.0
16.7325,4131.0
16.735,4120.0
16.7375,4157.0
16.74,4158.0
16.7425,4146.0
16.745,4145.0
16.7475,4144.0
16.75,4111.0
16.7525,4130.0
16.755,4137.0
16.7575,4143.0
16.76,4119.0
16.7625,4117.0
16.765,4120.0
16.7675,4133.0
16.77,4141.0
16.7725,4143.0
16.775,4156.0
16.7775,4140.0
16.78,4133.0
16.7825,4142.0
16.785,4131.0
16.7875,4137.0
16.79,4128.0
16.7925,4120.0
16.795,4143.0
16.7975,4142.0
16.8,4133.0
16.8025,4155.0
16.805,4162.0
16.8075,4166.0
16.81,4158.0
16.8125,4164.0
16.815,4171.0
16.8175,4178.0
16.82,4173.0
16.8225,4166.0
16.825,4160.0
16.8275,4167.0
16.83,4140.0
16.8325,4127.0
16.835,4138.0
16.8375,4176.0
16.84,4156.0
16.8425,4125.0
16.845,4132.0
16.8475,4150.0
16.85,4145.0
16.8525,4146.0
16.855,4145.0
16.8575,4144.0
16.86,4143.0
16.8625,4160.0
16.865,4153.0
16.8675,4166.0
16.87,4138.0
16.8725,4167.0
16.875,4124.0
16.8775,4139.0
16.88,4151.0
16.8825,4134.0
16.885,4126.0
16.8875,4136.0
16.89,4127.0
16.8925,4142.0
16.895,4159.0
16.8975,4147.0
16.9,4139.0
16.9025,4150.0
16.905,4173.0
16.9075,4173.0
16.91,4145.0
16.9125,4145.0
16.915,4163.0
16.9175,4156.0
16.92,4143.0
16.9225,4150.0
16.925,4155.0
16.9275,4162.0
16.93,4151.0
16.9325,4141.0
16.935,4142.0
16.9375,4169.0
16.94,4135.0
16.9425,4139.0
16.945,4167.0
16.9475,4153.0
16.95,4143.0
16.9525,4149.0
16.955,4158.0
16.9575,4151.0
16.96,4154.0
16.9625,4158.0
16.965,4163.0
16.9675,4157.0
16.97,4172.0
16.9725,4141.0
16.975,4149.0
16.9775,4145.0
16.98,4132.0
16.9825,4147.0
16.985,4133.0
16.9875,4148.0
16.99,4127.0
16.9925,4147.0
16.995,4149.0
16.9975,4129.0
17.0,4126.0
17.0025,4136.0
17.005,4111.0
17.0075,4126.0
17.01,4104.0
17.0125,4117.0
17.015,4136.0
17.0175,4149.0
17.02,4165.0
17.0225,4152.0
17.025,4151.0
17.0275,4164.0
17.03,4159.0
17.0325,4169.0
17.035,4154.0
17.0375,4133.0
17.04,4117.0
17.0425,4118.0
17.045,4110.0
17.0475,4104.0
17.05,4135.0
17.0525,4115.0
17.055,4123.0
17.0575,4120.0
17.06,4109.0
17.0625,4131.0
17.065,4138.0
17.0675,4143.0
17.07,4153.0
17.0725,4157.0
17.075,4160.0
17.0775,4148.0
17.08,4147.0
17.0825,4144.0
17.085,4154.0
17.0875,4138.0
17.09,4121.0
17.0925,4116.0
17.095,4117.0
17.0975,4127.0
17.1,4134.0
17.1025,4123.0
17.105,4130.0
17.1075,4137.0
17.11,4158.0
17.1125,4183.0
17.115,4156.0
17.1175,4144.0
17.12,4114.0
17.1225,4050.0
17.125,3990.0
17.1275,3879.0
17.13,3789.0
17.1325,3705.0
17.135,3662.0
17.1375,3625.0
17.14,3705.0
17.1425,3790.0
17.145,3938.0
17.1475,4167.0
17.15,4590.0
17.1525,5185.0
17.155,5925.0
17.1575,6794.0
17.16,7444.0
17.1625,7886.0
17.165,7845.0
17.1675,7314.0
17.17,6277.0
17.1725,5149.0
17.175,4532.0
17.1775,4279.0
17.18,4122.0
17.1825,4033.0
17.185,3957.0
17.1875,3875.0
17.19,3807.0
17.1925,3742.0
17.195,3675.0
17.1975,3669.0
17.2,3641.0
17.2025,3612.0
17.205,3610.0
17.2075,3596.0
17.21,3585.0
17.2125,3578.0
17.215,3588.0
17.2175,3569.0
17.22,3597.0
17.2225,3577.0
17.225,3589.0
17.2275,3617.0
17.23,3629.0
17.2325,3604.0
17.235,3635.0
17.2375,3647.0
17.24,3666.0
17.2425,3686.0
17.245,3710.0
17.2475,3709.0
17.25,3725.0
17.2525,3723.0
17.255,3715.0
17.2575,3729.0
17.26,3723.0
17.2625,3720.0
17.265,3761.0
17.2675,3773.0
17.27,3750.0
17.2725,3771.0
17.275,3783.0
17.2775,3791.0
17.28,3796.0
17.2825,3775.0
17.285,3802.0
17.2875,3813.0
17.29,3808.0
17.2925,3805.0
17.295,3828.0
17.2975,3835.0
17.3,3825.0
17.3025,3851.0
17.305,3844.0
17.3075,3857.0
17.31,3869.0
17.3125,3863.0
17.315,3855.0
17.3175,3875.0
17.32,3863.0
17.3225,3851.0
17.325,3862.0
17.3275,3881.0
17.33,3890.0
17.3325,3876.0
17.335,3861.0
17.3375,3883.0
17.34,3892.0
17.3425,3887.0
17.345,3896.0
17.3475,3917.0
17.35,3913.0
17.3525,3929.0
17.355,3908.0
17.3575,3927.0
17.36,3933.0
17.3625,3924.0
17.365,3973.0
17.3675,3981.0
17.37,3982.0
17.3725,4004.0
17.375,4006.0
17.3775,3997.0
17.38,4018.0
17.3825,4001.0
17.385,4018.0
17.3875,4039.0
17.39,4031.0
17.3925,4044.0
17.395,4038.0
17.3975,4066.0
17.4,4089.0
17.4025,4085.0
17.405,4120.0
17.4075,4126.0
17.41,4135.0
17.4125,4147.0
17.415,4168.0
17.4175,4203.0
17.42,4215.0
17.4225,4226.0
17.425,4215.0
17.4275,4208.0
17.43,4222.0
17.4325,4226.0
17.435,4207.0
17.4375,4210.0
17.44,4197.0
17.4425,4197.0
17.445,4170.0
17.4475,4176.0
17.45,4178.0
17.4525,4172.0
17.455,4153.0
17.4575,4174.0
17.46,4157.0
17.4625,4149.0
17.465,4149.0
17.4675,4137.0
17.47,4144.0
17.4725,4130.0
17.475,4120.0
17.4775,4135.0
17.48,4143.0
17.4825,4132.0
17.485,4138.0
17.4875,4130.0
17.49,4154.0
17.4925,4129.0
17.495,4127.0
17.4975,4131.0
17.5,4126.0
17.5025,4122.0
17.505,4148.0
17.5075,4117.0
17.51,4121.0
17.5125,4130.0
17.515,4120.0
17.5175,4153.0
17.52,4146.0
17.5225,4109.0
17.525,4121.0
17.5275,4137.0
17.53,4138.0
17.5325,4128.0
17.535,4105.0
17.5375,4113.0
17.54,4104.0
17.5425,4129.0
17.545,4133.0
17.5475,4131.0
17.55,4135.0
17.5525,4132.0
17.555,4144.0
17.5575,4148.0
17.56,4151.0
17.5625,4159.0
17.565,4135.0
17.5675,4143.0
17.57,4136.0
17.5725,4150.0
17.575,4143.0
17.5775,4134.0
17.58,4135.0
17.5825,4134.0
17.585,4136.0
17.5875,4135.0
17.59,4149.0
17.5925,4125.0
17.595,4136.0
17.5975,4120.0
17.6,4139.0
17.6025,4124.0
17.605,4136.0
17.6075,4152.0
17.61,4132.0
17.6125,4161.0
17.615,4145.0
17.6175,4152.0
17.62,4159.0
17.6225,4159.0
17.625,4138.0
17.6275,4138.0
17.63,4151.0
17.6325,4133.0
17.635,4125.0
17.6375,4134.0
17.64,4132.0
17.6425,4135.0
17.645,4148.0
17.6475,4150.0
17.65,4151.0
17.6525,4154.0
17.655,4161.0
17.6575,4158.0
17.66,4172.0
17.6625,4154.0
17.665,4157.0
17.6675,4152.0
17.67,4143.0
17.6725,4140.0
17.675,4141.0
17.6775,4157.0
17.68,4160.0
17.6825,4165.0
17.685,4141.0
17.6875,4138.0
17.69,4138.0
17.6925,4117.0
17.695,4133.0
17.6975,4145.0
17.7,4125.0
17.7025,4117.0
17.705,4117.0
17.7075,4122.0
17.71,4114.0
17.7125,4127.0
17.715,4132.0
17.7175,4129.0
17.72,4134.0
17.7225,4124.0
17.725,4094.0
17.7275,4101.0
17.73,4087.0
17.7325,4099.0
17.735,4115.0
17.7375,4110.0
17.74,4100.0
17.7425,4113.0
17.745,4105.0
17.7475,4103.0
17.75,4134.0
17.7525,4120.0
17.755,4113.0
17.7575,4096.0
17.76,4082.0
17.7625,4094.0
17.765,4075.0
17.7675,4070.0
17.77,4093.0
17.7725,4095.0
17.775,4083.0
17.7775,4090.0
17.78,4094.0
17.7825,4086.0
17.785,4092.0
17.7875,4086.0
17.79,4099.0
17.7925,4113.0
17.795,4083.0
17.7975,4109.0
17.8,4087.0
17.8025,4106.0
17.805,4087.0
17.8075,4088.0
17.81,4072.0
17.8125,4098.0
17.815,4098.0
17.8175,4079.0
17.82,4094.0
17.8225,4110.0
17.825,4101.0
17.8275,4085.0
17.83,4113.0
17.8325,4083.0
17.835,4088.0
17.8375,4092.0
17.84,4096.0
17.8425,4092.0
17.845,4125.0
17.8475,4110.0
17.85,4110.0
17.8525,4101.0
17.855,4106.0
17.8575,4091.0
17.86,4105.0
17.8625,4102.0
17.865,4080.0
17.8675,4079.0
17.87,4124.0
17.8725,4097.0
17.875,4075.0
17.8775,4084.0
17.88,4086.0
17.8825,4082.0
17.885,4114.0
17.8875,4098.0
17.89,4083.0
17.8925,4087.0
17.895,4070.0
17.8975,4057.0
17.9,4079.0
17.9025,4083.0
17.905,4085.0
17.9075,4064.0
17.91,4076.0
17.9125,4084.0
17.915,4089.0
17.9175,4062.0
17.92,4081.0
17.9225,4088.0
17.925,4060.0
17.9275,4076.0
17.93,4091.0
17.9325,4090.0
17.935,4102.0
17.9375,4106.0
17.94,4124.0
17.9425,4113.0
17.945,4116.0
17.9475,4094.0
17.95,4108.0
17.9525,4097.0
17.955,4103.0
17.9575,4095.0
17.96,4118.0
17.9625,4098.0
17.965,4126.0
17.9675,4108.0
17.97,4120.0
17.9725,4136.0
17.975,4129.0
17.9775,4110.0
17.98,4101.0
17.9825,4105.0
17.985,4091.0
17.9875,4088.0
17.99,4127.0
17.9925,4136.0
17.995,4125.0
17.9975,4114.0
18.0,4104.0
18.0025,4096.0
18.005,4101.0
18.0075,4123.0
18.01,4103.0
18.0125,4090.0
18.015,4090.0
18.0175,4090.0
18.02,4111.0
18.0225,4112.0
18.025,4110.0
18.0275,4103.0
18.03,4037.0
18.0325,3929.0
18.035,3810.0
18.0375,3723.0
18.04,3649.0
18.0425,3630.0
18.045,3627.0
18.0475,3718.0
18.05,3856.0
18.0525,4021.0
18.055,4379.0
18.0575,4982.0
18.06,5691.0
18.0625,6539.0
18.065,7277.0
18.0675,7791.0
18.07,8084.0
18.0725,7744.0
18.075,7041.0
18.0775,5833.0
18.08,4790.0
18.0825,4293.0
18.085,4089.0
18.0875,3973.0
18.09,3908.0
18.0925,3831.0
18.095,3754.0
18.0975,3681.0
18.1,3651.0
18.1025,3633.0
18.105,3591.0
18.1075,3567.0
18.11,3534.0
18.1125,3536.0
18.115,3524.0
18.1175,3526.0
18.12,3518.0
18.1225,3532.0
18.125,3517.0
18.1275,3526.0
18.13,3541.0
18.1325,3536.0
18.135,3541.0
18.1375,3558.0
18.14,3542.0
18.1425,3571.0
18.145,3593.0
18.1475,3602.0
18.15,3609.0
18.1525,3621.0
18.155,3646.0
18.1575,3640.0
18.16,3645.0
18.1625,3651.0
18.165,3655.0
18.1675,3682.0
18.17,3674.0
18.1725,3682.0
18.175,3712.0
18.1775,3693.0
18.18,3725.0
18.1825,3744.0
18.185,3768.0
18.1875,3770.0
18.19,3742.0
18.1925,3743.0
18.195,3749.0
18.1975,3756.0
18.2,3753.0
18.2025,3759.0
18.205,3765.0
18.2075,3793.0
18.21,3801.0
18.2125,3793.0
18.215,3778.0
18.2175,3775.0
18.22,3809.0
18.2225,3797.0
18.225,3813.0
18.2275,3798.0
18.23,3790.0
18.2325,3811.0
18.235,3819.0
18.2375,3809.0
18.24,3816.0
18.2425,3819.0
18.245,3835.0
18.2475,3849.0
18.25,3827.0
18.2525,3843.0
18.255,3831.0
18.2575,3867.0
18.26,3869.0
18.2625,3876.0
18.265,3860.0
18.2675,3878.0
18.27,3876.0
18.2725,3897.0
18.275,3885.0
18.2775,3880.0
18.28,3900.0
18.2825,3929.0
18.285,3953.0
18.2875,3965.0
18.29,3950.0
18.2925,3966.0
18.295,3991.0
18.2975,3990.0
18.3,4005.0
18.3025,4001.0
18.305,4002.0
18.3075,4008.0
18.31,4013.0
18.3125,4042.0
18.315,4050.0
18.3175,4069.0
18.32,4094.0
18.3225,4116.0
18.325,4111.0
18.3275,4133.0
18.33,4139.0
18.3325,4145.0
18.335,4137.0
18.3375,4163.0
18.34,4176.0
18.3425,4176.0
18.345,4174.0
18.3475,4171.0
18.35,4155.0
18.3525,4167.0
18.355,4155.0
18.3575,4128.0
18.36,4127.0
18.3625,4122.0
18.365,4140.0
18.3675,4153.0
18.37,4133.0
18.3725,4134.0
18.375,4151.0
18.3775,4120.0
18.38,4122.0
18.3825,4114.0
18.385,4132.0
18.3875,4122.0
18.39,4098.0
18.3925,4117.0
18.395,4109.0
18.3975,4114.0
18.4,4133.0
18.4025,4128.0
18.405,4128.0
18.4075,4115.0
18.41,4129.0
18.4125,4124.0
18.415,4117.0
18.4175,4126.0
18.42,4120.0
18.4225,4107.0
18.425,4125.0
18.4275,4111.0
18.43,4128.0
18.4325,4129.0
18.435,4144.0
18.4375,4137.0
18.44,4161.0
18.4425,4159.0
18.445,4149.0
18.4475,4138.0
18.45,4151.0
18.4525,4148.0
18.455,4157.0
18.4575,4164.0
18.46,4159.0
18.4625,4132.0
18.465,4123.0
18.4675,4118.0
18.47,4134.0
18.4725,4112.0
18.475,4133.0
18.4775,4123.0
18.48,4139.0
18.4825,4154.0
18.485,4114.0
18.4875,4120.0
18.49,4114.0
18.4925,4125.0
18.495,4097.0
18.4975,4087.0
18.5,4076.0
18.5025,4062.0
18.505,4075.0
18.5075,4065.0
18.51,4096.0
18.5125,4106.0
18.515,4118.0
18.5175,4112.0
18.52,4121.0
18.5225,4104.0
18.525,4116.0
18.5275,4107.0
18.53,4118.0
18.5325,4120.0
18.535,4116.0
18.5375,4130.0
18.54,4126.0
18.5425,4115.0
18.545,4104.0
18.5475,4113.0
18.55,4123.0
18.5525,4115.0
18.555,4118.0
18.5575,4105.0
18.56,4099.0
18.5625,4102.0
18.565,4095.0
18.5675,4094.0
18.57,4089.0
18.5725,4093.0
18.575,4105.0
18.5775,4102.0
18.58,4091.0
18.5825,4122.0
18.585,4106.0
18.5875,4071.0
18.59,4093.0
18.5925,4105.0
18.595,4108.0
18.5975,4091.0
18.6,4092.0
18.6025,4094.0
18.605,4113.0
18.6075,4099.0
18.61,4102.0
18.6125,4132.0
18.615,4120.0
18.6175,4091.0
18.62,4092.0
18.6225,4096.0
18.625,4086.0
18.6275,4082.0
18.63,4084.0
18.6325,4094.0
18.635,4089.0
18.6375,4079.0
18.64,4100.0
18.6425,4111.0
18.645,4097.0
18.6475,4082.0
18.65,4082.0
18.6525,4100.0
18.655,4100.0
18.6575,4088.0
18.66,4104.0
18.6625,4082.0
18.665,4093.0
18.6675,4112.0
18.67,4107.0
18.6725,4099.0
18.675,4095.0
18.6775,4070.0
18.68,4060.0
18.6825,4094.0
18.685,4084.0
18.6875,4074.0
18.69,4071.0
18.6925,4067.0
18.695,4082.0
18.6975,4063.0
18.7,4062.0
18.7025,4059.0
18.705,4061.0
18.7075,4061.0
18.71,4056.0
18.7125,4063.0
18.715,4068.0
18.7175,4070.0
18.72,4077.0
18.7225,4064.0
18.725,4069.0
18.7275,4058.0
18.73,4088.0
18.7325,4081.0
18.735,4080.0
18.7375,4066.0
18.74,4077.0
18.7425,4093.0
18.745,4089.0
18.7475,4070.0
18.75,4063.0
18.7525,4074.0
18.755,4080.0
18.7575,4067.0
18.76,4057.0
18.7625,4054.0
18.765,4042.0
18.7675,4061.0
18.77,4045.0
18.7725,4073.0
18.775,4084.0
18.7775,4075.0
18.78,4075.0
18.7825,4072.0
18.785,4058.0
18.7875,4057.0
18.79,4061.0
18.7925,4071.0
18.795,4071.0
18.7975,4058.0
18.8,4050.0
18.8025,4040.0
18.805,4059.0
18.8075,4093.0
18.81,4079.0
18.8125,4032.0
18.815,4036.0
18.8175,4039.0
18.82,4026.0
18.8225,4005.0
18.825,4049.0
18.8275,4038.0
18.83,4051.0
18.8325,4055.0
18.835,4057.0
18.8375,4041.0
18.84,4040.0
18.8425,4068.0
18.845,4067.0
18.8475,4088.0
18.85,4081.0
18.8525,4073.0
18.855,4076.0
18.8575,4071.0
18.86,4052.0
18.8625,4049.0
18.865,4048.0
18.8675,4060.0
18.87,4066.0
18.8725,4075.0
18.875,4068.0
18.8775,4073.0
18.88,4077.0
18.8825,4083.0
18.885,4075.0
18.8875,4086.0
18.89,4088.0
18.8925,4098.0
18.895,4089.0
18.8975,4101.0
18.9,4080.0
18.9025,4098.0
18.905,4093.0
18.9075,4095.0
18.91,4084.0
18.9125,4061.0
18.915,4072.0
18.9175,4069.0
18.92,4064.0
18.9225,4070.0
18.925,4055.0
18.9275,4080.0
18.93,4062.0
18.9325,4069.0
18.935,4073.0
18.9375,4065.0
18.94,4052.0
18.9425,4000.0
18.945,3917.0
18.9475,3778.0
18.95,3691.0
18.9525,3627.0
18.955,3573.0
18.9575,3605.0
18.96,3669.0
18.9625,3792.0
18.965,3941.0
18.9675,4262.0
18.97,4805.0
18.9725,5522.0
18.975,6349.0
18.9775,7191.0
18.98,7747.0
18.9825,8088.0
18.985,7843.0
18.9875,7176.0
18.99,5958.0
18.9925,4858.0
18.995,4332.0
18.9975,4144.0
19.0,3996.0
19.0025,3900.0
19.005,3850.0
19.0075,3779.0
19.01,3710.0
19.0125,3650.0
19.015,3608.0
19.0175,3565.0
19.02,3552.0
19.0225,3537.0
19.025,3523.0
19.0275,3493.0
19.03,3485.0
19.0325,3489.0
19.035,3491.0
19.0375,3494.0
19.04,3499.0
19.0425,3512.0
19.045,3506.0
19.0475,3533.0
19.05,3538.0
19.0525,3532.0
19.055,3567.0
19.0575,3594.0
19.06,3605.0
19.0625,3621.0
19.065,3633.0
19.0675,3629.0
19.07,3631.0
19.0725,3643.0
19.075,3668.0
19.0775,3643.0
19.08,3665.0
19.0825,3669.0
19.085,3675.0
19.0875,3691.0
19.09,3693.0
19.0925,3731.0
19.095,3744.0
19.0975,3758.0
19.1,3746.0
19.1025,3748.0
19.105,3774.0
19.1075,3794.0
19.11,3779.0
19.1125,3767.0
19.115,3783.0
19.1175,3810.0
19.12,3795.0
19.1225,3785.0
19.125,3783.0
19.1275,3823.0
19.13,3833.0
19.1325,3837.0
19.135,3820.0
19.1375,3823.0
19.14,3815.0
19.1425,3810.0
19.145,3836.0
19.1475,3833.0
19.15,3836.0
19.1525,3847.0
19.155,3859.0
19.1575,3858.0
19.16,3857.0
19.1625,3853.0
19.165,3852.0
19.1675,3857.0
19.17,3848.0
19.1725,3856.0
19.175,3866.0
19.1775,3853.0
19.18,3867.0
19.1825,3875.0
19.185,3885.0
19.1875,3914.0
19.19,3905.0
19.1925,3904.0
19.195,3925.0
19.1975,3934.0
19.2,3956.0
19.2025,3957.0
19.205,3978.0
19.2075,3982.0
19.21,3994.0
19.2125,4004.0
19.215,3999.0
19.2175,4005.0
19.22,4041.0
19.2225,4043.0
19.225,4051.0
19.2275,4076.0
19.23,4083.0
19.2325,4070.0
19.235,4098.0
19.2375,4138.0
19.24,4137.0
19.2425,4162.0
19.245,4172.0
19.2475,4171.0
19.25,4177.0
19.2525,4171.0
19.255,4177.0
19.2575,4199.0
19.26,4204.0
19.2625,4192.0
19.265,4184.0
19.2675,4170.0
19.27,4159.0
19.2725,4172.0
19.275,4174.0
19.2775,4194.0
19.28,4184.0
19.2825,4184.0
19.285,4170.0
19.2875,4169.0
19.29,4174.0
19.2925,4155.0
19.295,4157.0
19.2975,4150.0
19.3,4148.0
19.3025,4139.0
19.305,4148.0
19.3075,4144.0
19.31,4158.0
19.3125,4159.0
19.315,4167.0
19.3175,4173.0
19.32,4158.0
19.3225,4146.0
19.325,4167.0
19.3275,4165.0
19.33,4165.0
19.3325,4179.0
19.335,4176.0
19.3375,4195.0
19.34,4173.0
19.3425,4174.0
19.345,4172.0
19.3475,4198.0
19.35,4168.0
19.3525,4168.0
19.355,4175.0
19.3575,4176.0
19.36,4172.0
19.3625,4171.0
19.365,4184.0
19.3675,4160.0
19.37,4168.0
19.3725,4153.0
19.375,4163.0
19.3775,4175.0
19.38,4167.0
19.3825,4155.0
19.385,4173.0
19.3875,4173.0
19.39,4159.0
19.3925,4160.0
19.395,4139.0
19.3975,4143.0
19.4,4159.0
19.4025,4129.0
19.405,4131.0
19.4075,4119.0
19.41,4128.0
19.4125,4112.0
19.415,4132.0
19.4175,4129.0
19.42,4129.0
19.4225,4113.0
19.425,4112.0
19.4275,4118.0
19.43,4131.0
19.4325,4137.0
19.435,4135.0
19.4375,4145.0
19.44,4142.0
19.4425,4126.0
19.445,4121.0
19.4475,4122.0
19.45,4140.0
19.4525,4134.0
19.455,4150.0
19.4575,4143.0
19.46,4157.0
19.4625,4152.0
19.465,4140.0
19.4675,4157.0
19.47,4140.0
19.4725,4150.0
19.475,4161.0
19.4775,4163.0
19.48,4144.0
19.4825,4134.0
19.485,4138.0
19.4875,4136.0
19.49,4126.0
19.4925,4142.0
19.495,4148.0
19.4975,4150.0
19.5,4147.0
19.5025,4155.0
19.505,4126.0
19.5075,4137.0
19.51,4139.0
19.5125,4124.0
19.515,4125.0
19.5175,4128.0
19.52,4130.0
19.5225,4135.0
19.525,4131.0
19.5275,4131.0
19.53,4119.0
19.5325,4154.0
19.535,4135.0
19.5375,4138.0
19.54,4130.0
19.5425,4120.0
19.545,4117.0
19.5475,4123.0
19.55,4110.0
19.5525,4126.0
19.555,4129.0
19.5575,4112.0
19.56,4107.0
19.5625,4112.0
19.565,4098.0
19.5675,4107.0
19.57,4123.0
19.5725,4112.0
19.575,4126.0
19.5775,4106.0
19.58,4114.0
19.5825,4112.0
19.585,4115.0
19.5875,4128.0
19.59,4129.0
19.5925,4143.0
19.595,4122.0
19.5975,4121.0
19.6,4117.0
19.6025,4112.0
19.605,4123.0
19.6075,4119.0
19.61,4121.0
19.6125,4123.0
19.615,4154.0
19.6175,4128.0
19.62,4128.0
19.6225,4132.0
19.625,4138.0
19.6275,4120.0
19.63,4099.0
19.6325,4120.0
19.635,4132.0
19.6375,4117.0
19.64,4119.0
19.6425,4109.0
19.645,4134.0
19.6475,4123.0
19.65,4113.0
19.6525,4130.0
19.655,4132.0
19.6575,4136.0
19.66,4117.0
19.6625,4118.0
19.665,4122.0
19.6675,4130.0
19.67,4141.0
19.6725,4110.0
19.675,4115.0
19.6775,4096.0
19.68,4081.0
19.6825,4096.0
19.685,4094.0
19.6875,4123.0
19.69,4102.0
19.6925,4112.0
19.695,4096.0
19.6975,4111.0
19.7,4112.0
19.7025,4091.0
19.705,4098.0
19.7075,4097.0
19.71,4094.0
19.7125,4117.0
19.715,4122.0
19.7175,4133.0
19.72,4138.0
19.7225,4164.0
19.725,4153.0
19.7275,4157.0
19.73,4154.0
19.7325,4142.0
19.735,4142.0
19.7375,4126.0
19.74,4121.0
19.7425,4122.0
19.745,4123.0
19.7475,4128.0
19.75,4130.0
19.7525,4128.0
19.755,4126.0
19.7575,4137.0
19.76,4155.0
19.7625,4168.0
19.765,4159.0
19.7675,4155.0
19.77,4166.0
19.7725,4170.0
19.775,4169.0
19.7775,4140.0
19.78,4155.0
19.7825,4172.0
19.785,4171.0
19.7875,4160.0
19.79,4161.0
19.7925,4149.0
19.795,4161.0
19.7975,4137.0
19.8,4159.0
19.8025,4166.0
19.805,4176.0
19.8075,4171.0
19.81,4160.0
19.8125,4153.0
19.815,4152.0
19.8175,4159.0
19.82,4089.0
19.8225,3985.0
19.825,3858.0
19.8275,3794.0
19.83,3713.0
19.8325,3662.0
19.835,3669.0
19.8375,3743.0
19.84,3875.0
19.8425,3995.0
19.845,4290.0
19.8475,4804.0
19.85,5486.0
19.8525,6316.0
19.855,7188.0
19.8575,7756.0
19.86,8137.0
19.8625,7999.0
19.865,7367.0
19.8675,6249.0
19.87,5068.0
19.8725,4427.0
19.875,4179.0
19.8775,4052.0
19.88,3976.0
19.8825,3906.0
19.885,3840.0
19.8875,3777.0
19.89,3690.0
19.8925,3667.0
19.895,3641.0
19.8975,3610.0
19.9,3587.0
19.9025,3598.0
19.905,3554.0
19.9075,3548.0
19.91,3527.0
19.9125,3535.0
19.915,3540.0
19.9175,3537.0
19.92,3553.0
19.9225,3550.0
19.925,3573.0
19.9275,3581.0
19.93,3593.0
19.9325,3611.0
19.935,3610.0
19.9375,3628.0
19.94,3630.0
19.9425,3646.0
19.945,3663.0
19.9475,3674.0
19.95,3675.0
19.9525,3684.0
19.955,3693.0
19.9575,3692.0
19.96,3702.0
19.9625,3713.0
19.965,3730.0
19.9675,3714.0
19.97,3727.0
19.9725,3752.0
19.975,3779.0
19.9775,3775.0
19.98,3795.0
19.9825,3791.0
19.985,3801.0
19.9875,3794.0
19.99,3807.0
19.9925,3805.0
19.995,3802.0
19.9975,3816.0
20.0,3848.0
20.0025,3824.0
20.005,3832.0
20.0075,3842.0
20.01,3841.0
20.0125,3854.0
20.015,3857.0
20.0175,3847.0
20.02,3864.0
20.0225,3879.0
20.025,3883.0
20.0275,3873.0
20.03,3885.0
20.0325,3871.0
20.035,3873.0
20.0375,3859.0
20.04,3889.0
20.0425,3876.0
20.045,3903.0
20.0475,3912.0
20.05,3887.0
20.0525,3883.0
20.055,3895.0
20.0575,3904.0
20.06,3898.0
20.0625,3893.0
20.065,3915.0
20.0675,3925.0
20.07,3940.0
20.0725,3952.0
20.075,3971.0
20.0775,3968.0
20.08,3973.0
20.0825,3989.0
20.085,4014.0
20.0875,4017.0
20.09,4031.0
20.0925,4035.0
20.095,4047.0
20.0975,4073.0
20.1,4085.0
20.1025,4092.0
20.105,4116.0
20.1075,4116.0
20.11,4146.0
20.1125,4167.0
20.115,4202.0
20.1175,4193.0
20.12,4206.0
20.1225,4175.0
20.125,4201.0
20.1275,4218.0
20.13,4203.0
20.1325,4193.0
20.135,4198.0
20.1375,4201.0
20.14,4186.0
20.1425,4186.0
20.145,4179.0
20.1475,4178.0
20.15,4160.0
20.1525,4157.0
20.155,4154.0
20.1575,4148.0
20.16,4152.0
20.1625,4155.0
20.165,4126.0
20.1675,4139.0
20.17,4143.0
20.1725,4123.0
20.175,4126.0
20.1775,4138.0
20.18,4156.0
20.1825,4135.0
20.185,4148.0
20.1875,4169.0
20.19,4145.0
20.1925,4136.0
20.195,4154.0
20.1975,4176.0
20.2,4162.0
20.2025,4149.0
20.205,4138.0
20.2075,4136.0
20.21,4141.0
20.2125,4132.0
20.215,4124.0
20.2175,4131.0
20.22,4134.0
20.2225,4145.0
20.225,4143.0
20.2275,4139.0
20.23,4137.0
20.2325,4130.0
20.235,4130.0
20.2375,4131.0
20.24,4119.0
20.2425,4112.0
20.245,4114.0
20.2475,4116.0
20.25,4117.0
20.2525,4107.0
20.255,4095.0
20.2575,4089.0
20.26,4092.0
20.2625,4100.0
20.265,4084.0
20.2675,4094.0
20.27,4069.0
20.2725,4086.0
20.275,4088.0
20.2775,4103.0
20.28,4129.0
20.2825,4126.0
20.285,4101.0
20.2875,4108.0
20.29,4106.0
20.2925,4089.0
20.295,4081.0
20.2975,4115.0
20.3,4130.0
20.3025,4116.0
20.305,4106.0
20.3075,4124.0
20.31,4096.0
20.3125,4105.0
20.315,4116.0
20.3175,4129.0
20.32,4136.0
20.3225,4124.0
20.325,4114.0
20.3275,4110.0
20.33,4119.0
20.3325,4115.0
20.335,4119.0
20.3375,4120.0
20.34,4124.0
20.3425,4139.0
20.345,4131.0
20.3475,4115.0
20.35,4103.0
20.3525,4098.0
20.355,4110.0
20.3575,4119.0
20.36,4097.0
20.3625,4115.0
20.365,4100.0
20.3675,4087.0
20.37,4085.0
20.3725,4112.0
20.375,4108.0
20.3775,4128.0
20.38,4140.0
20.3825,4127.0
20.385,4123.0
20.3875,4128.0
20.39,4104.0
20.3925,4131.0
20.395,4125.0
20.3975,4105.0
20.4,4117.0
20.4025,4108.0
20.405,4101.0
20.4075,4103.0
20.41,4120.0
20.4125,4120.0
20.415,4107.0
20.4175,4117.0
20.42,4100.0
20.4225,4110.0
20.425,4080.0
20.4275,4093.0
20.43,4081.0
20.4325,4099.0
20.435,4097.0
20.4375,4083.0
20.44,4084.0
20.4425,4093.0
20.445,4108.0
20.4475,4094.0
20.45,4084.0
20.4525,4088.0
20.455,4073.0
20.4575,4078.0
20.46,4074.0
20.4625,4080.0
20.465,4084.0
20.4675,4090.0
20.47,4081.0
20.4725,4074.0
20.475,4065.0
20.4775,4093.0
20.48,4063.0
20.4825,4096.0
20.485,4082.0
20.4875,4088.0
20.49,4116.0
20.4925,4113.0
20.495,4105.0
20.4975,4099.0
20.5,4117.0
20.5025,4089.0
20.505,4091.0
20.5075,4088.0
20.51,4092.0
20.5125,4100.0
20.515,4091.0
20.5175,4094.0
20.52,4085.0
20.5225,4102.0
20.525,4106.0
20.5275,4100.0
20.53,4093.0
20.5325,4087.0
20.535,4092.0
20.5375,4081.0
20.54,4083.0
20.5425,4081.0
20.545,4074.0
20.5475,4087.0
20.55,4070.0
20.5525,4068.0
20.555,4066.0
20.5575,4082.0
20.56,4111.0
20.5625,4096.0
20.565,4064.0
20.5675,4051.0
20.57,4067.0
20.5725,4080.0
20.575,4093.0
20.5775,4079.0
20.58,4085.0
20.5825,4067.0
20.585,4091.0
20.5875,4104.0
20.59,4087.0
20.5925,4087.0
20.595,4086.0
20.5975,4092.0
20.6,4098.0
20.6025,4103.0
20.605,4126.0
20.6075,4122.0
20.61,4105.0
20.6125,4116.0
20.615,4120.0
20.6175,4121.0
20.62,4124.0
20.6225,4103.0
20.625,4121.0
20.6275,4115.0
20.63,4104.0
20.6325,4097.0
20.635,4104.0
20.6375,4121.0
20.64,4092.0
20.6425,4092.0
20.645,4078.0
20.6475,4074.0
20.65,4086.0
20.6525,4085.0
20.655,4088.0
20.6575,4078.0
20.66,4074.0
20.6625,4068.0
20.665,4078.0
20.6675,4058.0
20.67,4084.0
20.6725,4090.0
20.675,4086.0
20.6775,4094.0
20.68,4108.0
20.6825,4114.0
20.685,4095.0
20.6875,4067.0
20.69,4064.0
20.6925,4058.0
20.695,4037.0
20.6975,4034.0
20.7,4063.0
20.7025,4064.0
20.705,4067.0
20.7075,4069.0
20.71,4073.0
20.7125,4096.0
20.715,4100.0
20.7175,4093.0
20.72,4081.0
20.7225,4088.0
20.725,4113.0
20.7275,4102.0
20.73,4094.0
20.7325,4105.0
20.735,4109.0
20.7375,4121.0
20.74,4091.0
20.7425,4100.0
20.745,4088.0
20.7475,4067.0
20.75,4063.0
20.7525,4069.0
20.755,4066.0
20.7575,4072.0
20.76,4081.0
20.7625,4100.0
20.765,4057.0
20.7675,4039.0
20.77,3952.0
20.7725,3849.0
20.775,3737.0
20.7775,3640.0
20.78,3594.0
20.7825,3582.0
20.785,3560.0
20.7875,3638.0
20.79,3817.0
20.7925,4006.0
20.795,4416.0
20.7975,5056.0
20.8,5811.0
20.8025,6686.0
20.805,7367.0
20.8075,7843.0
20.81,8068.0
20.8125,7715.0
20.815,6985.0
20.8175,5751.0
20.82,4674.0
20.8225,4172.0
20.825,3989.0
20.8275,3912.0
20.83,3846.0
20.8325,3748.0
20.835,3669.0
20.8375,3625.0
20.84,3554.0
20.8425,3546.0
20.845,3506.0
20.8475,3462.0
20.85,3492.0
20.8525,3448.0
20.855,3470.0
20.8575,3417.0
20.86,3438.0
20.8625,3471.0
20.865,3443.0
20.8675,3461.0
20.87,3502.0
20.8725,3489.0
20.875,3494.0
20.8775,3499.0
20.88,3508.0
20.8825,3520.0
20.885,3487.0
20.8875,3529.0
20.89,3526.0
20.8925,3559.0
20.895,3567.0
20.8975,3586.0
20.9,3601.0
20.9025,3641.0
20.905,3635.0
20.9075,3622.0
20.91,3642.0
20.9125,3651.0
20.915,3663.0
20.9175,3657.0
20.92,3676.0
20.9225,3677.0
20.925,3696.0
20.9275,3687.0
20.93,3690.0
20.9325,3688.0
20.935,3694.0
20.9375,3704.0
20.94,3700.0
20.9425,3699.0
20.945,3716.0
20.9475,3710.0
20.95,3720.0
20.9525,3724.0
20.955,3742.0
20.9575,3730.0
20.96,3716.0
20.9625,3738.0
20.965,3776.0
20.9675,3767.0
20.97,3753.0
20.9725,3774.0
20.975,3798.0
20.9775,3805.0
20.98,3831.0
20.9825,3834.0
20.985,3814.0
20.9875,3811.0
20.99,3848.0
20.9925,3875.0
20.995,3845.0
20.9975,3862.0
21.0,3850.0
21.0025,3862.0
21.005,3866.0
21.0075,3866.0
21.01,3854.0
21.0125,3865.0
21.015,3876.0
21.0175,3894.0
21.02,3886.0
21.0225,3953.0
21.025,3877.0
21.0275,3941.0
21.03,3922.0
21.0325,3958.0
21.035,3962.0
21.0375,3950.0
21.04,3965.0
21.0425,3974.0
21.045,3980.0
21.0475,4013.0
21.05,4005.0
21.0525,4036.0
21.055,4045.0
21.0575,4084.0
21.06,4094.0
21.0625,4096.0
21.065,4106.0
21.0675,4164.0
21.07,4160.0
21.0725,4173.0
21.075,4191.0
21.0775,4185.0
21.08,4189.0
21.0825,4203.0
21.085,4200.0
21.0875,4199.0
21.09,4196.0
21.0925,4193.0
21.095,4213.0
21.0975,4203.0
21.1,4211.0
21.1025,4190.0
21.105,4161.0
21.1075,4172.0
21.11,4160.0
21.1125,4162.0
21.115,4147.0
21.1175,4156.0
21.12,4162.0
21.1225,4164.0
21.125,4181.0
21.1275,4157.0
21.13,4149.0
21.1325,4164.0
21.135,4150.0
21.1375,4182.0
21.14,4157.0
21.1425,4151.0
21.145,4150.0
21.1475,4166.0
21.15,4162.0
21.1525,4149.0
21.155,4139.0
21.1575,4147.0
21.16,4167.0
21.1625,4154.0
21.165,4155.0
21.1675,4133.0
21.17,4137.0
21.1725,4125.0
21.175,4113.0
21.1775,4120.0
21.18,4125.0
21.1825,4135.0
21.185,4144.0
21.1875,4124.0
21.19,4132.0
21.1925,4128.0
21.195,4127.0
21.1975,4124.0
21.2,4151.0
21.2025,4161.0
21.205,4142.0
21.2075,4125.0
21.21,4165.0
21.2125,4157.0
21.215,4168.0
21.2175,4108.0
21.22,4107.0
21.2225,4129.0
21.225,4135.0
21.2275,4113.0
21.23,4127.0
21.2325,4114.0
21.235,4118.0
21.2375,4111.0
21.24,4112.0
21.2425,4122.0
21.245,4110.0
21.2475,4136.0
21.25,4138.0
21.2525,4124.0
21.255,4111.0
21.2575,4106.0
21.26,4119.0
21.2625,4102.0
21.265,4110.0
21.2675,4133.0
21.27,4103.0
21.2725,4116.0
21.275,4101.0
21.2775,4121.0
21.28,4112.0
21.2825,4104.0
21.285,4123.0
21.2875,4100.0
21.29,4115.0
21.2925,4091.0
21.295,4095.0
21.2975,4094.0
21.3,4103.0
21.3025,4115.0
21.305,4123.0
21.3075,4099.0
21.31,4122.0
21.3125,4118.0
21.315,4130.0
21.3175,4125.0
21.32,4106.0
21.3225,4130.0
21.325,4109.0
21.3275,4120.0
21.33,4119.0
21.3325,4117.0
21.335,4099.0
21.3375,4103.0
21.34,4112.0
21.3425,4106.0
21.345,4117.0
21.3475,4119.0
21.35,4124.0
21.3525,4113.0
21.355,4126.0
21.3575,4099.0
21.36,4124.0
21.3625,4129.0
21.365,4108.0
21.3675,4103.0
21.37,4131.0
21.3725,4139.0
21.375,4122.0
21.3775,4131.0
21.38,4124.0
21.3825,4124.0
21.385,4143.0
21.3875,4094.0
21.39,4110.0
21.3925,4119.0
21.395,4112.0
21.3975,4093.0
21.4,4099.0
21.4025,4099.0
21.405,4106.0
21.4075,4080.0
21.41,4089.0
21.4125,4098.0
21.415,4123.0
21.4175,4091.0
21.42,4101.0
21.4225,4103.0
21.425,4093.0
21.4275,4111.0
21.43,4108.0
21.4325,4093.0
21.435,4090.0
21.4375,4085.0
21.44,4113.0
21.4425,4113.0
21.445,4108.0
21.4475,4108.0
21.45,4114.0
21.4525,4084.0
21.455,4089.0
21.4575,4097.0
21.46,4069.0
21.4625,4088.0
21.465,4105.0
21.4675,4120.0
21.47,4108.0
21.4725,4090.0
21.475,4087.0
21.4775,4108.0
21.48,4094.0
21.4825,4079.0
21.485,4080.0
21.4875,4078.0
21.49,4094.0
21.4925,4095.0
21.495,4111.0
21.4975,4107.0
21.5,4102.0
21.5025,4112.0
21.505,4092.0
21.5075,4112.0
21.51,4111.0
21.5125,4124.0
21.515,4116.0
21.5175,4119.0
21.52,4089.0
21.5225,4102.0
21.525,4093.0
21.5275,4088.0
21.53,4097.0
21.5325,4100.0
21.535,4099.0
21.5375,4105.0
21.54,4090.0
21.5425,4088.0
21.545,4099.0
21.5475,4111.0
21.55,4123.0
21.5525,4116.0
21.555,4092.0
21.5575,4096.0
21.56,4098.0
21.5625,4103.0
21.565,4097.0
21.5675,4104.0
21.57,4105.0
21.5725,4122.0
21.575,4083.0
21.5775,4087.0
21.58,4095.0
21.5825,4088.0
21.585,4091.0
21.5875,4101.0
21.59,4089.0
21.5925,4066.0
21.595,4079.0
21.5975,4081.0
21.6,4086.0
21.6025,4102.0
21.605,4114.0
21.6075,4126.0
21.61,4136.0
21.6125,4149.0
21.615,4131.0
21.6175,4158.0
21.62,4135.0
21.6225,4131.0
21.625,4123.0
21.6275,4099.0
21.63,4093.0
21.6325,4100.0
21.635,4101.0
21.6375,4099.0
21.64,4094.0
21.6425,4112.0
21.645,4112.0
21.6475,4121.0
21.65,4148.0
21.6525,4140.0
21.655,4129.0
21.6575,4130.0
21.66,4135.0
21.6625,4125.0
21.665,4138.0
21.6675,4118.0
21.67,4134.0
21.6725,4135.0
21.675,4135.0
21.6775,4135.0
21.68,4131.0
21.6825,4118.0
21.685,4109.0
21.6875,4120.0
21.69,4122.0
21.6925,4125.0
21.695,4106.0
21.6975,4130.0
21.7,4107.0
21.7025,4119.0
21.705,4100.0
21.7075,4024.0
21.71,3933.0
21.7125,3832.0
21.715,3765.0
21.7175,3694.0
21.72,3632.0
21.7225,3650.0
21.725,3760.0
21.7275,3885.0
21.73,3992.0
21.7325,4330.0
21.735,4861.0
21.7375,5508.0
21.74,6319.0
21.7425,7052.0
21.745,7565.0
21.7475,7841.0
21.75,7562.0
21.7525,6875.0
21.755,5748.0
21.7575,4814.0
21.76,4319.0
21.7625,4113.0
21.765,4019.0
21.7675,3963.0
21.77,3896.0
21.7725,3819.0
21.775,3757.0
21.7775,3715.0
21.78,3673.0
21.7825,3654.0
21.785,3657.0
21.7875,3602.0
21.79,3616.0
21.7925,3578.0
21.795,3588.0
21.7975,3566.0
21.8,3553.0
21.8025,3575.0
21.805,3575.0
21.8075,3571.0
21.81,3587.0
21.8125,3586.0
21.815,3588.0
21.8175,3608.0
21.82,3622.0
21.8225,3658.0
21.825,3682.0
21.8275,3680.0
21.83,3642.0
21.8325,3623.0
21.835,3645.0
21.8375,3663.0
21.84,3661.0
21.8425,3665.0
21.845,3680.0
21.8475,3683.0
21.85,3707.0
21.8525,3693.0
21.855,3709.0
21.8575,3726.0
21.86,3712.0
21.8625,3719.0
21.865,3716.0
21.8675,3717.0
21.87,3720.0
21.8725,3727.0
21.875,3731.0
21.8775,3751.0
21.88,3764.0
21.8825,3764.0
21.885,3789.0
21.8875,3778.0
21.89,3759.0
21.8925,3765.0
21.895,3793.0
21.8975,3797.0
21.9,3785.0
21.9025,3812.0
21.905,3799.0
21.9075,3817.0
21.91,3813.0
21.9125,3825.0
21.915,3842.0
21.9175,3851.0
21.92,3871.0
21.9225,3848.0
21.925,3868.0
21.9275,3847.0
21.93,3861.0
21.9325,3845.0
21.935,3841.0
21.9375,3859.0
21.94,3861.0
21.9425,3874.0
21.945,3864.0
21.9475,3865.0
21.95,3856.0
21.9525,3863.0
21.955,3856.0
21.9575,3878.0
21.96,3883.0
21.9625,3908.0
21.965,3898.0
21.9675,3912.0
21.97,3919.0
21.9725,3931.0
21.975,3934.0
21.9775,3946.0
21.98,3949.0
21.9825,3965.0
21.985,3977.0
21.9875,3996.0
21.99,4023.0
21.9925,4036.0
21.995,4054.0
21.9975,4050.0
22.0,4073.0
22.0025,4113.0
22.005,4126.0
22.0075,4133.0
22.01,4136.0
22.0125,4144.0
22.015,4142.0
22.0175,4166.0
22.02,4148.0
22.0225,4158.0
22.025,4144.0
22.0275,4142.0
22.03,4150.0
22.0325,4152.0
22.035,4155.0
22.0375,4165.0
22.04,4153.0
22.0425,4142.0
22.045,4171.0
22.0475,4166.0
22.05,4150.0
22.0525,4139.0
22.055,4149.0
22.0575,4157.0
22.06,4125.0
22.0625,4124.0
22.065,4125.0
22.0675,4139.0
22.07,4140.0
22.0725,4166.0
22.075,4159.0
22.0775,4156.0
22.08,4130.0
22.0825,4132.0
22.085,4134.0
22.0875,4129.0
22.09,4112.0
22.0925,4114.0
22.095,4121.0
22.0975,4145.0
22.1,4153.0
22.1025,4094.0
22.105,4097.0
22.1075,4111.0
22.11,4117.0
22.1125,4119.0
22.115,4115.0
22.1175,4112.0
22.12,4101.0
22.1225,4111.0
22.125,4093.0
22.1275,4114.0
22.13,4138.0
22.1325,4138.0
22.135,4131.0
22.1375,4120.0
22.14,4119.0
22.1425,4116.0
22.145,4116.0
22.1475,4116.0
22.15,4115.0
22.1525,4139.0
22.155,4109.0
22.1575,4104.0
22.16,4117.0
22.1625,4120.0
22.165,4122.0
22.1675,4134.0
22.17,4136.0
22.1725,4126.0
22.175,4107.0
22.1775,4128.0
22.18,4119.0
22.1825,4108.0
22.185,4106.0
22.1875,4138.0
22.19,4133.0
22.1925,4125.0
22.195,4109.0
22.1975,4087.0
22.2,4106.0
22.2025,4120.0
22.205,4122.0
22.2075,4106.0
22.21,4093.0
22.2125,4103.0
22.215,4116.0
22.2175,4129.0
22.22,4125.0
22.2225,4117.0
22.225,4129.0
22.2275,4114.0
22.23,4132.0
22.2325,4129.0
22.235,4134.0
22.2375,4143.0
22.24,4142.0
22.2425,4136.0
22.245,4149.0
22.2475,4159.0
22.25,4130.0
22.2525,4143.0
22.255,4126.0
22.2575,4120.0
22.26,4121.0
22.2625,4113.0
22.265,4098.0
22.2675,4128.0
22.27,4129.0
22.2725,4142.0
22.275,4132.0
22.2775,4141.0
22.28,4146.0
22.2825,4161.0
22.285,4148.0
22.2875,4158.0
22.29,4157.0
22.2925,4142.0
22.295,4127.0
22.2975,4137.0
22.3,4150.0
22.3025,4120.0
22.305,4116.0
22.3075,4130.0
22.31,4119.0
22.3125,4101.0
22.315,4091.0
22.3175,4100.0
22.32,4098.0
22.3225,4115.0
22.325,4107.0
22.3275,4109.0
22.33,4128.0
22.3325,4130.0
22.335,4138.0
22.3375,4112.0
22.34,4133.0
22.3425,4108.0
22.345,4134.0
22.3475,4131.0
22.35,4107.0
22.3525,4096.0
22.355,4098.0
22.3575,4104.0
22.36,4112.0
22.3625,4086.0
22.365,4095.0
22.3675,4108.0
22.37,4104.0
