31.1125,4216.0
31.115,3533.0
31.1175,2767.0
31.12,1878.0
31.1225,854.0
31.125,113.0
31.1275,5.0
31.13,240.0
31.1325,1018.0
31.135,2307.0
31.1375,4137.0
31.14,5286.0
31.1425,5617.0
31.145,5571.0
31.1475,5528.0
31.15,5434.0
31.1525,5399.0
31.155,5444.0
31.1575,5499.0
31.16,5492.0
31.1625,5511.0
31.165,5485.0
31.1675,5536.0
31.17,5517.0
31.1725,5540.0
31.175,5516.0
31.1775,5514.0
31.18,5512.0
31.1825,5520.0
31.185,5436.0
31.1875,5405.0
31.19,5422.0
31.1925,5419.0
31.195,5377.0
31.1975,5356.0
31.2,5315.0
31.2025,5307.0
31.205,5230.0
31.2075,5219.0
31.21,5214.0
31.2125,5196.0
31.215,5143.0
31.2175,5150.0
31.22,5119.0
31.2225,5099.0
31.225,5059.0
31.2275,5072.0
31.23,5080.0
31.2325,5021.0
31.235,4989.0
31.2375,4946.0
31.24,4955.0
31.2425,4934.0
31.245,4861.0
31.2475,4884.0
31.25,4868.0
31.2525,4852.0
31.255,4842.0
31.2575,4796.0
31.26,4800.0
31.2625,4789.0
31.265,4757.0
31.2675,4741.0
31.27,4700.0
31.2725,4703.0
31.275,4669.0
31.2775,4649.0
31.28,4671.0
31.2825,4656.0
31.285,4597.0
31.2875,4593.0
31.29,4627.0
31.2925,4621.0
31.295,4605.0
31.2975,4564.0
31.3,4600.0
31.3025,4567.0
31.305,4529.0
31.3075,4524.0
31.31,4544.0
31.3125,4533.0
31.315,4492.0
31.3175,4530.0
31.32,4502.0
31.3225,4510.0
31.325,4490.0
31.3275,4487.0
31.33,4502.0
31.3325,4521.0
31.335,4474.0
31.3375,4474.0
31.34,4481.0
31.3425,4471.0
31.345,4419.0
31.3475,4434.0
31.35,4413.0
31.3525,4414.0
31.355,4401.0
31.3575,4439.0
31.36,4433.0
31.3625,4399.0
31.365,4365.0
31.3675,4339.0
31.37,4362.0
31.3725,4327.0
31.375,4300.0
31.3775,4323.0
31.38,4316.0
31.3825,4250.0
31.385,4178.0
31.3875,4197.0
31.39,4181.0
31.3925,4111.0
31.395,4062.0
31.3975,4064.0
31.4,4068.0
31.4025,3977.0
31.405,3962.0
31.4075,3927.0
31.41,3921.0
31.4125,3885.0
31.415,3852.0
31.4175,3875.0
31.42,3865.0
31.4225,3811.0
31.425,3781.0
31.4275,3776.0
31.43,3778.0
31.4325,3715.0
31.435,3703.0
31.4375,3731.0
31.44,3726.0
31.4425,3693.0
31.445,3688.0
31.4475,3663.0
31.45,3685.0
31.4525,3665.0
31.455,3636.0
31.4575,3670.0
31.46,3649.0
31.4625,3626.0
31.465,3621.0
31.4675,3635.0
31.47,3643.0
31.4725,3606.0
31.475,3570.0
31.4775,3601.0
31.48,3588.0
31.4825,3579.0
31.485,3559.0
31.4875,3566.0
31.49,3564.0
31.4925,3566.0
31.495,3571.0
31.4975,3579.0
31.5,3588.0
31.5025,3539.0
31.505,3514.0
31.5075,3563.0
31.51,3554.0
31.5125,3524.0
31.515,3529.0
31.5175,3543.0
31.52,3499.0
31.5225,3494.0
31.525,3459.0
31.5275,3444.0
31.53,3425.0
31.5325,3449.0
31.535,3395.0
31.5375,3416.0
31.54,3351.0
31.5425,3296.0
31.545,3248.0
31.5475,3243.0
31.55,3221.0
31.5525,3157.0
31.555,3077.0
31.5575,3068.0
31.56,3000.0
31.5625,2964.0
31.565,2921.0
31.5675,2908.0
31.57,2893.0
31.5725,2867.0
31.575,2784.0
31.5775,2763.0
31.58,2740.0
31.5825,2692.0
31.585,2657.0
31.5875,2620.0
31.59,2607.0
31.5925,2567.0
31.595,2536.0
31.5975,2545.0
31.6,2532.0
31.6025,2534.0
31.605,2515.0
31.6075,2545.0
31.61,2543.0
31.6125,2573.0
31.615,2565.0
31.6175,2579.0
31.62,2568.0
31.6225,2620.0
31.625,2605.0
31.6275,2615.0
31.63,2621.0
31.6325,2640.0
31.635,2639.0
31.6375,2655.0
31.64,2656.0
31.6425,2661.0
31.645,2655.0
31.6475,2679.0
31.65,2746.0
31.6525,2755.0
31.655,2723.0
31.6575,2763.0
31.66,2793.0
31.6625,2810.0
31.665,2834.0
31.6675,2829.0
31.67,2884.0
31.6725,2880.0
31.675,2871.0
31.6775,2916.0
31.68,2947.0
31.6825,2930.0
31.685,2899.0
31.6875,2934.0
31.69,2978.0
31.6925,2982.0
31.695,2976.0
31.6975,3028.0
31.7,3011.0
31.7025,3027.0
31.705,3018.0
31.7075,3041.0
31.71,3102.0
31.7125,3116.0
31.715,3073.0
31.7175,3067.0
31.72,3113.0
31.7225,3099.0
31.725,3114.0
31.7275,3136.0
31.73,3199.0
31.7325,3192.0
31.735,3162.0
31.7375,3186.0
31.74,3211.0
31.7425,3241.0
31.745,3218.0
31.7475,3232.0
31.75,3299.0
31.7525,3296.0
31.755,3266.0
31.7575,3311.0
31.76,3337.0
31.7625,3363.0
31.765,3360.0
31.7675,3377.0
31.77,3425.0
31.7725,3438.0
31.775,3427.0
31.7775,3464.0
31.78,3493.0
31.7825,3514.0
31.785,3504.0
31.7875,3557.0
31.79,3581.0
31.7925,3605.0
31.795,3584.0
31.7975,3607.0
31.8,3607.0
31.8025,3614.0
31.805,3607.0
31.8075,3665.0
31.81,3720.0
31.8125,3684.0
31.815,3675.0
31.8175,3662.0
31.82,3687.0
31.8225,3640.0
31.825,3648.0
31.8275,3663.0
31.83,3675.0
31.8325,3666.0
31.835,3670.0
31.8375,3714.0
31.84,3704.0
31.8425,3723.0
31.845,3693.0
31.8475,3712.0
31.85,3691.0
31.8525,3657.0
31.855,3631.0
31.8575,3638.0
31.86,3638.0
31.8625,3613.0
31.865,3583.0
31.8675,3598.0
31.87,3632.0
31.8725,3583.0
31.875,3567.0
31.8775,3573.0
31.88,3545.0
31.8825,3539.0
31.885,3506.0
31.8875,3517.0
31.89,3541.0
31.8925,3517.0
31.895,3508.0
31.8975,3525.0
31.9,3513.0
31.9025,3510.0
31.905,3510.0
31.9075,3512.0
31.91,3518.0
31.9125,3503.0
31.915,3501.0
31.9175,3548.0
31.92,3628.0
31.9225,3798.0
31.925,3937.0
31.9275,4083.0
31.93,4209.0
31.9325,4229.0
31.935,4229.0
31.9375,4061.0
31.94,3768.0
31.9425,3312.0
31.945,2796.0
31.9475,2108.0
31.95,1284.0
31.9525,298.0
31.955,-3.0
31.9575,-2.0
31.96,-3.0
31.9625,-2.0
31.965,32.0
31.9675,1383.0
31.97,3231.0
31.9725,4284.0
31.975,4568.0
31.9775,4549.0
31.98,4510.0
31.9825,4479.0
31.985,4445.0
31.9875,4540.0
31.99,4604.0
31.9925,4587.0
31.995,4611.0
31.9975,4634.0
32.0,4664.0
32.0025,4626.0
32.005,4644.0
32.0075,4670.0
32.01,4648.0
32.0125,4654.0
32.015,4629.0
32.0175,4642.0
32.02,4598.0
32.0225,4613.0
32.025,4588.0
32.0275,4590.0
32.03,4597.0
32.0325,4600.0
32.035,4606.0
32.0375,4589.0
32.04,4569.0
32.0425,4537.0
32.045,4497.0
32.0475,4518.0
32.05,4503.0
32.0525,4470.0
32.055,4481.0
32.0575,4473.0
32.06,4471.0
32.0625,4444.0
32.065,4406.0
32.0675,4399.0
32.07,4384.0
32.0725,4337.0
32.075,4310.0
32.0775,4319.0
32.08,4321.0
32.0825,4300.0
32.085,4256.0
32.0875,4273.0
32.09,4273.0
32.0925,4269.0
32.095,4290.0
32.0975,4252.0
32.1,4280.0
32.1025,4276.0
32.105,4259.0
32.1075,4240.0
32.11,4238.0
32.1125,4225.0
32.115,4236.0
32.1175,4258.0
32.12,4278.0
32.1225,4242.0
32.125,4269.0
32.1275,4264.0
32.13,4282.0
32.1325,4268.0
32.135,4315.0
32.1375,4292.0
32.14,4348.0
32.1425,4334.0
32.145,4334.0
32.1475,4310.0
32.15,4370.0
32.1525,4398.0
32.155,4343.0
32.1575,4376.0
32.16,4398.0
32.1625,4426.0
32.165,4400.0
32.1675,4426.0
32.17,4427.0
32.1725,4391.0
32.175,4397.0
32.1775,4427.0
32.18,4467.0
32.1825,4453.0
32.185,4397.0
32.1875,4404.0
32.19,4468.0
32.1925,4445.0
32.195,4444.0
32.1975,4445.0
32.2,4449.0
32.2025,4427.0
32.205,4406.0
32.2075,4412.0
32.21,4395.0
32.2125,4375.0
32.215,4345.0
32.2175,4337.0
32.22,4300.0
32.2225,4252.0
32.225,4166.0
32.2275,4177.0
32.23,4144.0
32.2325,4087.0
32.235,4053.0
32.2375,4039.0
32.24,4020.0
32.2425,3966.0
32.245,3933.0
32.2475,3894.0
32.25,3883.0
32.2525,3884.0
32.255,3849.0
32.2575,3860.0
32.26,3856.0
32.2625,3827.0
32.265,3798.0
32.2675,3814.0
32.27,3799.0
32.2725,3774.0
32.275,3778.0
32.2775,3786.0
32.28,3802.0
32.2825,3737.0
32.285,3742.0
32.2875,3731.0
32.29,3726.0
32.2925,3724.0
32.295,3729.0
32.2975,3757.0
32.3,3764.0
32.3025,3724.0
32.305,3710.0
32.3075,3739.0
32.31,3755.0
32.3125,3738.0
32.315,3755.0
32.3175,3747.0
32.32,3768.0
32.3225,3766.0
32.325,3774.0
32.3275,3800.0
32.33,3815.0
32.3325,3784.0
32.335,3777.0
32.3375,3831.0
32.34,3825.0
32.3425,3796.0
32.345,3797.0
32.3475,3810.0
32.35,3811.0
32.3525,3828.0
32.355,3806.0
32.3575,3834.0
32.36,3810.0
32.3625,3808.0
32.365,3827.0
32.3675,3816.0
32.37,3813.0
32.3725,3812.0
32.375,3804.0
32.3775,3835.0
32.38,3810.0
32.3825,3772.0
32.385,3775.0
32.3875,3797.0
32.39,3783.0
32.3925,3769.0
32.395,3778.0
32.3975,3817.0
32.4,3803.0
32.4025,3748.0
32.405,3772.0
32.4075,3804.0
32.41,3785.0
32.4125,3782.0
32.415,3785.0
32.4175,3792.0
32.42,3795.0
32.4225,3774.0
32.425,3774.0
32.4275,3802.0
32.43,3808.0
32.4325,3824.0
32.435,3829.0
32.4375,3802.0
32.44,3818.0
32.4425,3821.0
32.445,3804.0
32.4475,3807.0
32.45,3783.0
32.4525,3783.0
32.455,3804.0
32.4575,3841.0
32.46,3816.0
32.4625,3779.0
32.465,3786.0
32.4675,3793.0
32.47,3794.0
32.4725,3794.0
32.475,3789.0
32.4775,3803.0
32.48,3777.0
32.4825,3814.0
32.485,3816.0
32.4875,3817.0
32.49,3828.0
32.4925,3832.0
32.495,3805.0
32.4975,3810.0
32.5,3821.0
32.5025,3824.0
32.505,3810.0
32.5075,3838.0
32.51,3840.0
32.5125,3835.0
32.515,3853.0
32.5175,3840.0
32.52,3861.0
32.5225,3824.0
32.525,3843.0
32.5275,3854.0
32.53,3864.0
32.5325,3833.0
32.535,3872.0
32.5375,3859.0
32.54,3857.0
32.5425,3845.0
32.545,3865.0
32.5475,3863.0
32.55,3883.0
32.5525,3859.0
32.555,3848.0
32.5575,3853.0
32.56,3897.0
32.5625,3878.0
32.565,3883.0
32.5675,3864.0
32.57,3909.0
32.5725,3875.0
32.575,3861.0
32.5775,3864.0
32.58,3875.0
32.5825,3851.0
32.585,3847.0
32.5875,3830.0
32.59,3892.0
32.5925,3880.0
32.595,3872.0
32.5975,3874.0
32.6,3881.0
32.6025,3864.0
32.605,3877.0
32.6075,3882.0
32.61,3884.0
32.6125,3866.0
32.615,3879.0
32.6175,3865.0
32.62,3902.0
32.6225,3861.0
32.625,3870.0
32.6275,3874.0
32.63,3905.0
32.6325,3877.0
32.635,3837.0
32.6375,3840.0
32.64,3860.0
32.6425,3850.0
32.645,3841.0
32.6475,3870.0
32.65,3912.0
32.6525,3857.0
32.655,3857.0
32.6575,3881.0
32.66,3890.0
32.6625,3848.0
32.665,3869.0
32.6675,3894.0
32.67,3891.0
32.6725,3862.0
32.675,3853.0
32.6775,3861.0
32.68,3897.0
32.6825,3862.0
32.685,3852.0
32.6875,3893.0
32.69,3912.0
32.6925,3872.0
32.695,3892.0
32.6975,3902.0
32.7,3911.0
32.7025,3878.0
32.705,3888.0
32.7075,3968.0
32.71,3962.0
32.7125,3919.0
32.715,3899.0
32.7175,3917.0
32.72,3913.0
32.7225,3905.0
32.725,3933.0
32.7275,3954.0
32.73,3994.0
32.7325,3967.0
32.735,3939.0
32.7375,3909.0
32.74,3882.0
32.7425,3878.0
32.745,3843.0
32.7475,3894.0
32.75,3906.0
32.7525,3900.0
32.755,3935.0
32.7575,3960.0
32.76,3983.0
32.7625,3952.0
32.765,3965.0
32.7675,3981.0
32.77,3977.0
32.7725,3951.0
32.775,3966.0
32.7775,4000.0
32.78,4004.0
32.7825,3965.0
32.785,3988.0
32.7875,4010.0
32.79,3996.0
32.7925,3960.0
32.795,3961.0
32.7975,3981.0
32.8,3985.0
32.8025,3937.0
32.805,3938.0
32.8075,3961.0
32.81,3958.0
32.8125,3936.0
32.815,3978.0
32.8175,3994.0
32.82,3959.0
32.8225,3924.0
32.825,3921.0
32.8275,3960.0
32.83,3966.0
32.8325,3906.0
32.835,3986.0
32.8375,4115.0
32.84,4265.0
32.8425,4385.0
32.845,4486.0
32.8475,4589.0
32.85,4621.0
32.8525,4564.0
32.855,4266.0
32.8575,3837.0
32.86,3373.0
32.8625,2626.0
32.865,1795.0
32.8675,837.0
32.87,-3.0
32.8725,-4.0
32.875,-3.0
32.8775,-3.0
32.88,-2.0
32.8825,428.0
32.885,2205.0
32.8875,3784.0
32.89,4559.0
32.8925,4618.0
32.895,4586.0
32.8975,4546.0
32.9,4534.0
32.9025,4601.0
32.905,4626.0
32.9075,4670.0
32.91,4688.0
32.9125,4699.0
32.915,4727.0
32.9175,4714.0
32.92,4735.0
32.9225,4734.0
32.925,4746.0
32.9275,4724.0
32.93,4726.0
32.9325,4709.0
32.935,4685.0
32.9375,4694.0
32.94,4684.0
32.9425,4609.0
32.945,4635.0
32.9475,4557.0
32.95,4573.0
32.9525,4532.0
32.955,4511.0
32.9575,4480.0
32.96,4493.0
32.9625,4451.0
32.965,4419.0
32.9675,4411.0
32.97,4381.0
32.9725,4365.0
32.975,4358.0
32.9775,4331.0
32.98,4332.0
32.9825,4287.0
32.985,4269.0
32.9875,4253.0
32.99,4252.0
32.9925,4194.0
32.995,4182.0
32.9975,4189.0
33.0,4201.0
33.0025,4178.0
33.005,4151.0
33.0075,4164.0
33.01,4171.0
33.0125,4151.0
33.015,4143.0
33.0175,4138.0
33.02,4181.0
33.0225,4124.0
33.025,4128.0
33.0275,4116.0
33.03,4160.0
33.0325,4141.0
33.035,4160.0
33.0375,4157.0
33.04,4178.0
33.0425,4167.0
33.045,4172.0
33.0475,4196.0
33.05,4209.0
33.0525,4203.0
33.055,4194.0
33.0575,4252.0
33.06,4260.0
33.0625,4251.0
33.065,4260.0
33.0675,4259.0
33.07,4279.0
33.0725,4280.0
33.075,4282.0
33.0775,4296.0
33.08,4309.0
33.0825,4284.0
33.085,4303.0
33.0875,4333.0
33.09,4353.0
33.0925,4344.0
33.095,4339.0
33.0975,4387.0
33.1,4402.0
33.1025,4355.0
33.105,4372.0
33.1075,4377.0
33.11,4379.0
33.1125,4376.0
33.115,4364.0
33.1175,4378.0
33.12,4387.0
33.1225,4331.0
33.125,4344.0
33.1275,4340.0
33.13,4320.0
33.1325,4275.0
33.135,4241.0
33.1375,4222.0
33.14,4223.0
33.1425,4110.0
33.145,4103.0
33.1475,4076.0
33.15,4000.0
33.1525,3938.0
33.155,3904.0
33.1575,3902.0
33.16,3902.0
33.1625,3812.0
33.165,3798.0
33.1675,3775.0
33.17,3748.0
33.1725,3688.0
33.175,3690.0
33.1775,3700.0
33.18,3666.0
33.1825,3647.0
33.185,3648.0
33.1875,3667.0
33.19,3679.0
33.1925,3643.0
33.195,3676.0
33.1975,3684.0
33.2,3663.0
33.2025,3626.0
33.205,3646.0
33.2075,3691.0
33.21,3689.0
33.2125,3637.0
33.215,3691.0
33.2175,3713.0
33.22,3699.0
33.2225,3647.0
33.225,3637.0
33.2275,3664.0
33.23,3646.0
33.2325,3623.0
33.235,3637.0
33.2375,3658.0
33.24,3636.0
33.2425,3607.0
33.245,3632.0
33.2475,3625.0
33.25,3606.0
33.2525,3599.0
33.255,3609.0
33.2575,3601.0
33.26,3601.0
33.2625,3574.0
33.265,3582.0
33.2675,3629.0
33.27,3597.0
33.2725,3583.0
33.275,3590.0
33.2775,3590.0
33.28,3636.0
33.2825,3607.0
33.285,3623.0
33.2875,3651.0
33.29,3620.0
33.2925,3606.0
33.295,3614.0
33.2975,3617.0
33.3,3623.0
33.3025,3599.0
33.305,3597.0
33.3075,3613.0
33.31,3614.0
33.3125,3587.0
33.315,3617.0
33.3175,3616.0
33.32,3610.0
33.3225,3599.0
33.325,3630.0
33.3275,3620.0
33.33,3653.0
33.3325,3653.0
33.335,3709.0
33.3375,3678.0
33.34,3693.0
33.3425,3681.0
33.345,3707.0
33.3475,3718.0
33.35,3709.0
33.3525,3709.0
33.355,3725.0
33.3575,3717.0
33.36,3697.0
33.3625,3690.0
33.365,3710.0
33.3675,3746.0
33.37,3741.0
33.3725,3719.0
33.375,3756.0
33.3775,3717.0
33.38,3728.0
33.3825,3727.0
33.385,3744.0
33.3875,3750.0
33.39,3737.0
33.3925,3687.0
33.395,3740.0
33.3975,3717.0
33.4,3721.0
33.4025,3711.0
33.405,3723.0
33.4075,3708.0
33.41,3742.0
33.4125,3711.0
33.415,3717.0
33.4175,3735.0
33.42,3768.0
33.4225,3732.0
33.425,3739.0
33.4275,3786.0
33.43,3798.0
33.4325,3754.0
33.435,3739.0
33.4375,3740.0
33.44,3764.0
33.4425,3762.0
33.445,3772.0
33.4475,3761.0
33.45,3794.0
33.4525,3774.0
33.455,3790.0
33.4575,3809.0
33.46,3858.0
33.4625,3789.0
33.465,3783.0
33.4675,3792.0
33.47,3841.0
33.4725,3804.0
33.475,3784.0
33.4775,3830.0
33.48,3823.0
33.4825,3816.0
33.485,3846.0
33.4875,3847.0
33.49,3867.0
33.4925,3793.0
33.495,3811.0
33.4975,3865.0
33.5,3852.0
33.5025,3832.0
33.505,3825.0
33.5075,3864.0
33.51,3887.0
33.5125,3839.0
33.515,3850.0
33.5175,3899.0
33.52,3898.0
33.5225,3892.0
33.525,3926.0
33.5275,3947.0
33.53,3935.0
33.5325,3889.0
33.535,3908.0
33.5375,3892.0
33.54,3937.0
33.5425,3940.0
33.545,3925.0
33.5475,3952.0
33.55,3980.0
33.5525,3934.0
33.555,3920.0
33.5575,3945.0
33.56,3964.0
33.5625,3933.0
33.565,3899.0
33.5675,3941.0
33.57,3966.0
33.5725,3930.0
33.575,3924.0
33.5775,3968.0
33.58,3952.0
33.5825,3924.0
33.585,3937.0
33.5875,3952.0
33.59,3964.0
33.5925,3917.0
33.595,3925.0
33.5975,3955.0
33.6,3976.0
33.6025,3937.0
33.605,3923.0
33.6075,3956.0
33.61,3972.0
33.6125,3935.0
33.615,3938.0
33.6175,3956.0
33.62,3954.0
33.6225,3948.0
33.625,3972.0
33.6275,3997.0
33.63,3958.0
33.6325,3940.0
33.635,3961.0
33.6375,3960.0
33.64,3981.0
33.6425,3989.0
33.645,4020.0
33.6475,4049.0
33.65,4015.0
33.6525,3990.0
33.655,4029.0
33.6575,4054.0
33.66,4025.0
33.6625,3981.0
33.665,4020.0
33.6675,4049.0
33.67,4010.0
33.6725,3969.0
33.675,4019.0
33.6775,4032.0
33.68,4006.0
33.6825,3968.0
33.685,4000.0
33.6875,3974.0
33.69,3952.0
33.6925,3893.0
33.695,3936.0
33.6975,3909.0
33.7,3869.0
33.7025,3850.0
33.705,3867.0
33.7075,3855.0
33.71,3802.0
33.7125,3795.0
33.715,3801.0
33.7175,3819.0
33.72,3770.0
33.7225,3733.0
33.725,3722.0
33.7275,3688.0
33.73,3640.0
33.7325,3668.0
33.735,3704.0
33.7375,3726.0
33.74,3721.0
33.7425,3684.0
33.745,3725.0
33.7475,3732.0
33.75,3740.0
33.7525,3738.0
33.755,3749.0
33.7575,3748.0
33.76,3738.0
33.7625,3723.0
33.765,3755.0
33.7675,3736.0
33.77,3748.0
33.7725,3721.0
33.775,3757.0
33.7775,3763.0
33.78,3767.0
33.7825,3752.0
33.785,3766.0
33.7875,3765.0
33.79,3765.0
33.7925,3771.0
33.795,3791.0
33.7975,3787.0
33.8,3815.0
33.8025,3803.0
33.805,3841.0
33.8075,3826.0
33.81,3820.0
33.8125,3798.0
33.815,3826.0
33.8175,3859.0
33.82,3882.0
33.8225,3919.0
33.825,4091.0
33.8275,4238.0
33.83,4351.0
33.8325,4450.0
33.835,4521.0
33.8375,4569.0
33.84,4414.0
33.8425,4112.0
33.845,3759.0
33.8475,3265.0
33.85,2645.0
33.8525,1895.0
33.855,1062.0
33.8575,76.0
33.86,-3.0
33.8625,-3.0
33.865,-1.0
33.8675,525.0
33.87,1885.0
33.8725,3580.0
33.875,4576.0
33.8775,4834.0
33.88,4882.0
33.8825,4799.0
33.885,4737.0
33.8875,4706.0
33.89,4736.0
33.8925,4808.0
33.895,4840.0
33.8975,4862.0
33.9,4892.0
33.9025,4882.0
33.905,4929.0
33.9075,4949.0
33.91,4961.0
33.9125,4955.0
33.915,4924.0
33.9175,4949.0
33.92,4961.0
33.9225,4922.0
33.925,4896.0
33.9275,4888.0
33.93,4879.0
33.9325,4871.0
33.935,4838.0
33.9375,4857.0
33.94,4888.0
33.9425,4821.0
33.945,4819.0
33.9475,4788.0
33.95,4804.0
33.9525,4775.0
33.955,4756.0
33.9575,4787.0
33.96,4764.0
33.9625,4714.0
33.965,4724.0
33.9675,4704.0
33.97,4691.0
33.9725,4673.0
33.975,4664.0
33.9775,4699.0
33.98,4696.0
33.9825,4631.0
33.985,4649.0
33.9875,4663.0
33.99,4674.0
33.9925,4629.0
33.995,4609.0
33.9975,4633.0
34.0,4632.0
34.0025,4566.0
34.005,4568.0
34.0075,4575.0
34.01,4562.0
34.0125,4569.0
34.015,4566.0
34.0175,4572.0
34.02,4538.0
34.0225,4516.0
34.025,4496.0
34.0275,4548.0
34.03,4526.0
34.0325,4524.0
34.035,4572.0
34.0375,4575.0
34.04,4571.0
34.0425,4535.0
34.045,4514.0
34.0475,4560.0
34.05,4562.0
34.0525,4523.0
34.055,4530.0
34.0575,4565.0
34.06,4539.0
34.0625,4505.0
34.065,4512.0
34.0675,4525.0
34.07,4528.0
34.0725,4521.0
34.075,4555.0
34.0775,4566.0
34.08,4532.0
34.0825,4518.0
34.085,4540.0
34.0875,4552.0
34.09,4524.0
34.0925,4533.0
34.095,4538.0
34.0975,4561.0
34.1,4533.0
34.1025,4507.0
34.105,4511.0
34.1075,4520.0
34.11,4494.0
34.1125,4459.0
34.115,4489.0
34.1175,4509.0
34.12,4472.0
34.1225,4417.0
34.125,4382.0
34.1275,4379.0
34.13,4352.0
34.1325,4306.0
34.135,4337.0
34.1375,4325.0
34.14,4297.0
34.1425,4213.0
34.145,4208.0
34.1475,4226.0
34.15,4171.0
34.1525,4120.0
34.155,4150.0
34.1575,4149.0
34.16,4087.0
34.1625,4068.0
34.165,4069.0
34.1675,4057.0
34.17,4060.0
34.1725,4055.0
34.175,4087.0
34.1775,4054.0
34.18,4012.0
34.1825,3997.0
34.185,4020.0
34.1875,4015.0
34.19,3994.0
34.1925,3975.0
34.195,4003.0
34.1975,3972.0
34.2,3974.0
34.2025,3935.0
34.205,3971.0
34.2075,3983.0
34.21,3934.0
34.2125,3940.0
34.215,3976.0
34.2175,3950.0
34.22,3921.0
34.2225,3898.0
34.225,3908.0
34.2275,3905.0
34.23,3885.0
34.2325,3865.0
34.235,3886.0
34.2375,3853.0
34.24,3865.0
34.2425,3835.0
34.245,3864.0
34.2475,3847.0
34.25,3836.0
34.2525,3792.0
34.255,3830.0
34.2575,3779.0
34.26,3763.0
34.2625,3775.0
34.265,3800.0
34.2675,3778.0
34.27,3769.0
34.2725,3734.0
34.275,3766.0
34.2775,3744.0
34.28,3756.0
34.2825,3706.0
34.285,3705.0
34.2875,3708.0
34.29,3704.0
34.2925,3655.0
34.295,3654.0
34.2975,3673.0
34.3,3645.0
34.3025,3642.0
34.305,3641.0
34.3075,3650.0
34.31,3655.0
34.3125,3652.0
34.315,3650.0
34.3175,3653.0
34.32,3649.0
34.3225,3643.0
34.325,3648.0
34.3275,3665.0
34.33,3687.0
34.3325,3700.0
34.335,3683.0
34.3375,3699.0
34.34,3711.0
34.3425,3677.0
34.345,3666.0
34.3475,3697.0
34.35,3668.0
34.3525,3645.0
34.355,3664.0
34.3575,3693.0
34.36,3678.0
34.3625,3685.0
34.365,3686.0
34.3675,3698.0
34.37,3702.0
34.3725,3691.0
34.375,3694.0
34.3775,3699.0
34.38,3693.0
34.3825,3693.0
34.385,3673.0
34.3875,3675.0
34.39,3656.0
34.3925,3629.0
34.395,3640.0
34.3975,3674.0
34.4,3649.0
34.4025,3634.0
34.405,3629.0
34.4075,3665.0
34.41,3638.0
34.4125,3622.0
34.415,3623.0
34.4175,3670.0
34.42,3630.0
34.4225,3641.0
34.425,3606.0
34.4275,3655.0
34.43,3664.0
34.4325,3657.0
34.435,3650.0
34.4375,3683.0
34.44,3643.0
34.4425,3637.0
34.445,3650.0
34.4475,3679.0
34.45,3653.0
34.4525,3625.0
34.455,3653.0
34.4575,3672.0
34.46,3706.0
34.4625,3669.0
34.465,3666.0
34.4675,3712.0
34.47,3673.0
34.4725,3664.0
34.475,3687.0
34.4775,3698.0
34.48,3686.0
34.4825,3684.0
34.485,3718.0
34.4875,3737.0
34.49,3728.0
34.4925,3700.0
34.495,3713.0
34.4975,3738.0
34.5,3730.0
34.5025,3719.0
34.505,3727.0
34.5075,3767.0
34.51,3718.0
34.5125,3673.0
34.515,3702.0
34.5175,3747.0
34.52,3744.0
34.5225,3727.0
34.525,3731.0
34.5275,3757.0
34.53,3726.0
34.5325,3724.0
34.535,3732.0
34.5375,3751.0
34.54,3735.0
34.5425,3732.0
34.545,3721.0
34.5475,3741.0
34.55,3718.0
34.5525,3712.0
34.555,3718.0
34.5575,3714.0
34.56,3675.0
34.5625,3678.0
34.565,3723.0
34.5675,3732.0
34.57,3723.0
34.5725,3701.0
34.575,3712.0
34.5775,3712.0
34.58,3707.0
34.5825,3704.0
34.585,3727.0
34.5875,3754.0
34.59,3710.0
34.5925,3677.0
34.595,3721.0
34.5975,3700.0
34.6,3665.0
34.6025,3675.0
34.605,3717.0
34.6075,3719.0
34.61,3717.0
34.6125,3712.0
34.615,3738.0
34.6175,3738.0
34.62,3728.0
34.6225,3700.0
34.625,3690.0
34.6275,3669.0
34.63,3651.0
34.6325,3617.0
34.635,3650.0
34.6375,3637.0
34.64,3629.0
34.6425,3635.0
34.645,3702.0
34.6475,3679.0
34.65,3711.0
34.6525,3726.0
34.655,3746.0
34.6575,3776.0
34.66,3728.0
34.6625,3749.0
34.665,3801.0
34.6675,3765.0
34.67,3749.0
34.6725,3748.0
34.675,3774.0
34.6775,3769.0
34.68,3750.0
34.6825,3741.0
34.685,3769.0
34.6875,3742.0
34.69,3735.0
34.6925,3772.0
34.695,3779.0
34.6975,3748.0
34.7,3728.0
34.7025,3760.0
34.705,3762.0
34.7075,3733.0
34.71,3727.0
34.7125,3725.0
34.715,3729.0
34.7175,3725.0
34.72,3712.0
34.7225,3711.0
34.725,3724.0
34.7275,3769.0
34.73,3875.0
34.7325,4064.0
34.735,4159.0
34.7375,4242.0
34.74,4329.0
34.7425,4342.0
34.745,4243.0
34.7475,3959.0
34.75,3594.0
34.7525,3173.0
34.755,2558.0
34.7575,1871.0
34.76,1045.0
34.7625,52.0
34.765,-3.0
34.7675,-3.0
34.77,-3.0
34.7725,1.0
34.775,823.0
34.7775,2576.0
34.78,3890.0
34.7825,4359.0
34.785,4429.0
34.7875,4425.0
34.79,4366.0
34.7925,4313.0
34.795,4318.0
34.7975,4349.0
34.8,4390.0
34.8025,4416.0
34.805,4431.0
34.8075,4446.0
34.81,4437.0
34.8125,4454.0
34.815,4429.0
34.8175,4457.0
34.82,4425.0
34.8225,4406.0
34.825,4400.0
34.8275,4411.0
34.83,4387.0
34.8325,4377.0
34.835,4382.0
34.8375,4371.0
34.84,4314.0
34.8425,4280.0
34.845,4293.0
34.8475,4289.0
34.85,4267.0
34.8525,4257.0
34.855,4235.0
34.8575,4275.0
34.86,4241.0
34.8625,4209.0
34.865,4164.0
34.8675,4182.0
34.87,4158.0
34.8725,4158.0
34.875,4150.0
34.8775,4163.0
34.88,4127.0
34.8825,4089.0
34.885,4106.0
34.8875,4129.0
34.89,4086.0
34.8925,4080.0
34.895,4090.0
34.8975,4098.0
34.9,4064.0
34.9025,4032.0
34.905,4024.0
34.9075,4045.0
34.91,4059.0
34.9125,4022.0
34.915,4038.0
34.9175,4050.0
34.92,4007.0
34.9225,4008.0
34.925,4023.0
34.9275,4011.0
34.93,4017.0
34.9325,4001.0
34.935,4034.0
34.9375,4019.0
34.94,4021.0
34.9425,4000.0
34.945,3993.0
34.9475,4017.0
34.95,3998.0
34.9525,3994.0
34.955,4030.0
34.9575,4063.0
34.96,4029.0
34.9625,4016.0
34.965,4037.0
34.9675,4037.0
34.97,4043.0
34.9725,4035.0
34.975,4034.0
34.9775,4080.0
34.98,4040.0
34.9825,4044.0
34.985,4072.0
34.9875,4077.0
34.99,4066.0
34.9925,4066.0
34.995,4092.0
34.9975,4109.0
35.0,4057.0
35.0025,4071.0
35.005,4078.0
35.0075,4090.0
35.01,4068.0
35.0125,4053.0
35.015,4066.0
35.0175,4092.0
35.02,4049.0
35.0225,4039.0
35.025,4038.0
35.0275,4015.0
35.03,3965.0
35.0325,3972.0
35.035,3960.0
35.0375,3974.0
35.04,3914.0
35.0425,3882.0
35.045,3860.0
35.0475,3830.0
35.05,3808.0
35.0525,3797.0
35.055,3786.0
35.0575,3751.0
35.06,3682.0
35.0625,3687.0
35.065,3697.0
35.0675,3692.0
35.07,3634.0
35.0725,3638.0
35.075,3653.0
35.0775,3622.0
35.08,3600.0
35.0825,3611.0
35.085,3643.0
35.0875,3625.0
35.09,3617.0
35.0925,3630.0
35.095,3653.0
35.0975,3634.0
35.1,3607.0
35.1025,3612.0
35.105,3638.0
35.1075,3604.0
35.11,3587.0
35.1125,3588.0
35.115,3618.0
35.1175,3617.0
35.12,3583.0
35.1225,3591.0
35.125,3618.0
35.1275,3604.0
35.13,3586.0
35.1325,3572.0
35.135,3594.0
35.1375,3572.0
35.14,3567.0
35.1425,3579.0
35.145,3587.0
35.1475,3571.0
35.15,3553.0
35.1525,3541.0
35.155,3558.0
35.1575,3549.0
35.16,3553.0
35.1625,3569.0
35.165,3585.0
35.1675,3576.0
35.17,3553.0
35.1725,3579.0
35.175,3570.0
35.1775,3555.0
35.18,3553.0
35.1825,3560.0
35.185,3607.0
35.1875,3604.0
35.19,3569.0
35.1925,3620.0
35.195,3604.0
35.1975,3607.0
35.2,3601.0
35.2025,3601.0
35.205,3620.0
35.2075,3618.0
35.21,3614.0
35.2125,3618.0
35.215,3650.0
35.2175,3651.0
35.22,3642.0
35.2225,3637.0
35.225,3666.0
35.2275,3675.0
35.23,3626.0
35.2325,3670.0
35.235,3665.0
35.2375,3680.0
35.24,3677.0
35.2425,3680.0
35.245,3689.0
35.2475,3681.0
35.25,3682.0
35.2525,3673.0
35.255,3698.0
35.2575,3704.0
35.26,3715.0
35.2625,3712.0
35.265,3716.0
35.2675,3729.0
35.27,3718.0
35.2725,3741.0
35.275,3725.0
35.2775,3723.0
35.28,3723.0
35.2825,3738.0
35.285,3746.0
35.2875,3774.0
35.29,3755.0
35.2925,3770.0
35.295,3773.0
35.2975,3822.0
35.3,3816.0
35.3025,3803.0
35.305,3806.0
35.3075,3833.0
35.31,3809.0
35.3125,3830.0
35.315,3853.0
35.3175,3861.0
35.32,3862.0
35.3225,3833.0
35.325,3873.0
35.3275,3873.0
35.33,3843.0
35.3325,3850.0
35.335,3858.0
35.3375,3889.0
35.34,3907.0
35.3425,3891.0
35.345,3905.0
35.3475,3919.0
35.35,3892.0
35.3525,3878.0
35.355,3915.0
35.3575,3924.0
35.36,3904.0
35.3625,3877.0
35.365,3927.0
35.3675,3928.0
35.37,3923.0
35.3725,3900.0
35.375,3919.0
35.3775,3926.0
35.38,3896.0
35.3825,3884.0
35.385,3877.0
35.3875,3880.0
35.39,3828.0
35.3925,3817.0
35.395,3848.0
35.3975,3894.0
35.4,3843.0
35.4025,3845.0
35.405,3870.0
35.4075,3882.0
35.41,3829.0
35.4125,3811.0
35.415,3839.0
35.4175,3845.0
35.42,3834.0
35.4225,3815.0
35.425,3832.0
35.4275,3838.0
35.43,3805.0
35.4325,3834.0
35.435,3849.0
35.4375,3850.0
35.44,3803.0
35.4425,3821.0
35.445,3833.0
35.4475,3864.0
35.45,3813.0
35.4525,3793.0
35.455,3821.0
35.4575,3850.0
35.46,3799.0
35.4625,3807.0
35.465,3799.0
35.4675,3790.0
35.47,3769.0
35.4725,3782.0
35.475,3769.0
35.4775,3784.0
35.48,3782.0
35.4825,3782.0
35.485,3805.0
35.4875,3774.0
35.49,3721.0
35.4925,3764.0
35.495,3774.0
35.4975,3759.0
35.5,3728.0
35.5025,3767.0
35.505,3802.0
35.5075,3793.0
35.51,3746.0
35.5125,3755.0
35.515,3753.0
35.5175,3756.0
35.52,3716.0
35.5225,3722.0
35.525,3724.0
35.5275,3722.0
35.53,3711.0
35.5325,3719.0
35.535,3732.0
35.5375,3711.0
35.54,3661.0
35.5425,3679.0
35.545,3707.0
35.5475,3670.0
35.55,3676.0
35.5525,3689.0
35.555,3699.0
35.5575,3675.0
35.56,3613.0
35.5625,3650.0
35.565,3667.0
35.5675,3649.0
35.57,3662.0
35.5725,3661.0
35.575,3662.0
35.5775,3666.0
35.58,3646.0
35.5825,3656.0
35.585,3656.0
35.5875,3633.0
35.59,3641.0
35.5925,3675.0
35.595,3690.0
35.5975,3679.0
35.6,3659.0
35.6025,3650.0
35.605,3666.0
35.6075,3658.0
35.61,3667.0
35.6125,3703.0
35.615,3697.0
35.6175,3687.0
35.62,3669.0
35.6225,3647.0
35.625,3619.0
35.6275,3569.0
35.63,3570.0
35.6325,3546.0
35.635,3572.0
35.6375,3562.0
35.64,3543.0
35.6425,3579.0
35.645,3613.0
35.6475,3624.0
35.65,3652.0
35.6525,3662.0
35.655,3698.0
35.6575,3724.0
35.66,3708.0
35.6625,3708.0
35.665,3721.0
35.6675,3710.0
35.67,3707.0
35.6725,3690.0
35.675,3688.0
35.6775,3717.0
35.68,3672.0
35.6825,3692.0
35.685,3695.0
35.6875,3679.0
35.69,3673.0
35.6925,3686.0
35.695,3707.0
35.6975,3716.0
35.7,3698.0
35.7025,3715.0
35.705,3718.0
35.7075,3709.0
35.71,3738.0
35.7125,3702.0
35.715,3738.0
35.7175,3761.0
35.72,3716.0
35.7225,3703.0
35.725,3749.0
35.7275,3856.0
35.73,3973.0
35.7325,4122.0
35.735,4233.0
35.7375,4357.0
35.74,4386.0
35.7425,4395.0
35.745,4256.0
35.7475,3963.0
35.75,3534.0
35.7525,3045.0
35.755,2396.0
35.7575,1614.0
35.76,707.0
35.7625,-2.0
35.765,-3.0
35.7675,-2.0
35.77,-2.0
35.7725,51.0
35.775,1270.0
35.7775,3009.0
35.78,4120.0
35.7825,4507.0
35.785,4576.0
35.7875,4541.0
35.79,4472.0
35.7925,4447.0
35.795,4540.0
35.7975,4599.0
35.8,4570.0
35.8025,4605.0
35.805,4606.0
35.8075,4629.0
35.81,4658.0
35.8125,4653.0
35.815,4662.0
35.8175,4645.0
35.82,4590.0
35.8225,4562.0
35.825,4582.0
35.8275,4579.0
35.83,4556.0
35.8325,4518.0
35.835,4532.0
35.8375,4525.0
35.84,4453.0
35.8425,4438.0
35.845,4446.0
35.8475,4433.0
35.85,4403.0
35.8525,4374.0
35.855,4404.0
35.8575,4374.0
35.86,4328.0
35.8625,4341.0
35.865,4346.0
35.8675,4353.0
35.87,4304.0
35.8725,4330.0
35.875,4356.0
35.8775,4360.0
35.88,4313.0
35.8825,4297.0
35.885,4319.0
35.8875,4303.0
35.89,4261.0
35.8925,4267.0
35.895,4271.0
35.8975,4263.0
35.9,4211.0
35.9025,4214.0
35.905,4228.0
35.9075,4240.0
35.91,4208.0
35.9125,4207.0
35.915,4227.0
35.9175,4205.0
35.92,4184.0
35.9225,4174.0
35.925,4182.0
35.9275,4175.0
35.93,4158.0
35.9325,4182.0
35.935,4214.0
35.9375,4192.0
35.94,4188.0
35.9425,4180.0
35.945,4208.0
35.9475,4206.0
35.95,4166.0
35.9525,4217.0
35.955,4207.0
35.9575,4194.0
35.96,4149.0
35.9625,4198.0
35.965,4221.0
35.9675,4220.0
35.97,4193.0
35.9725,4236.0
35.975,4235.0
35.9775,4211.0
35.98,4206.0
35.9825,4220.0
35.985,4258.0
35.9875,4244.0
35.99,4223.0
35.9925,4259.0
35.995,4233.0
35.9975,4209.0
36.0,4174.0
36.0025,4193.0
36.005,4208.0
36.0075,4206.0
36.01,4179.0
36.0125,4220.0
36.015,4205.0
36.0175,4188.0
36.02,4152.0
36.0225,4149.0
36.025,4152.0
36.0275,4113.0
36.03,4050.0
36.0325,4047.0
36.035,4029.0
36.0375,3989.0
36.04,3948.0
36.0425,3944.0
36.045,3877.0
36.0475,3833.0
36.05,3798.0
36.0525,3793.0
36.055,3779.0
36.0575,3738.0
36.06,3724.0
36.0625,3723.0
36.065,3701.0
36.0675,3689.0
36.07,3644.0
36.0725,3693.0
36.075,3636.0
36.0775,3606.0
36.08,3601.0
36.0825,3610.0
36.085,3584.0
36.0875,3598.0
36.09,3583.0
36.0925,3626.0
36.095,3608.0
36.0975,3611.0
36.1,3584.0
36.1025,3596.0
36.105,3603.0
36.1075,3615.0
36.11,3594.0
36.1125,3606.0
36.115,3611.0
36.1175,3605.0
36.12,3614.0
36.1225,3612.0
36.125,3607.0
36.1275,3608.0
36.13,3604.0
36.1325,3591.0
36.135,3596.0
36.1375,3620.0
36.14,3631.0
36.1425,3645.0
36.145,3617.0
36.1475,3636.0
36.15,3593.0
36.1525,3612.0
36.155,3609.0
36.1575,3647.0
36.16,3645.0
36.1625,3642.0
36.165,3654.0
36.1675,3664.0
36.17,3638.0
36.1725,3667.0
36.175,3680.0
36.1775,3692.0
36.18,3687.0
36.1825,3700.0
36.185,3713.0
36.1875,3687.0
36.19,3665.0
36.1925,3687.0
36.195,3700.0
36.1975,3700.0
36.2,3700.0
36.2025,3732.0
36.205,3757.0
36.2075,3738.0
36.21,3715.0
36.2125,3727.0
36.215,3733.0
36.2175,3771.0
36.22,3736.0
36.2225,3738.0
36.225,3785.0
36.2275,3776.0
36.23,3730.0
36.2325,3732.0
36.235,3717.0
36.2375,3736.0
36.24,3726.0
36.2425,3718.0
36.245,3743.0
36.2475,3756.0
36.25,3711.0
36.2525,3715.0
36.255,3743.0
36.2575,3761.0
36.26,3743.0
36.2625,3751.0
36.265,3765.0
36.2675,3784.0
36.27,3729.0
36.2725,3729.0
36.275,3777.0
36.2775,3769.0
36.28,3751.0
36.2825,3754.0
36.285,3770.0
36.2875,3757.0
36.29,3750.0
36.2925,3735.0
36.295,3770.0
36.2975,3791.0
36.3,3732.0
36.3025,3747.0
36.305,3766.0
36.3075,3759.0
36.31,3728.0
36.3125,3747.0
36.315,3770.0
36.3175,3765.0
36.32,3774.0
36.3225,3816.0
36.325,3843.0
36.3275,3824.0
36.33,3785.0
36.3325,3762.0
36.335,3813.0
36.3375,3808.0
36.34,3800.0
36.3425,3822.0
36.345,3826.0
36.3475,3788.0
36.35,3813.0
36.3525,3837.0
36.355,3852.0
36.3575,3848.0
36.36,3830.0
36.3625,3862.0
36.365,3890.0
36.3675,3854.0
36.37,3820.0
36.3725,3830.0
36.375,3851.0
36.3775,3838.0
36.38,3810.0
36.3825,3853.0
36.385,3858.0
36.3875,3849.0
36.39,3826.0
36.3925,3837.0
36.395,3844.0
36.3975,3852.0
36.4,3829.0
36.4025,3850.0
36.405,3874.0
36.4075,3877.0
36.41,3861.0
36.4125,3881.0
36.415,3862.0
36.4175,3861.0
36.42,3861.0
36.4225,3888.0
36.425,3917.0
36.4275,3915.0
36.43,3905.0
36.4325,3917.0
36.435,3948.0
36.4375,3937.0
36.44,3938.0
36.4425,3953.0
36.445,3943.0
36.4475,3914.0
36.45,3926.0
36.4525,3943.0
36.455,3952.0
36.4575,3947.0
36.46,3932.0
36.4625,3978.0
36.465,3944.0
36.4675,3957.0
36.47,3946.0
36.4725,3961.0
36.475,3977.0
36.4775,3930.0
36.48,3949.0
36.4825,3963.0
36.485,3966.0
36.4875,3953.0
36.49,3958.0
36.4925,3963.0
36.495,3971.0
36.4975,3987.0
36.5,3966.0
36.5025,3995.0
36.505,3979.0
36.5075,3964.0
36.51,3974.0
36.5125,4007.0
36.515,4002.0
36.5175,4001.0
36.52,3980.0
36.5225,3973.0
36.525,3975.0
36.5275,3978.0
36.53,3985.0
36.5325,4017.0
36.535,4022.0
36.5375,3999.0
36.54,3982.0
36.5425,4003.0
36.545,3997.0
36.5475,4005.0
36.55,3984.0
36.5525,3974.0
36.555,3994.0
36.5575,4012.0
36.56,3983.0
36.5625,4021.0
36.565,4035.0
36.5675,4012.0
36.57,3996.0
36.5725,4000.0
36.575,3961.0
36.5775,3973.0
36.58,3924.0
36.5825,3912.0
36.585,3908.0
36.5875,3917.0
36.59,3895.0
36.5925,3942.0
36.595,3944.0
36.5975,3974.0
36.6,3964.0
36.6025,3971.0
36.605,3981.0
36.6075,4017.0
36.61,4002.0
36.6125,4003.0
36.615,4008.0
36.6175,4022.0
36.62,4002.0
36.6225,3999.0
36.625,4023.0
36.6275,3998.0
36.63,4012.0
36.6325,4023.0
36.635,4024.0
36.6375,4011.0
36.64,3978.0
36.6425,3990.0
36.645,4001.0
36.6475,3989.0
36.65,3951.0
36.6525,3936.0
36.655,3973.0
36.6575,3989.0
36.66,3923.0
36.6625,3918.0
36.665,3958.0
36.6675,3947.0
36.67,3924.0
36.6725,3915.0
36.675,3935.0
36.6775,3957.0
36.68,3982.0
36.6825,4130.0
36.685,4297.0
36.6875,4409.0
36.69,4497.0
36.6925,4529.0
36.695,4578.0
36.6975,4445.0
36.7,4108.0
36.7025,3682.0
36.705,3242.0
36.7075,2572.0
36.71,1767.0
36.7125,872.0
36.715,-2.0
36.7175,-3.0
36.72,-2.0
36.7225,-3.0
36.725,7.0
36.7275,1038.0
36.73,2792.0
36.7325,4046.0
36.735,4531.0
36.7375,4597.0
36.74,4517.0
36.7425,4508.0
36.745,4490.0
36.7475,4498.0
36.75,4535.0
36.7525,4575.0
36.755,4611.0
36.7575,4606.0
36.76,4615.0
36.7625,4648.0
36.765,4678.0
36.7675,4687.0
36.77,4648.0
36.7725,4664.0
36.775,4695.0
36.7775,4638.0
36.78,4577.0
36.7825,4577.0
36.785,4556.0
36.7875,4527.0
36.79,4512.0
36.7925,4514.0
36.795,4495.0
36.7975,4456.0
36.8,4429.0
36.8025,4407.0
36.805,4403.0
36.8075,4370.0
36.81,4363.0
36.8125,4361.0
36.815,4358.0
36.8175,4312.0
36.82,4301.0
36.8225,4303.0
36.825,4299.0
36.8275,4278.0
36.83,4260.0
36.8325,4291.0
36.835,4302.0
36.8375,4267.0
36.84,4246.0
36.8425,4245.0
36.845,4262.0
36.8475,4236.0
36.85,4208.0
36.8525,4230.0
36.855,4242.0
36.8575,4194.0
36.86,4167.0
36.8625,4234.0
36.865,4218.0
36.8675,4183.0
36.87,4170.0
36.8725,4182.0
36.875,4163.0
36.8775,4128.0
36.88,4139.0
36.8825,4181.0
36.885,4152.0
36.8875,4150.0
36.89,4157.0
36.8925,4199.0
36.895,4169.0
36.8975,4165.0
36.9,4160.0
36.9025,4136.0
36.905,4149.0
36.9075,4138.0
36.91,4148.0
36.9125,4194.0
36.915,4179.0
36.9175,4167.0
36.92,4188.0
36.9225,4219.0
36.925,4225.0
36.9275,4183.0
36.93,4167.0
36.9325,4211.0
36.935,4214.0
36.9375,4212.0
36.94,4250.0
36.9425,4239.0
36.945,4259.0
36.9475,4253.0
36.95,4244.0
36.9525,4250.0
36.955,4251.0
36.9575,4247.0
36.96,4246.0
36.9625,4250.0
36.965,4242.0
36.9675,4228.0
36.97,4194.0
36.9725,4192.0
36.975,4170.0
36.9775,4140.0
36.98,4117.0
36.9825,4060.0
36.985,4037.0
36.9875,4002.0
36.99,3979.0
36.9925,3941.0
36.995,3926.0
36.9975,3884.0
37.0,3836.0
37.0025,3810.0
37.005,3785.0
37.0075,3763.0
37.01,3696.0
37.0125,3714.0
37.015,3691.0
37.0175,3680.0
37.02,3659.0
37.0225,3666.0
37.025,3644.0
37.0275,3608.0
37.03,3577.0
37.0325,3613.0
37.035,3612.0
37.0375,3623.0
37.04,3623.0
37.0425,3631.0
37.045,3653.0
37.0475,3640.0
37.05,3600.0
37.0525,3602.0
37.055,3610.0
37.0575,3615.0
37.06,3605.0
37.0625,3614.0
37.065,3666.0
37.0675,3656.0
37.07,3656.0
37.0725,3649.0
37.075,3656.0
37.0775,3647.0
37.08,3639.0
37.0825,3638.0
37.085,3657.0
37.0875,3634.0
37.09,3635.0
37.0925,3649.0
37.095,3665.0
37.0975,3664.0
37.1,3661.0
37.1025,3671.0
37.105,3722.0
37.1075,3717.0
37.11,3704.0
37.1125,3713.0
37.115,3740.0
37.1175,3741.0
37.12,3733.0
37.1225,3723.0
37.125,3765.0
37.1275,3762.0
37.13,3741.0
37.1325,3782.0
37.135,3834.0
37.1375,3814.0
37.14,3816.0
37.1425,3799.0
37.145,3851.0
37.1475,3822.0
37.15,3839.0
37.1525,3847.0
37.155,3873.0
37.1575,3864.0
37.16,3867.0
37.1625,3886.0
37.165,3895.0
37.1675,3898.0
37.17,3889.0
37.1725,3923.0
37.175,3951.0
37.1775,3941.0
37.18,3934.0
37.1825,3953.0
37.185,3969.0
37.1875,3960.0
37.19,3972.0
37.1925,3982.0
37.195,4006.0
37.1975,3990.0
37.2,3973.0
37.2025,4001.0
37.205,4000.0
37.2075,3956.0
37.21,3961.0
37.2125,3979.0
37.215,3988.0
37.2175,3996.0
37.22,3969.0
37.2225,4000.0
37.225,4006.0
37.2275,3978.0
37.23,3979.0
37.2325,4034.0
37.235,4051.0
37.2375,4038.0
37.24,4011.0
37.2425,4046.0
37.245,4054.0
37.2475,4015.0
37.25,4035.0
37.2525,4053.0
37.255,4083.0
37.2575,4084.0
37.26,4091.0
37.2625,4085.0
37.265,4126.0
37.2675,4084.0
37.27,4075.0
37.2725,4084.0
37.275,4094.0
37.2775,4080.0
37.28,4074.0
37.2825,4124.0
37.285,4123.0
37.2875,4079.0
37.29,4084.0
37.2925,4110.0
37.295,4103.0
37.2975,4071.0
37.3,4050.0
37.3025,4088.0
37.305,4087.0
37.3075,4092.0
37.31,4086.0
37.3125,4100.0
37.315,4124.0
37.3175,4093.0
37.32,4084.0
37.3225,4110.0
37.325,4092.0
37.3275,4064.0
37.33,4064.0
37.3325,4037.0
37.335,4019.0
37.3375,4005.0
37.34,3988.0
37.3425,4035.0
37.345,4020.0
37.3475,4019.0
37.35,4038.0
37.3525,4061.0
37.355,4041.0
37.3575,4035.0
37.36,4034.0
37.3625,4047.0
37.365,4081.0
37.3675,4058.0
37.37,4061.0
37.3725,4098.0
37.375,4074.0
37.3775,4034.0
37.38,4033.0
37.3825,4098.0
37.385,4075.0
37.3875,4077.0
37.39,4038.0
37.3925,4089.0
37.395,4102.0
37.3975,4098.0
37.4,4075.0
37.4025,4103.0
37.405,4076.0
37.4075,4051.0
37.41,4043.0
37.4125,4079.0
37.415,4076.0
37.4175,4055.0
37.42,4071.0
37.4225,4096.0
37.425,4093.0
37.4275,4093.0
37.43,4111.0
37.4325,4111.0
37.435,4122.0
37.4375,4129.0
37.44,4094.0
37.4425,4125.0
37.445,4142.0
37.4475,4162.0
37.45,4160.0
37.4525,4179.0
37.455,4166.0
37.4575,4181.0
37.46,4174.0
37.4625,4188.0
37.465,4194.0
37.4675,4205.0
37.47,4186.0
37.4725,4193.0
37.475,4190.0
37.4775,4173.0
37.48,4151.0
37.4825,4186.0
37.485,4193.0
37.4875,4217.0
37.49,4209.0
37.4925,4202.0
37.495,4208.0
37.4975,4196.0
37.5,4188.0
37.5025,4185.0
37.505,4193.0
37.5075,4209.0
37.51,4201.0
37.5125,4187.0
37.515,4215.0
37.5175,4212.0
37.52,4168.0
37.5225,4172.0
37.525,4194.0
37.5275,4176.0
37.53,4165.0
37.5325,4198.0
37.535,4233.0
37.5375,4216.0
37.54,4198.0
37.5425,4201.0
37.545,4218.0
37.5475,4221.0
37.55,4207.0
37.5525,4230.0
37.555,4260.0
37.5575,4214.0
37.56,4212.0
37.5625,4197.0
37.565,4237.0
37.5675,4221.0
37.57,4210.0
37.5725,4195.0
37.575,4213.0
37.5775,4169.0
37.58,4168.0
37.5825,4172.0
37.585,4199.0
37.5875,4148.0
37.59,4162.0
37.5925,4140.0
37.595,4143.0
37.5975,4094.0
37.6,4011.0
37.6025,4026.0
37.605,4060.0
37.6075,4068.0
37.61,4061.0
37.6125,4125.0
37.615,4133.0
37.6175,4108.0
37.62,4092.0
37.6225,4111.0
37.625,4152.0
37.6275,4122.0
37.63,4140.0
37.6325,4187.0
37.635,4176.0
37.6375,4159.0
37.64,4145.0
37.6425,4142.0
37.645,4156.0
37.6475,4147.0
37.65,4127.0
37.6525,4177.0
37.655,4173.0
37.6575,4140.0
37.66,4117.0
37.6625,4138.0
37.665,4148.0
37.6675,4126.0
37.67,4146.0
37.6725,4170.0
37.675,4185.0
37.6775,4134.0
37.68,4138.0
37.6825,4171.0
37.685,4155.0
37.6875,4114.0
37.69,4160.0
37.6925,4172.0
37.695,4198.0
37.6975,4253.0
37.7,4388.0
37.7025,4550.0
37.705,4601.0
37.7075,4666.0
37.71,4735.0
37.7125,4674.0
37.715,4451.0
37.7175,4073.0
37.72,3663.0
37.7225,3137.0
37.725,2461.0
37.7275,1612.0
37.73,727.0
37.7325,-3.0
37.735,-3.0
37.7375,-3.0
37.74,213.0
37.7425,1076.0
37.745,2677.0
37.7475,4151.0
37.75,4773.0
37.7525,4881.0
37.755,4854.0
37.7575,4748.0
37.76,4685.0
37.7625,4671.0
37.765,4728.0
37.7675,4755.0
37.77,4787.0
37.7725,4841.0
37.775,4832.0
37.7775,4837.0
37.78,4839.0
37.7825,4882.0
37.785,4880.0
37.7875,4846.0
37.79,4795.0
37.7925,4819.0
37.795,4792.0
37.7975,4719.0
37.8,4702.0
37.8025,4689.0
37.805,4652.0
37.8075,4588.0
37.81,4589.0
37.8125,4583.0
37.815,4514.0
37.8175,4473.0
37.82,4454.0
37.8225,4422.0
37.825,4391.0
37.8275,4323.0
37.83,4310.0
37.8325,4326.0
37.835,4270.0
37.8375,4230.0
37.84,4236.0
37.8425,4223.0
37.845,4224.0
37.8475,4198.0
37.85,4207.0
37.8525,4197.0
37.855,4194.0
37.8575,4170.0
37.86,4184.0
37.8625,4159.0
37.865,4134.0
37.8675,4126.0
37.87,4150.0
37.8725,4170.0
37.875,4138.0
37.8775,4137.0
37.88,4162.0
37.8825,4183.0
37.885,4159.0
37.8875,4120.0
37.89,4153.0
37.8925,4172.0
37.895,4183.0
37.8975,4174.0
37.9,4175.0
37.9025,4192.0
37.905,4179.0
37.9075,4165.0
37.91,4224.0
37.9125,4235.0
37.915,4278.0
37.9175,4269.0
37.92,4269.0
37.9225,4285.0
37.925,4308.0
37.9275,4301.0
37.93,4286.0
37.9325,4302.0
37.935,4354.0
37.9375,4346.0
37.94,4337.0
37.9425,4373.0
37.945,4406.0
37.9475,4398.0
37.95,4390.0
37.9525,4429.0
37.955,4453.0
37.9575,4455.0
37.96,4450.0
37.9625,4453.0
37.965,4480.0
37.9675,4439.0
37.97,4427.0
37.9725,4470.0
37.975,4486.0
37.9775,4483.0
37.98,4466.0
37.9825,4499.0
37.985,4518.0
37.9875,4472.0
37.99,4456.0
37.9925,4463.0
37.995,4471.0
37.9975,4428.0
38.0,4371.0
38.0025,4350.0
38.005,4374.0
38.0075,4306.0
38.01,4261.0
38.0125,4262.0
38.015,4250.0
38.0175,4173.0
38.02,4174.0
38.0225,4162.0
38.025,4178.0
38.0275,4093.0
38.03,4072.0
38.0325,4056.0
38.035,4076.0
38.0375,4055.0
38.04,4037.0
38.0425,4029.0
38.045,4048.0
38.0475,3994.0
38.05,3966.0
38.0525,3978.0
38.055,4003.0
38.0575,3961.0
38.06,3947.0
38.0625,3987.0
38.065,3960.0
38.0675,3946.0
38.07,3967.0
38.0725,4016.0
38.075,4009.0
38.0775,3988.0
38.08,3943.0
38.0825,3973.0
38.085,3975.0
38.0875,3949.0
38.09,3942.0
38.0925,3961.0
38.095,3959.0
38.0975,3952.0
38.1,3916.0
38.1025,3944.0
38.105,3957.0
38.1075,3937.0
38.11,3924.0
38.1125,3930.0
38.115,3978.0
38.1175,3947.0
38.12,3949.0
38.1225,3977.0
38.125,3984.0
38.1275,3934.0
38.13,3933.0
38.1325,3967.0
38.135,3957.0
38.1375,3935.0
38.14,3977.0
38.1425,3990.0
38.145,4003.0
38.1475,3962.0
38.15,3942.0
38.1525,3978.0
38.155,4021.0
38.1575,3928.0
38.16,3957.0
38.1625,3975.0
38.165,3976.0
38.1675,3968.0
38.17,3978.0
38.1725,3983.0
38.175,3976.0
38.1775,3945.0
38.18,3962.0
38.1825,3969.0
38.185,3979.0
38.1875,3951.0
38.19,3963.0
38.1925,3981.0
38.195,3974.0
38.1975,3951.0
38.2,3982.0
38.2025,3976.0
38.205,3982.0
38.2075,3936.0
38.21,3951.0
38.2125,3976.0
38.215,4007.0
38.2175,3953.0
38.22,3970.0
38.2225,3979.0
38.225,3962.0
38.2275,3947.0
38.23,3973.0
38.2325,3988.0
38.235,4000.0
38.2375,3956.0
38.24,3968.0
38.2425,3988.0
38.245,3964.0
38.2475,3928.0
38.25,3972.0
38.2525,3974.0
38.255,3930.0
38.2575,3919.0
38.26,3948.0
38.2625,3975.0
38.265,3941.0
38.2675,3926.0
38.27,3945.0
38.2725,3954.0
38.275,3950.0
38.2775,3945.0
38.28,3957.0
38.2825,3953.0
38.285,3964.0
38.2875,3927.0
38.29,3970.0
38.2925,3963.0
38.295,3962.0
38.2975,3926.0
38.3,3966.0
38.3025,3970.0
38.305,3974.0
38.3075,3986.0
38.31,4020.0
38.3125,4005.0
38.315,3950.0
38.3175,3947.0
38.32,4020.0
38.3225,4004.0
38.325,4009.0
38.3275,3993.0
38.33,4011.0
38.3325,4027.0
38.335,4036.0
38.3375,4020.0
38.34,4054.0
38.3425,4063.0
38.345,4065.0
38.3475,4042.0
38.35,4060.0
38.3525,4064.0
38.355,4093.0
38.3575,4084.0
38.36,4080.0
38.3625,4073.0
38.365,4088.0
38.3675,4077.0
38.37,4076.0
38.3725,4080.0
38.375,4058.0
38.3775,4015.0
38.38,4019.0
38.3825,4030.0
38.385,4004.0
38.3875,4002.0
38.39,4009.0
38.3925,3981.0
38.395,4020.0
38.3975,3984.0
38.4,3943.0
38.4025,3970.0
38.405,4001.0
38.4075,3973.0
38.41,4000.0
38.4125,4000.0
38.415,4014.0
38.4175,3964.0
38.42,3933.0
38.4225,3955.0
38.425,3963.0
38.4275,3955.0
38.43,3971.0
38.4325,3993.0
38.435,3998.0
38.4375,3959.0
38.44,3971.0
38.4425,3989.0
38.445,3991.0
38.4475,3974.0
38.45,3997.0
38.4525,3980.0
38.455,4006.0
38.4575,3960.0
38.46,3980.0
38.4625,3974.0
38.465,3971.0
38.4675,3946.0
38.47,3955.0
38.4725,3984.0
38.475,4023.0
38.4775,3973.0
38.48,3972.0
38.4825,3975.0
38.485,3986.0
38.4875,3951.0
38.49,3960.0
38.4925,3962.0
38.495,3983.0
38.4975,3948.0
38.5,3939.0
38.5025,3931.0
38.505,3960.0
38.5075,3944.0
38.51,3931.0
38.5125,3979.0
38.515,3979.0
38.5175,3899.0
38.52,3910.0
38.5225,3935.0
38.525,3949.0
38.5275,3936.0
38.53,3937.0
38.5325,3991.0
38.535,3978.0
38.5375,3916.0
38.54,3899.0
38.5425,3919.0
38.545,3916.0
38.5475,3860.0
38.55,3828.0
38.5525,3849.0
38.555,3875.0
38.5575,3830.0
38.56,3858.0
38.5625,3910.0
38.565,3938.0
38.5675,3925.0
38.57,3961.0
38.5725,4007.0
38.575,4026.0
38.5775,3994.0
38.58,3991.0
38.5825,4017.0
38.585,4007.0
38.5875,3972.0
38.59,4003.0
38.5925,4023.0
38.595,4001.0
38.5975,3951.0
38.6,3966.0
38.6025,3994.0
38.605,3989.0
38.6075,3964.0
38.61,3970.0
38.6125,4008.0
38.615,3992.0
38.6175,3949.0
38.62,3935.0
38.6225,3964.0
38.625,3955.0
38.6275,3910.0
38.63,3937.0
38.6325,3968.0
38.635,3926.0
38.6375,3893.0
38.64,3906.0
38.6425,3929.0
38.645,3963.0
38.6475,4069.0
38.65,4293.0
38.6525,4410.0
38.655,4467.0
38.6575,4486.0
38.66,4586.0
38.6625,4497.0
38.665,4161.0
38.6675,3767.0
38.67,3339.0
38.6725,2724.0
38.675,1968.0
38.6775,1077.0
38.68,104.0
38.6825,-2.0
38.685,-3.0
38.6875,-3.0
38.69,0.0
38.6925,818.0
38.695,2506.0
38.6975,3863.0
38.7,4535.0
38.7025,4639.0
38.705,4569.0
38.7075,4506.0
38.71,4532.0
38.7125,4559.0
38.715,4608.0
38.7175,4617.0
38.72,4643.0
38.7225,4683.0
38.725,4716.0
38.7275,4677.0
38.73,4710.0
38.7325,4715.0
38.735,4694.0
38.7375,4677.0
38.74,4664.0
38.7425,4678.0
38.745,4644.0
38.7475,4633.0
38.75,4637.0
38.7525,4614.0
38.755,4600.0
38.7575,4550.0
38.76,4551.0
38.7625,4563.0
38.765,4521.0
38.7675,4488.0
38.77,4534.0
38.7725,4509.0
38.775,4482.0
38.7775,4417.0
38.78,4431.0
38.7825,4434.0
38.785,4436.0
38.7875,4365.0
38.79,4399.0
38.7925,4370.0
38.795,4361.0
38.7975,4327.0
38.8,4329.0
38.8025,4314.0
38.805,4322.0
38.8075,4267.0
38.81,4320.0
38.8125,4314.0
38.815,4308.0
38.8175,4303.0
38.82,4272.0
38.8225,4276.0
38.825,4294.0
38.8275,4231.0
38.83,4219.0
38.8325,4197.0
38.835,4199.0
38.8375,4185.0
38.84,4167.0
38.8425,4129.0
38.845,4163.0
38.8475,4101.0
38.85,4081.0
38.8525,4121.0
38.855,4126.0
38.8575,4077.0
38.86,4034.0
38.8625,4043.0
38.865,4061.0
38.8675,4007.0
38.87,3998.0
38.8725,3997.0
38.875,4023.0
38.8775,4012.0
38.88,3999.0
38.8825,4017.0
38.885,4023.0
38.8875,3967.0
38.89,3998.0
38.8925,3989.0
38.895,4023.0
38.8975,3995.0
38.9,4037.0
38.9025,4036.0
38.905,4065.0
38.9075,4009.0
38.91,4025.0
38.9125,4059.0
38.915,4060.0
38.9175,4026.0
38.92,4032.0
38.9225,4081.0
38.925,4057.0
38.9275,4012.0
38.93,4006.0
38.9325,4028.0
38.935,4028.0
38.9375,3978.0
38.94,3962.0
38.9425,3966.0
38.945,3940.0
38.9475,3854.0
38.95,3812.0
38.9525,3830.0
38.955,3802.0
38.9575,3734.0
38.96,3697.0
38.9625,3693.0
38.965,3677.0
38.9675,3602.0
38.97,3573.0
38.9725,3563.0
38.975,3550.0
38.9775,3500.0
38.98,3473.0
38.9825,3490.0
38.985,3490.0
38.9875,3439.0
38.99,3446.0
38.9925,3430.0
38.995,3431.0
38.9975,3426.0
39.0,3432.0
39.0025,3443.0
39.005,3467.0
39.0075,3414.0
39.01,3429.0
39.0125,3451.0
39.015,3438.0
39.0175,3428.0
39.02,3472.0
39.0225,3510.0
39.025,3498.0
39.0275,3473.0
39.03,3509.0
39.0325,3505.0
39.035,3525.0
39.0375,3500.0
39.04,3530.0
39.0425,3541.0
39.045,3492.0
39.0475,3491.0
39.05,3544.0
39.0525,3548.0
39.055,3546.0
39.0575,3529.0
39.06,3539.0
39.0625,3577.0
39.065,3564.0
39.0675,3547.0
39.07,3578.0
39.0725,3581.0
39.075,3578.0
39.0775,3558.0
39.08,3626.0
39.0825,3622.0
39.085,3603.0
39.0875,3589.0
39.09,3643.0
39.0925,3636.0
39.095,3628.0
39.0975,3615.0
39.1,3641.0
39.1025,3652.0
39.105,3647.0
39.1075,3642.0
39.11,3629.0
39.1125,3642.0
39.115,3658.0
39.1175,3671.0
39.12,3673.0
39.1225,3697.0
39.125,3699.0
39.1275,3673.0
39.13,3662.0
39.1325,3702.0
39.135,3682.0
39.1375,3662.0
39.14,3701.0
39.1425,3711.0
39.145,3677.0
39.1475,3676.0
39.15,3691.0
39.1525,3695.0
39.155,3719.0
39.1575,3695.0
39.16,3712.0
39.1625,3733.0
39.165,3698.0
39.1675,3734.0
39.17,3741.0
39.1725,3738.0
39.175,3729.0
39.1775,3710.0
39.18,3728.0
39.1825,3730.0
39.185,3766.0
39.1875,3767.0
39.19,3767.0
39.1925,3752.0
39.195,3775.0
39.1975,3763.0
39.2,3827.0
39.2025,3809.0
39.205,3806.0
39.2075,3770.0
39.21,3798.0
39.2125,3813.0
39.215,3819.0
39.2175,3790.0
39.22,3821.0
39.2225,3810.0
39.225,3827.0
39.2275,3800.0
39.23,3805.0
39.2325,3805.0
39.235,3805.0
39.2375,3782.0
39.24,3819.0
39.2425,3795.0
39.245,3803.0
39.2475,3795.0
39.25,3803.0
39.2525,3833.0
39.255,3844.0
39.2575,3797.0
39.26,3813.0
39.2625,3817.0
39.265,3833.0
39.2675,3834.0
39.27,3833.0
39.2725,3795.0
39.275,3859.0
39.2775,3804.0
39.28,3792.0
39.2825,3791.0
39.285,3808.0
39.2875,3790.0
39.29,3800.0
39.2925,3816.0
39.295,3822.0
39.2975,3763.0
39.3,3758.0
39.3025,3747.0
39.305,3757.0
39.3075,3741.0
39.31,3746.0
39.3125,3748.0
39.315,3761.0
39.3175,3767.0
39.32,3759.0
39.3225,3766.0
39.325,3788.0
39.3275,3773.0
39.33,3800.0
39.3325,3800.0
39.335,3803.0
39.3375,3775.0
39.34,3784.0
39.3425,3807.0
39.345,3822.0
39.3475,3797.0
39.35,3808.0
39.3525,3818.0
39.355,3802.0
39.3575,3786.0
39.36,3784.0
39.3625,3805.0
39.365,3815.0
39.3675,3819.0
39.37,3811.0
39.3725,3844.0
39.375,3863.0
39.3775,3813.0
39.38,3864.0
39.3825,3861.0
39.385,3876.0
39.3875,3894.0
39.39,3859.0
39.3925,3931.0
39.395,3931.0
39.3975,3867.0
39.4,3905.0
39.4025,3916.0
39.405,3959.0
39.4075,3952.0
39.41,3942.0
39.4125,3996.0
39.415,3999.0
39.4175,3964.0
39.42,3966.0
39.4225,4021.0
39.425,4005.0
39.4275,3985.0
39.43,4018.0
39.4325,4038.0
39.435,4043.0
39.4375,4027.0
39.44,4027.0
39.4425,4053.0
39.445,4048.0
39.4475,4042.0
39.45,4072.0
39.4525,4096.0
39.455,4106.0
39.4575,4083.0
39.46,4094.0
39.4625,4104.0
39.465,4113.0
39.4675,4101.0
39.47,4115.0
39.4725,4133.0
39.475,4146.0
39.4775,4125.0
39.48,4131.0
39.4825,4172.0
39.485,4180.0
39.4875,4160.0
39.49,4210.0
39.4925,4233.0
39.495,4206.0
39.4975,4174.0
39.5,4236.0
39.5025,4252.0
39.505,4233.0
39.5075,4222.0
39.51,4267.0
39.5125,4289.0
39.515,4268.0
39.5175,4258.0
39.52,4290.0
39.5225,4288.0
39.525,4289.0
39.5275,4276.0
39.53,4309.0
39.5325,4333.0
39.535,4313.0
39.5375,4306.0
39.54,4339.0
39.5425,4323.0
39.545,4273.0
39.5475,4252.0
39.55,4235.0
39.5525,4262.0
39.555,4227.0
39.5575,4227.0
39.56,4272.0
39.5625,4297.0
39.565,4314.0
39.5675,4322.0
39.57,4359.0
39.5725,4359.0
39.575,4386.0
39.5775,4375.0
39.58,4388.0
39.5825,4400.0
39.585,4401.0
39.5875,4403.0
39.59,4432.0
39.5925,4406.0
39.595,4395.0
39.5975,4399.0
39.6,4421.0
39.6025,4427.0
39.605,4430.0
39.6075,4438.0
39.61,4473.0
39.6125,4444.0
39.615,4471.0
39.6175,4456.0
39.62,4482.0
39.6225,4472.0
39.625,4460.0
39.6275,4438.0
39.63,4506.0
39.6325,4490.0
39.635,4488.0
39.6375,4464.0
39.64,4483.0
39.6425,4493.0
39.645,4526.0
39.6475,4554.0
39.65,4734.0
39.6525,4870.0
39.655,4972.0
39.6575,5054.0
39.66,5149.0
39.6625,5142.0
39.665,5011.0
39.6675,4718.0
39.67,4349.0
39.6725,3888.0
39.675,3187.0
39.6775,2382.0
39.68,1527.0
39.6825,475.0
39.685,-3.0
39.6875,-2.0
39.69,-2.0
39.6925,460.0
39.695,1691.0
39.6975,3466.0
39.7,4802.0
39.7025,5287.0
39.705,5339.0
39.7075,5230.0
39.71,5207.0
39.7125,5182.0
39.715,5240.0
39.7175,5273.0
39.72,5304.0
39.7225,5305.0
39.725,5345.0
39.7275,5336.0
39.73,5359.0
39.7325,5388.0
39.735,5397.0
39.7375,5382.0
39.74,5363.0
39.7425,5343.0
39.745,5314.0
39.7475,5297.0
39.75,5272.0
39.7525,5263.0
39.755,5269.0
39.7575,5234.0
39.76,5210.0
39.7625,5219.0
39.765,5199.0
39.7675,5153.0
39.77,5157.0
39.7725,5150.0
39.775,5132.0
39.7775,5102.0
39.78,5093.0
39.7825,5098.0
39.785,5073.0
39.7875,5039.0
39.79,5007.0
39.7925,5030.0
39.795,4968.0
39.7975,4944.0
39.8,4922.0
39.8025,4905.0
39.805,4850.0
39.8075,4828.0
39.81,4823.0
39.8125,4826.0
39.815,4777.0
39.8175,4754.0
39.82,4741.0
39.8225,4758.0
39.825,4739.0
39.8275,4701.0
39.83,4704.0
39.8325,4709.0
39.835,4680.0
39.8375,4643.0
39.84,4627.0
39.8425,4635.0
39.845,4609.0
39.8475,4584.0
39.85,4588.0
39.8525,4594.0
39.855,4592.0
39.8575,4561.0
39.86,4564.0
39.8625,4589.0
39.865,4572.0
39.8675,4536.0
39.87,4553.0
39.8725,4549.0
39.875,4521.0
39.8775,4515.0
39.88,4541.0
39.8825,4571.0
39.885,4531.0
39.8875,4521.0
39.89,4550.0
39.8925,4545.0
39.895,4516.0
39.8975,4505.0
39.9,4513.0
39.9025,4546.0
39.905,4511.0
39.9075,4508.0
39.91,4513.0
39.9125,4530.0
39.915,4541.0
39.9175,4527.0
39.92,4522.0
39.9225,4522.0
39.925,4511.0
39.9275,4462.0
39.93,4466.0
39.9325,4497.0
39.935,4473.0
39.9375,4423.0
39.94,4441.0
39.9425,4416.0
39.945,4365.0
39.9475,4309.0
39.95,4299.0
39.9525,4272.0
39.955,4224.0
39.9575,4168.0
39.96,4166.0
39.9625,4123.0
39.965,4076.0
39.9675,4037.0
39.97,4024.0
39.9725,4005.0
39.975,3934.0
39.9775,3905.0
39.98,3889.0
39.9825,3863.0
39.985,3778.0
39.9875,3708.0
39.99,3695.0
39.9925,3656.0
39.995,3593.0
39.9975,3567.0
40.0,3566.0
40.0025,3544.0
40.005,3477.0
40.0075,3467.0
40.01,3464.0
40.0125,3433.0
40.015,3383.0
40.0175,3341.0
40.02,3337.0
40.0225,3323.0
40.025,3285.0
40.0275,3247.0
40.03,3221.0
40.0325,3215.0
40.035,3159.0
40.0375,3157.0
40.04,3150.0
40.0425,3112.0
40.045,3078.0
40.0475,3074.0
40.05,3060.0
40.0525,3051.0
40.055,3065.0
40.0575,3052.0
40.06,3083.0
40.0625,3097.0
40.065,3055.0
40.0675,3066.0
40.07,3079.0
40.0725,3068.0
40.075,3053.0
40.0775,3040.0
40.08,3072.0
40.0825,3063.0
40.085,3074.0
40.0875,3106.0
40.09,3130.0
40.0925,3143.0
40.095,3129.0
40.0975,3165.0
40.1,3201.0
40.1025,3210.0
40.105,3250.0
40.1075,3290.0
40.11,3291.0
40.1125,3319.0
40.115,3338.0
40.1175,3341.0
40.12,3377.0
40.1225,3402.0
40.125,3409.0
40.1275,3464.0
40.13,3508.0
40.1325,3542.0
40.135,3562.0
40.1375,3567.0
40.14,3585.0
40.1425,3609.0
40.145,3649.0
40.1475,3672.0
40.15,3714.0
40.1525,3720.0
40.155,3756.0
40.1575,3743.0
40.16,3765.0
40.1625,3783.0
40.165,3833.0
40.1675,3876.0
40.17,3886.0
40.1725,3914.0
40.175,3911.0
40.1775,3916.0
40.18,3954.0
40.1825,3971.0
40.185,4014.0
40.1875,3999.0
40.19,4020.0
40.1925,4091.0
40.195,4073.0
40.1975,4075.0
40.2,4069.0
40.2025,4116.0
40.205,4138.0
40.2075,4151.0
40.21,4172.0
40.2125,4239.0
40.215,4220.0
40.2175,4234.0
40.22,4242.0
40.2225,4263.0
40.225,4267.0
40.2275,4289.0
40.23,4299.0
40.2325,4320.0
40.235,4292.0
40.2375,4290.0
40.24,4282.0
40.2425,4338.0
40.245,4337.0
40.2475,4306.0
40.25,4325.0
40.2525,4356.0
40.255,4346.0
40.2575,4327.0
40.26,4334.0
40.2625,4375.0
40.265,4354.0
40.2675,4355.0
40.27,4343.0
40.2725,4370.0
40.275,4349.0
40.2775,4343.0
40.28,4345.0
40.2825,4362.0
40.285,4333.0
40.2875,4341.0
40.29,4339.0
40.2925,4345.0
40.295,4321.0
40.2975,4310.0
40.3,4317.0
40.3025,4352.0
40.305,4336.0
40.3075,4330.0
40.31,4343.0
40.3125,4326.0
40.315,4290.0
40.3175,4290.0
40.32,4311.0
40.3225,4314.0
40.325,4295.0
40.3275,4274.0
40.33,4296.0
40.3325,4312.0
40.335,4243.0
40.3375,4232.0
40.34,4228.0
40.3425,4251.0
40.345,4243.0
40.3475,4214.0
40.35,4219.0
40.3525,4210.0
40.355,4158.0
40.3575,4132.0
40.36,4143.0
40.3625,4171.0
40.365,4168.0
40.3675,4139.0
40.37,4162.0
40.3725,4174.0
40.375,4114.0
40.3775,4099.0
40.38,4106.0
40.3825,4106.0
40.385,4078.0
40.3875,4041.0
40.39,4035.0
40.3925,4007.0
40.395,3936.0
40.3975,3918.0
40.4,3909.0
40.4025,3909.0
40.405,3868.0
40.4075,3892.0
40.41,3905.0
40.4125,3930.0
40.415,3895.0
40.4175,3881.0
40.42,3920.0
40.4225,3967.0
40.425,3961.0
40.4275,3972.0
40.43,3995.0
40.4325,3994.0
40.435,3971.0
40.4375,3999.0
40.44,4028.0
40.4425,4036.0
40.445,4018.0
40.4475,4050.0
40.45,4090.0
40.4525,4080.0
40.455,4051.0
40.4575,4047.0
40.46,4058.0
40.4625,4044.0
40.465,4014.0
40.4675,4010.0
40.47,4063.0
40.4725,4040.0
40.475,4037.0
40.4775,4073.0
40.48,4101.0
40.4825,4138.0
40.485,4136.0
40.4875,4163.0
40.49,4193.0
40.4925,4207.0
40.495,4207.0
40.4975,4214.0
40.5,4217.0
40.5025,4219.0
40.505,4198.0
40.5075,4223.0
40.51,4242.0
40.5125,4206.0
40.515,4230.0
40.5175,4186.0
40.52,4208.0
40.5225,4207.0
40.525,4197.0
40.5275,4202.0
40.53,4245.0
40.5325,4214.0
40.535,4188.0
40.5375,4188.0
40.54,4197.0
40.5425,4189.0
40.545,4167.0
40.5475,4197.0
40.55,4196.0
40.5525,4205.0
40.555,4200.0
40.5575,4212.0
40.56,4199.0
40.5625,4195.0
40.565,4219.0
40.5675,4318.0
40.57,4467.0
40.5725,4598.0
40.575,4653.0
40.5775,4771.0
40.58,4821.0
40.5825,4743.0
40.585,4513.0
40.5875,4198.0
40.59,3769.0
40.5925,3224.0
40.595,2573.0
40.5975,1768.0
40.6,896.0
40.6025,36.0
40.605,-4.0
40.6075,-1.0
40.61,295.0
40.6125,1162.0
40.615,2712.0
40.6175,4261.0
40.62,4933.0
40.6225,5028.0
40.625,4995.0
40.6275,4921.0
40.63,4868.0
40.6325,4855.0
40.635,4883.0
40.6375,4928.0
40.64,4944.0
40.6425,4977.0
40.645,4970.0
40.6475,4972.0
40.65,5004.0
40.6525,5037.0
40.655,5036.0
40.6575,5004.0
40.66,5015.0
40.6625,5031.0
40.665,4959.0
40.6675,4933.0
40.67,4921.0
40.6725,4932.0
40.675,4907.0
40.6775,4899.0
40.68,4866.0
40.6825,4882.0
40.685,4812.0
40.6875,4792.0
40.69,4796.0
40.6925,4829.0
40.695,4765.0
40.6975,4766.0
40.7,4730.0
40.7025,4725.0
40.705,4707.0
40.7075,4686.0
40.71,4656.0
40.7125,4668.0
40.715,4670.0
40.7175,4638.0
40.72,4636.0
40.7225,4650.0
40.725,4590.0
40.7275,4579.0
40.73,4567.0
40.7325,4559.0
40.735,4546.0
40.7375,4512.0
40.74,4508.0
40.7425,4553.0
40.745,4501.0
40.7475,4455.0
40.75,4484.0
40.7525,4476.0
40.755,4452.0
40.7575,4443.0
40.76,4439.0
40.7625,4423.0
40.765,4405.0
40.7675,4396.0
40.77,4416.0
40.7725,4432.0
40.775,4402.0
40.7775,4410.0
40.78,4421.0
40.7825,4425.0
40.785,4369.0
40.7875,4390.0
40.79,4377.0
40.7925,4376.0
40.795,4357.0
40.7975,4350.0
40.8,4369.0
40.8025,4380.0
40.805,4329.0
40.8075,4339.0
40.81,4362.0
40.8125,4385.0
40.815,4357.0
40.8175,4351.0
40.82,4398.0
40.8225,4402.0
40.825,4386.0
40.8275,4367.0
40.83,4364.0
40.8325,4388.0
40.835,4335.0
40.8375,4355.0
40.84,4373.0
40.8425,4369.0
40.845,4348.0
40.8475,4364.0
40.85,4367.0
40.8525,4372.0
40.855,4325.0
40.8575,4304.0
40.86,4286.0
40.8625,4265.0
40.865,4233.0
40.8675,4207.0
40.87,4212.0
40.8725,4178.0
40.875,4130.0
40.8775,4108.0
40.88,4116.0
40.8825,4097.0
40.885,4041.0
40.8875,4024.0
40.89,4003.0
40.8925,3991.0
40.895,3953.0
40.8975,3916.0
40.9,3917.0
40.9025,3916.0
40.905,3855.0
40.9075,3841.0
40.91,3856.0
40.9125,3808.0
40.915,3775.0
40.9175,3780.0
40.92,3778.0
40.9225,3759.0
40.925,3723.0
40.9275,3735.0
40.93,3739.0
40.9325,3740.0
40.935,3699.0
40.9375,3692.0
40.94,3730.0
40.9425,3722.0
40.945,3707.0
40.9475,3720.0
40.95,3726.0
40.9525,3724.0
40.955,3683.0
40.9575,3704.0
40.96,3726.0
40.9625,3675.0
40.965,3678.0
40.9675,3699.0
40.97,3704.0
40.9725,3683.0
40.975,3626.0
40.9775,3662.0
40.98,3677.0
40.9825,3656.0
40.985,3646.0
40.9875,3642.0
40.99,3640.0
40.9925,3651.0
40.995,3623.0
40.9975,3629.0
41.0,3640.0
41.0025,3597.0
41.005,3605.0
41.0075,3631.0
41.01,3591.0
41.0125,3589.0
41.015,3563.0
41.0175,3586.0
41.02,3594.0
41.0225,3588.0
41.025,3583.0
41.0275,3577.0
41.03,3565.0
41.0325,3546.0
41.035,3561.0
41.0375,3576.0
41.04,3560.0
41.0425,3546.0
41.045,3550.0
41.0475,3567.0
41.05,3550.0
41.0525,3550.0
41.055,3532.0
41.0575,3574.0
41.06,3560.0
41.0625,3562.0
41.065,3550.0
41.0675,3560.0
41.07,3530.0
41.0725,3574.0
41.075,3548.0
41.0775,3561.0
41.08,3590.0
41.0825,3612.0
41.085,3602.0
41.0875,3602.0
41.09,3606.0
41.0925,3624.0
41.095,3610.0
41.0975,3597.0
41.1,3606.0
41.1025,3657.0
41.105,3631.0
41.1075,3641.0
41.11,3621.0
41.1125,3673.0
