195.795,4491.0
195.7975,4512.0
195.8,4512.0
195.8025,4486.0
195.805,4488.0
195.8075,4489.0
195.81,4493.0
195.8125,4489.0
195.815,4519.0
195.8175,4523.0
195.82,4499.0
195.8225,4514.0
195.825,4517.0
195.8275,4497.0
195.83,4471.0
195.8325,4473.0
195.835,4481.0
195.8375,4467.0
195.84,4473.0
195.8425,4448.0
195.845,4428.0
195.8475,4427.0
195.85,4409.0
195.8525,4392.0
195.855,4417.0
195.8575,4426.0
195.86,4421.0
195.8625,4403.0
195.865,4410.0
195.8675,4430.0
195.87,4416.0
195.8725,4405.0
195.875,4428.0
195.8775,4408.0
195.88,4412.0
195.8825,4426.0
195.885,4465.0
195.8875,4458.0
195.89,4460.0
195.8925,4464.0
195.895,4460.0
195.8975,4481.0
195.9,4460.0
195.9025,4463.0
195.905,4476.0
195.9075,4481.0
195.91,4496.0
195.9125,4498.0
195.915,4477.0
195.9175,4498.0
195.92,4539.0
195.9225,4538.0
195.925,4558.0
195.9275,4560.0
195.93,4533.0
195.9325,4518.0
195.935,4505.0
195.9375,4509.0
195.94,4479.0
195.9425,4425.0
195.945,4435.0
195.9475,4403.0
195.95,4373.0
195.9525,4359.0
195.955,4337.0
195.9575,4330.0
195.96,4326.0
195.9625,4309.0
195.965,4303.0
195.9675,4307.0
195.97,4287.0
195.9725,4274.0
195.975,4269.0
195.9775,4284.0
195.98,4247.0
195.9825,4235.0
195.985,4264.0
195.9875,4277.0
195.99,4280.0
195.9925,4264.0
195.995,4245.0
195.9975,4265.0
196.0,4245.0
196.0025,4227.0
196.005,4264.0
196.0075,4290.0
196.01,4276.0
196.0125,4265.0
196.015,4263.0
196.0175,4276.0
196.02,4256.0
196.0225,4219.0
196.025,4232.0
196.0275,4229.0
196.03,4211.0
196.0325,4194.0
196.035,4198.0
196.0375,4207.0
196.04,4185.0
196.0425,4170.0
196.045,4186.0
196.0475,4194.0
196.05,4151.0
196.0525,4167.0
196.055,4159.0
196.0575,4168.0
196.06,4138.0
196.0625,4149.0
196.065,4149.0
196.0675,4148.0
196.07,4150.0
196.0725,4131.0
196.075,4135.0
196.0775,4140.0
196.08,4140.0
196.0825,4131.0
196.085,4148.0
196.0875,4153.0
196.09,4131.0
196.0925,4126.0
196.095,4156.0
196.0975,4175.0
196.1,4180.0
196.1025,4186.0
196.105,4199.0
196.1075,4167.0
196.11,4137.0
196.1125,4164.0
196.115,4183.0
196.1175,4160.0
196.12,4135.0
196.1225,4120.0
196.125,4102.0
196.1275,4144.0
196.13,4105.0
196.1325,4117.0
196.135,4100.0
196.1375,4105.0
196.14,4097.0
196.1425,4096.0
196.145,4118.0
196.1475,4110.0
196.15,4090.0
196.1525,4090.0
196.155,4103.0
196.1575,4078.0
196.16,4061.0
196.1625,4055.0
196.165,4071.0
196.1675,4050.0
196.17,4030.0
196.1725,4018.0
196.175,4010.0
196.1775,4010.0
196.18,4014.0
196.1825,4014.0
196.185,3976.0
196.1875,3990.0
196.19,3993.0
196.1925,3982.0
196.195,3953.0
196.1975,3992.0
196.2,3958.0
196.2025,3955.0
196.205,3976.0
196.2075,3981.0
196.21,3981.0
196.2125,3976.0
196.215,3945.0
196.2175,3938.0
196.22,3934.0
196.2225,3931.0
196.225,3895.0
196.2275,3913.0
196.23,3923.0
196.2325,3931.0
196.235,3891.0
196.2375,3907.0
196.24,3891.0
196.2425,3886.0
196.245,3916.0
196.2475,3897.0
196.25,3881.0
196.2525,3862.0
196.255,3876.0
196.2575,3878.0
196.26,3870.0
196.2625,3880.0
196.265,3893.0
196.2675,3909.0
196.27,3902.0
196.2725,3886.0
196.275,3881.0
196.2775,3903.0
196.28,3884.0
196.2825,3863.0
196.285,3862.0
196.2875,3873.0
196.29,3842.0
196.2925,3833.0
196.295,3831.0
196.2975,3855.0
196.3,3859.0
196.3025,3843.0
196.305,3868.0
196.3075,3874.0
196.31,3880.0
196.3125,3863.0
196.315,3854.0
196.3175,3882.0
196.32,3868.0
196.3225,3880.0
196.325,3866.0
196.3275,3863.0
196.33,3866.0
196.3325,3845.0
196.335,3846.0
196.3375,3866.0
196.34,3861.0
196.3425,3837.0
196.345,3808.0
196.3475,3882.0
196.35,3891.0
196.3525,3896.0
196.355,3861.0
196.3575,3900.0
196.36,3898.0
196.3625,3875.0
196.365,3858.0
196.3675,3885.0
196.37,3879.0
196.3725,3880.0
196.375,3876.0
196.3775,3857.0
196.38,3867.0
196.3825,3853.0
196.385,3842.0
196.3875,3884.0
196.39,3853.0
196.3925,3832.0
196.395,3836.0
196.3975,3847.0
196.4,3849.0
196.4025,3833.0
196.405,3843.0
196.4075,3839.0
196.41,3823.0
196.4125,3813.0
196.415,3829.0
196.4175,3832.0
196.42,3828.0
196.4225,3834.0
196.425,3826.0
196.4275,3807.0
196.43,3808.0
196.4325,3780.0
196.435,3769.0
196.4375,3774.0
196.44,3729.0
196.4425,3714.0
196.445,3719.0
196.4475,3741.0
196.45,3762.0
196.4525,3761.0
196.455,3727.0
196.4575,3721.0
196.46,3701.0
196.4625,3694.0
196.465,3715.0
196.4675,3742.0
196.47,3700.0
196.4725,3723.0
196.475,3719.0
196.4775,3731.0
196.48,3722.0
196.4825,3752.0
196.485,3766.0
196.4875,3777.0
196.49,3792.0
196.4925,3772.0
196.495,3770.0
196.4975,3736.0
196.5,3760.0
196.5025,3739.0
196.505,3756.0
196.5075,3743.0
196.51,3714.0
196.5125,3713.0
196.515,3704.0
196.5175,3701.0
196.52,3691.0
196.5225,3687.0
196.525,3691.0
196.5275,3686.0
196.53,3679.0
196.5325,3658.0
196.535,3654.0
196.5375,3666.0
196.54,3660.0
196.5425,3665.0
196.545,3689.0
196.5475,3685.0
196.55,3701.0
196.5525,3718.0
196.555,3724.0
196.5575,3661.0
196.56,3601.0
196.5625,3494.0
196.565,3383.0
196.5675,3326.0
196.57,3345.0
196.5725,3334.0
196.575,3374.0
196.5775,3504.0
196.58,3602.0
196.5825,3807.0
196.585,4199.0
196.5875,4781.0
196.59,5524.0
196.5925,6206.0
196.595,6707.0
196.5975,7016.0
196.6,6905.0
196.6025,6392.0
196.605,5274.0
196.6075,4189.0
196.61,3684.0
196.6125,3577.0
196.615,3525.0
196.6175,3444.0
196.62,3382.0
196.6225,3296.0
196.625,3242.0
196.6275,3193.0
196.63,3173.0
196.6325,3143.0
196.635,3112.0
196.6375,3093.0
196.64,3070.0
196.6425,3063.0
196.645,3053.0
196.6475,3068.0
196.65,3107.0
196.6525,3127.0
196.655,3141.0
196.6575,3118.0
196.66,3148.0
196.6625,3166.0
196.665,3155.0
196.6675,3163.0
196.67,3182.0
196.6725,3192.0
196.675,3205.0
196.6775,3214.0
196.68,3270.0
196.6825,3257.0
196.685,3268.0
196.6875,3297.0
196.69,3322.0
196.6925,3336.0
196.695,3332.0
196.6975,3339.0
196.7,3381.0
196.7025,3389.0
196.705,3353.0
196.7075,3366.0
196.71,3360.0
196.7125,3358.0
196.715,3358.0
196.7175,3367.0
196.72,3404.0
196.7225,3427.0
196.725,3400.0
196.7275,3430.0
196.73,3431.0
196.7325,3419.0
196.735,3385.0
196.7375,3404.0
196.74,3416.0
196.7425,3388.0
196.745,3405.0
196.7475,3420.0
196.75,3441.0
196.7525,3448.0
196.755,3406.0
196.7575,3418.0
196.76,3424.0
196.7625,3384.0
196.765,3416.0
196.7675,3387.0
196.77,3378.0
196.7725,3377.0
196.775,3392.0
196.7775,3397.0
196.78,3429.0
196.7825,3411.0
196.785,3395.0
196.7875,3435.0
196.79,3444.0
196.7925,3426.0
196.795,3409.0
196.7975,3424.0
196.8,3416.0
196.8025,3431.0
196.805,3417.0
196.8075,3435.0
196.81,3489.0
196.8125,3499.0
196.815,3505.0
196.8175,3528.0
196.82,3554.0
196.8225,3531.0
196.825,3569.0
196.8275,3607.0
196.83,3621.0
196.8325,3652.0
196.835,3659.0
196.8375,3705.0
196.84,3765.0
196.8425,3756.0
196.845,3798.0
196.8475,3843.0
196.85,3877.0
196.8525,3886.0
196.855,3903.0
196.8575,3953.0
196.86,3958.0
196.8625,3939.0
196.865,3982.0
196.8675,3970.0
196.87,3982.0
196.8725,3959.0
196.875,3976.0
196.8775,4000.0
196.88,4005.0
196.8825,4004.0
196.885,4007.0
196.8875,4052.0
196.89,4064.0
196.8925,4058.0
196.895,4058.0
196.8975,4071.0
196.9,4109.0
196.9025,4100.0
196.905,4121.0
196.9075,4157.0
196.91,4175.0
196.9125,4182.0
196.915,4182.0
196.9175,4211.0
196.92,4242.0
196.9225,4263.0
196.925,4287.0
196.9275,4316.0
196.93,4339.0
196.9325,4341.0
196.935,4339.0
196.9375,4336.0
196.94,4347.0
196.9425,4349.0
196.945,4336.0
196.9475,4372.0
196.95,4393.0
196.9525,4390.0
196.955,4410.0
196.9575,4423.0
196.96,4421.0
196.9625,4425.0
196.965,4412.0
196.9675,4438.0
196.97,4444.0
196.9725,4467.0
196.975,4449.0
196.9775,4463.0
196.98,4469.0
196.9825,4488.0
196.985,4490.0
196.9875,4504.0
196.99,4503.0
196.9925,4527.0
196.995,4506.0
196.9975,4500.0
197.0,4583.0
197.0025,4616.0
197.005,4590.0
197.0075,4577.0
197.01,4610.0
197.0125,4591.0
197.015,4608.0
197.0175,4597.0
197.02,4664.0
197.0225,4666.0
197.025,4670.0
197.0275,4651.0
197.03,4698.0
197.0325,4682.0
197.035,4669.0
197.0375,4638.0
197.04,4664.0
197.0425,4686.0
197.045,4703.0
197.0475,4728.0
197.05,4721.0
197.0525,4743.0
197.055,4688.0
197.0575,4713.0
197.06,4734.0
197.0625,4736.0
197.065,4733.0
197.0675,4733.0
197.07,4756.0
197.0725,4754.0
197.075,4765.0
197.0775,4733.0
197.08,4774.0
197.0825,4780.0
197.085,4791.0
197.0875,4787.0
197.09,4814.0
197.0925,4799.0
197.095,4785.0
197.0975,4782.0
197.1,4813.0
197.1025,4838.0
197.105,4835.0
197.1075,4819.0
197.11,4868.0
197.1125,4858.0
197.115,4848.0
197.1175,4840.0
197.12,4852.0
197.1225,4848.0
197.125,4830.0
197.1275,4841.0
197.13,4869.0
197.1325,4838.0
197.135,4823.0
197.1375,4868.0
197.14,4880.0
197.1425,4898.0
197.145,4904.0
197.1475,4867.0
197.15,4897.0
197.1525,4866.0
197.155,4828.0
197.1575,4827.0
197.16,4844.0
197.1625,4853.0
197.165,4858.0
197.1675,4861.0
197.17,4877.0
197.1725,4826.0
197.175,4795.0
197.1775,4823.0
197.18,4843.0
197.1825,4844.0
197.185,4838.0
197.1875,4846.0
197.19,4852.0
197.1925,4863.0
197.195,4853.0
197.1975,4857.0
197.2,4858.0
197.2025,4844.0
197.205,4847.0
197.2075,4860.0
197.21,4856.0
197.2125,4850.0
197.215,4849.0
197.2175,4856.0
197.22,4882.0
197.2225,4903.0
197.225,4893.0
197.2275,4895.0
197.23,4920.0
197.2325,4931.0
197.235,4915.0
197.2375,4916.0
197.24,4933.0
197.2425,4887.0
197.245,4900.0
197.2475,4920.0
197.25,4922.0
197.2525,4907.0
197.255,4909.0
197.2575,4931.0
197.26,4943.0
197.2625,4940.0
197.265,4978.0
197.2675,4953.0
197.27,4972.0
197.2725,4946.0
197.275,4919.0
197.2775,4946.0
197.28,4955.0
197.2825,4957.0
197.285,4950.0
197.2875,4974.0
197.29,4980.0
197.2925,4980.0
197.295,4990.0
197.2975,4989.0
197.3,4970.0
197.3025,4977.0
197.305,4975.0
197.3075,4982.0
197.31,5000.0
197.3125,4973.0
197.315,4954.0
197.3175,4943.0
197.32,4938.0
197.3225,4928.0
197.325,4935.0
197.3275,4941.0
197.33,4961.0
197.3325,4950.0
197.335,4941.0
197.3375,4949.0
197.34,4963.0
197.3425,4973.0
197.345,5002.0
197.3475,4963.0
197.35,4941.0
197.3525,4973.0
197.355,4994.0
197.3575,4976.0
197.36,4959.0
197.3625,4970.0
197.365,4971.0
197.3675,4942.0
197.37,4971.0
197.3725,4986.0
197.375,4998.0
197.3775,5007.0
197.38,5024.0
197.3825,5007.0
197.385,5009.0
197.3875,5011.0
197.39,5052.0
197.3925,5024.0
197.395,5025.0
197.3975,5004.0
197.4,5033.0
197.4025,5047.0
197.405,5049.0
197.4075,5012.0
197.41,5042.0
197.4125,5070.0
197.415,5086.0
197.4175,5060.0
197.42,5060.0
197.4225,5107.0
197.425,5096.0
197.4275,5061.0
197.43,5089.0
197.4325,5097.0
197.435,5121.0
197.4375,5132.0
197.44,5136.0
197.4425,5092.0
197.445,5004.0
197.4475,4888.0
197.45,4831.0
197.4525,4789.0
197.455,4714.0
197.4575,4727.0
197.46,4850.0
197.4625,4933.0
197.465,5009.0
197.4675,5251.0
197.47,5698.0
197.4725,6306.0
197.475,7043.0
197.4775,7713.0
197.48,8191.0
197.4825,8191.0
197.485,8191.0
197.4875,7647.0
197.49,6458.0
197.4925,5546.0
197.495,5227.0
197.4975,5135.0
197.5,5102.0
197.5025,5050.0
197.505,5014.0
197.5075,4939.0
197.51,4913.0
197.5125,4858.0
197.515,4829.0
197.5175,4800.0
197.52,4814.0
197.5225,4837.0
197.525,4806.0
197.5275,4775.0
197.53,4835.0
197.5325,4868.0
197.535,4875.0
197.5375,4861.0
197.54,4849.0
197.5425,4866.0
197.545,4879.0
197.5475,4895.0
197.55,4939.0
197.5525,4923.0
197.555,4962.0
197.5575,4979.0
197.56,5023.0
197.5625,5038.0
197.565,5020.0
197.5675,5025.0
197.57,5055.0
197.5725,5120.0
197.575,5108.0
197.5775,5115.0
197.58,5113.0
197.5825,5142.0
197.585,5122.0
197.5875,5143.0
197.59,5157.0
197.5925,5189.0
197.595,5201.0
197.5975,5177.0
197.6,5189.0
197.6025,5197.0
197.605,5193.0
197.6075,5205.0
197.61,5199.0
197.6125,5213.0
197.615,5195.0
197.6175,5181.0
197.62,5196.0
197.6225,5218.0
197.625,5153.0
197.6275,5128.0
197.63,5151.0
197.6325,5159.0
197.635,5143.0
197.6375,5120.0
197.64,5172.0
197.6425,5189.0
197.645,5179.0
197.6475,5188.0
197.65,5207.0
197.6525,5185.0
197.655,5210.0
197.6575,5227.0
197.66,5219.0
197.6625,5220.0
197.665,5201.0
197.6675,5192.0
197.67,5203.0
197.6725,5197.0
197.675,5214.0
197.6775,5212.0
197.68,5221.0
197.6825,5233.0
197.685,5244.0
197.6875,5259.0
197.69,5289.0
197.6925,5288.0
197.695,5281.0
197.6975,5304.0
197.7,5256.0
197.7025,5283.0
197.705,5299.0
197.7075,5333.0
197.71,5333.0
197.7125,5345.0
197.715,5342.0
197.7175,5362.0
197.72,5365.0
197.7225,5358.0
197.725,5369.0
197.7275,5409.0
197.73,5394.0
197.7325,5397.0
197.735,5419.0
197.7375,5406.0
197.74,5413.0
197.7425,5418.0
197.745,5408.0
197.7475,5403.0
197.75,5370.0
197.7525,5346.0
197.755,5327.0
197.7575,5298.0
197.76,5265.0
197.7625,5275.0
197.765,5261.0
197.7675,5259.0
197.77,5222.0
197.7725,5217.0
197.775,5208.0
197.7775,5181.0
197.78,5187.0
197.7825,5201.0
197.785,5211.0
197.7875,5182.0
197.79,5187.0
197.7925,5208.0
197.795,5238.0
197.7975,5206.0
197.8,5185.0
197.8025,5256.0
197.805,5240.0
197.8075,5252.0
197.81,5237.0
197.8125,5266.0
197.815,5261.0
197.8175,5270.0
197.82,5241.0
197.8225,5298.0
197.825,5321.0
197.8275,5293.0
197.83,5337.0
197.8325,5382.0
197.835,5394.0
197.8375,5393.0
197.84,5383.0
197.8425,5428.0
197.845,5469.0
197.8475,5510.0
197.85,5523.0
197.8525,5540.0
197.855,5554.0
197.8575,5550.0
197.86,5556.0
197.8625,5592.0
197.865,5617.0
197.8675,5664.0
197.87,5679.0
197.8725,5707.0
197.875,5679.0
197.8775,5664.0
197.88,5659.0
197.8825,5720.0
197.885,5683.0
197.8875,5667.0
197.89,5674.0
197.8925,5690.0
197.895,5664.0
197.8975,5684.0
197.9,5734.0
197.9025,5754.0
197.905,5768.0
197.9075,5765.0
197.91,5826.0
197.9125,5855.0
197.915,5862.0
197.9175,5830.0
197.92,5846.0
197.9225,5892.0
197.925,5931.0
197.9275,5916.0
197.93,5947.0
197.9325,5948.0
197.935,5932.0
197.9375,5919.0
197.94,5953.0
197.9425,5991.0
197.945,5979.0
197.9475,5977.0
197.95,5989.0
197.9525,6038.0
197.955,6047.0
197.9575,6064.0
197.96,6075.0
197.9625,6090.0
197.965,6071.0
197.9675,5999.0
197.97,5992.0
197.9725,5976.0
197.975,5912.0
197.9775,5897.0
197.98,5903.0
197.9825,5902.0
197.985,5851.0
197.9875,5839.0
197.99,5839.0
197.9925,5837.0
197.995,5821.0
197.9975,5804.0
198.0,5784.0
198.0025,5798.0
198.005,5775.0
198.0075,5758.0
198.01,5761.0
198.0125,5766.0
198.015,5746.0
198.0175,5712.0
198.02,5697.0
198.0225,5691.0
198.025,5673.0
198.0275,5688.0
198.03,5675.0
198.0325,5624.0
198.035,5593.0
198.0375,5585.0
198.04,5606.0
198.0425,5600.0
198.045,5566.0
198.0475,5564.0
198.05,5521.0
198.0525,5489.0
198.055,5484.0
198.0575,5480.0
198.06,5453.0
198.0625,5434.0
198.065,5383.0
198.0675,5409.0
198.07,5388.0
198.0725,5376.0
198.075,5345.0
198.0775,5308.0
198.08,5320.0
198.0825,5338.0
198.085,5304.0
198.0875,5307.0
198.09,5296.0
198.0925,5315.0
198.095,5318.0
198.0975,5273.0
198.1,5274.0
198.1025,5261.0
198.105,5265.0
198.1075,5245.0
198.11,5267.0
198.1125,5275.0
198.115,5257.0
198.1175,5237.0
198.12,5242.0
198.1225,5230.0
198.125,5225.0
198.1275,5220.0
198.13,5188.0
198.1325,5169.0
198.135,5161.0
198.1375,5168.0
198.14,5155.0
198.1425,5151.0
198.145,5182.0
198.1475,5177.0
198.15,5145.0
198.1525,5185.0
198.155,5207.0
198.1575,5216.0
198.16,5208.0
198.1625,5233.0
198.165,5251.0
198.1675,5240.0
198.17,5240.0
198.1725,5249.0
198.175,5262.0
198.1775,5228.0
198.18,5214.0
198.1825,5246.0
198.185,5242.0
198.1875,5209.0
198.19,5210.0
198.1925,5231.0
198.195,5234.0
198.1975,5200.0
198.2,5190.0
198.2025,5167.0
198.205,5167.0
198.2075,5172.0
198.21,5179.0
198.2125,5143.0
198.215,5067.0
198.2175,4939.0
198.22,4827.0
198.2225,4783.0
198.225,4773.0
198.2275,4733.0
198.23,4837.0
198.2325,4899.0
198.235,4988.0
198.2375,5113.0
198.24,5443.0
198.2425,5967.0
198.245,6675.0
198.2475,7423.0
198.25,7948.0
198.2525,8191.0
198.255,8100.0
198.2575,7570.0
198.26,6395.0
198.2625,5447.0
198.265,5106.0
198.2675,4989.0
198.27,4895.0
198.2725,4858.0
198.275,4770.0
198.2775,4670.0
198.28,4602.0
198.2825,4602.0
198.285,4541.0
198.2875,4498.0
198.29,4456.0
198.2925,4489.0
198.295,4487.0
198.2975,4468.0
198.3,4468.0
198.3025,4509.0
198.305,4487.0
198.3075,4501.0
198.31,4489.0
198.3125,4479.0
198.315,4501.0
198.3175,4495.0
198.32,4498.0
198.3225,4520.0
198.325,4539.0
198.3275,4563.0
198.33,4586.0
198.3325,4615.0
198.335,4639.0
198.3375,4622.0
198.34,4640.0
198.3425,4672.0
198.345,4686.0
198.3475,4707.0
198.35,4718.0
198.3525,4748.0
198.355,4704.0
198.3575,4702.0
198.36,4691.0
198.3625,4678.0
198.365,4669.0
198.3675,4676.0
198.37,4670.0
198.3725,4688.0
198.375,4687.0
198.3775,4685.0
198.38,4670.0
198.3825,4690.0
198.385,4682.0
198.3875,4666.0
198.39,4643.0
198.3925,4693.0
198.395,4697.0
198.3975,4687.0
198.4,4674.0
198.4025,4660.0
198.405,4671.0
198.4075,4642.0
198.41,4669.0
198.4125,4659.0
198.415,4667.0
198.4175,4663.0
198.42,4635.0
198.4225,4656.0
198.425,4671.0
198.4275,4651.0
198.43,4630.0
198.4325,4654.0
198.435,4657.0
198.4375,4643.0
198.44,4651.0
198.4425,4681.0
198.445,4683.0
198.4475,4687.0
198.45,4671.0
198.4525,4697.0
198.455,4690.0
198.4575,4670.0
198.46,4651.0
198.4625,4665.0
198.465,4709.0
198.4675,4722.0
198.47,4741.0
198.4725,4731.0
198.475,4759.0
198.4775,4768.0
198.48,4789.0
198.4825,4799.0
198.485,4825.0
198.4875,4838.0
198.49,4850.0
198.4925,4888.0
198.495,4885.0
198.4975,4876.0
198.5,4900.0
198.5025,4919.0
198.505,4911.0
198.5075,4943.0
198.51,4930.0
198.5125,4944.0
198.515,4961.0
198.5175,4928.0
198.52,4893.0
198.5225,4880.0
198.525,4867.0
198.5275,4837.0
198.53,4855.0
198.5325,4832.0
198.535,4827.0
198.5375,4774.0
198.54,4739.0
198.5425,4715.0
198.545,4752.0
198.5475,4730.0
198.55,4742.0
198.5525,4748.0
198.555,4726.0
198.5575,4748.0
198.56,4711.0
198.5625,4729.0
198.565,4747.0
198.5675,4740.0
198.57,4748.0
198.5725,4754.0
198.575,4769.0
198.5775,4794.0
198.58,4777.0
198.5825,4772.0
198.585,4818.0
198.5875,4840.0
198.59,4878.0
198.5925,4892.0
198.595,4914.0
198.5975,4902.0
198.6,4902.0
198.6025,4928.0
198.605,4973.0
198.6075,4981.0
198.61,4980.0
198.6125,4988.0
198.615,4978.0
198.6175,5000.0
198.62,5006.0
198.6225,5011.0
198.625,5065.0
198.6275,5062.0
198.63,5055.0
198.6325,5065.0
198.635,5082.0
198.6375,5088.0
198.64,5042.0
198.6425,5043.0
198.645,5089.0
198.6475,5113.0
198.65,5092.0
198.6525,5106.0
198.655,5102.0
198.6575,5100.0
198.66,5065.0
198.6625,5090.0
198.665,5126.0
198.6675,5137.0
198.67,5119.0
198.6725,5145.0
198.675,5135.0
198.6775,5141.0
198.68,5159.0
198.6825,5168.0
198.685,5182.0
198.6875,5171.0
198.69,5174.0
198.6925,5195.0
198.695,5223.0
198.6975,5186.0
198.7,5152.0
198.7025,5166.0
198.705,5205.0
198.7075,5204.0
198.71,5190.0
198.7125,5180.0
198.715,5201.0
198.7175,5199.0
198.72,5185.0
198.7225,5193.0
198.725,5205.0
198.7275,5203.0
198.73,5216.0
198.7325,5205.0
198.735,5257.0
198.7375,5236.0
198.74,5224.0
198.7425,5225.0
198.745,5216.0
198.7475,5219.0
198.75,5209.0
198.7525,5223.0
198.755,5208.0
198.7575,5197.0
198.76,5189.0
198.7625,5179.0
198.765,5183.0
198.7675,5178.0
198.77,5188.0
198.7725,5205.0
198.775,5199.0
198.7775,5145.0
198.78,5203.0
198.7825,5209.0
198.785,5176.0
198.7875,5166.0
198.79,5145.0
198.7925,5140.0
198.795,5151.0
198.7975,5158.0
198.8,5153.0
198.8025,5145.0
198.805,5133.0
198.8075,5117.0
198.81,5101.0
198.8125,5141.0
198.815,5126.0
198.8175,5087.0
198.82,5081.0
198.8225,5074.0
198.825,5070.0
198.8275,5069.0
198.83,5056.0
198.8325,5036.0
198.835,5012.0
198.8375,5015.0
198.84,5027.0
198.8425,4992.0
198.845,4970.0
198.8475,4960.0
198.85,4948.0
198.8525,4914.0
198.855,4937.0
198.8575,4957.0
198.86,4937.0
198.8625,4891.0
198.865,4881.0
198.8675,4866.0
198.87,4838.0
198.8725,4818.0
198.875,4798.0
198.8775,4792.0
198.88,4787.0
198.8825,4755.0
198.885,4769.0
198.8875,4751.0
198.89,4704.0
198.8925,4656.0
198.895,4668.0
198.8975,4658.0
198.9,4647.0
198.9025,4648.0
198.905,4655.0
198.9075,4617.0
198.91,4627.0
198.9125,4622.0
198.915,4625.0
198.9175,4636.0
198.92,4662.0
198.9225,4658.0
198.925,4627.0
198.9275,4629.0
198.93,4562.0
198.9325,4551.0
198.935,4586.0
198.9375,4572.0
198.94,4576.0
198.9425,4569.0
198.945,4561.0
198.9475,4531.0
198.95,4548.0
198.9525,4523.0
198.955,4525.0
198.9575,4504.0
198.96,4484.0
198.9625,4489.0
198.965,4462.0
198.9675,4474.0
198.97,4454.0
198.9725,4433.0
198.975,4448.0
198.9775,4431.0
198.98,4413.0
198.9825,4424.0
198.985,4433.0
198.9875,4416.0
198.99,4400.0
198.9925,4366.0
198.995,4385.0
198.9975,4424.0
199.0,4402.0
199.0025,4374.0
199.005,4383.0
199.0075,4417.0
199.01,4398.0
199.0125,4390.0
199.015,4401.0
199.0175,4399.0
199.02,4412.0
199.0225,4390.0
199.025,4389.0
199.0275,4294.0
199.03,4190.0
199.0325,4078.0
199.035,3989.0
199.0375,3926.0
199.04,3879.0
199.0425,3849.0
199.045,3946.0
199.0475,4082.0
199.05,4175.0
199.0525,4578.0
199.055,5142.0
199.0575,5840.0
199.06,6622.0
199.0625,7195.0
199.065,7649.0
199.0675,7772.0
199.07,7439.0
199.0725,6671.0
199.075,5335.0
199.0775,4427.0
199.08,4191.0
199.0825,4118.0
199.085,4061.0
199.0875,3965.0
199.09,3881.0
199.0925,3811.0
199.095,3788.0
199.0975,3710.0
199.1,3682.0
199.1025,3660.0
199.105,3655.0
199.1075,3620.0
199.11,3618.0
199.1125,3647.0
199.115,3659.0
199.1175,3667.0
199.12,3673.0
199.1225,3677.0
199.125,3689.0
199.1275,3707.0
199.13,3715.0
199.1325,3758.0
199.135,3782.0
199.1375,3793.0
199.14,3791.0
199.1425,3834.0
199.145,3824.0
199.1475,3862.0
199.15,3841.0
199.1525,3874.0
199.155,3905.0
199.1575,3903.0
199.16,3914.0
199.1625,3930.0
199.165,3952.0
199.1675,3926.0
199.17,3963.0
199.1725,3958.0
199.175,3972.0
199.1775,3951.0
199.18,3951.0
199.1825,3985.0
199.185,3995.0
199.1875,3982.0
199.19,3990.0
199.1925,3984.0
199.195,4005.0
199.1975,4005.0
199.2,3994.0
199.2025,3974.0
199.205,3963.0
199.2075,3955.0
199.21,3966.0
199.2125,3975.0
199.215,3969.0
199.2175,3956.0
199.22,3963.0
199.2225,3951.0
199.225,3953.0
199.2275,3960.0
199.23,3954.0
199.2325,3972.0
199.235,3988.0
199.2375,3957.0
199.24,3964.0
199.2425,3943.0
199.245,3932.0
199.2475,3930.0
199.25,3960.0
199.2525,3940.0
199.255,3960.0
199.2575,3920.0
199.26,3922.0
199.2625,3928.0
199.265,3928.0
199.2675,3904.0
199.27,3904.0
199.2725,3935.0
199.275,3969.0
199.2775,3955.0
199.28,3971.0
199.2825,3982.0
199.285,3969.0
199.2875,4017.0
199.29,4038.0
199.2925,4017.0
199.295,4035.0
199.2975,4038.0
199.3,4014.0
199.3025,4039.0
199.305,4073.0
199.3075,4089.0
199.31,4082.0
199.3125,4110.0
199.315,4116.0
199.3175,4132.0
199.32,4159.0
199.3225,4150.0
199.325,4137.0
199.3275,4162.0
199.33,4159.0
199.3325,4123.0
199.335,4127.0
199.3375,4103.0
199.34,4108.0
199.3425,4069.0
199.345,4067.0
199.3475,4074.0
199.35,4071.0
199.3525,4035.0
199.355,4022.0
199.3575,4026.0
199.36,4032.0
199.3625,4008.0
199.365,4020.0
199.3675,4046.0
199.37,4034.0
199.3725,4022.0
199.375,4059.0
199.3775,4044.0
199.38,4033.0
199.3825,4043.0
199.385,4021.0
199.3875,4073.0
199.39,4062.0
199.3925,4059.0
199.395,4076.0
199.3975,4094.0
199.4,4072.0
199.4025,4045.0
199.405,4076.0
199.4075,4120.0
199.41,4102.0
199.4125,4088.0
199.415,4096.0
199.4175,4135.0
199.42,4110.0
199.4225,4129.0
199.425,4122.0
199.4275,4144.0
199.43,4143.0
199.4325,4132.0
199.435,4127.0
199.4375,4144.0
199.44,4137.0
199.4425,4136.0
199.445,4125.0
199.4475,4163.0
199.45,4151.0
199.4525,4147.0
199.455,4162.0
199.4575,4162.0
199.46,4145.0
199.4625,4137.0
199.465,4159.0
199.4675,4174.0
199.47,4171.0
199.4725,4167.0
199.475,4178.0
199.4775,4197.0
199.48,4217.0
199.4825,4180.0
199.485,4209.0
199.4875,4219.0
199.49,4249.0
199.4925,4231.0
199.495,4238.0
199.4975,4242.0
199.5,4230.0
199.5025,4225.0
199.505,4230.0
199.5075,4242.0
199.51,4227.0
199.5125,4275.0
199.515,4273.0
199.5175,4267.0
199.52,4242.0
199.5225,4264.0
199.525,4279.0
199.5275,4296.0
199.53,4298.0
199.5325,4311.0
199.535,4318.0
199.5375,4317.0
199.54,4294.0
199.5425,4322.0
199.545,4350.0
199.5475,4335.0
199.55,4317.0
199.5525,4321.0
199.555,4323.0
199.5575,4329.0
199.56,4323.0
199.5625,4350.0
199.565,4339.0
199.5675,4325.0
199.57,4321.0
199.5725,4323.0
199.575,4342.0
199.5775,4352.0
199.58,4335.0
199.5825,4325.0
199.585,4298.0
199.5875,4306.0
199.59,4299.0
199.5925,4308.0
199.595,4293.0
199.5975,4318.0
199.6,4309.0
199.6025,4311.0
199.605,4288.0
199.6075,4277.0
199.61,4269.0
199.6125,4284.0
199.615,4274.0
199.6175,4297.0
199.62,4291.0
199.6225,4289.0
199.625,4268.0
199.6275,4266.0
199.63,4260.0
199.6325,4231.0
199.635,4236.0
199.6375,4241.0
199.64,4230.0
199.6425,4225.0
199.645,4211.0
199.6475,4219.0
199.65,4195.0
199.6525,4171.0
199.655,4170.0
199.6575,4179.0
199.66,4153.0
199.6625,4170.0
199.665,4168.0
199.6675,4188.0
199.67,4206.0
199.6725,4165.0
199.675,4164.0
199.6775,4175.0
199.68,4192.0
199.6825,4188.0
199.685,4213.0
199.6875,4244.0
199.69,4219.0
199.6925,4207.0
199.695,4192.0
199.6975,4198.0
199.7,4196.0
199.7025,4217.0
199.705,4216.0
199.7075,4231.0
199.71,4230.0
199.7125,4221.0
199.715,4230.0
199.7175,4246.0
199.72,4248.0
199.7225,4208.0
199.725,4203.0
199.7275,4200.0
199.73,4180.0
199.7325,4144.0
199.735,4139.0
199.7375,4158.0
199.74,4146.0
199.7425,4175.0
199.745,4203.0
199.7475,4202.0
199.75,4195.0
199.7525,4181.0
199.755,4176.0
199.7575,4199.0
199.76,4188.0
199.7625,4196.0
199.765,4160.0
199.7675,4176.0
199.77,4157.0
199.7725,4159.0
199.775,4136.0
199.7775,4109.0
199.78,4003.0
199.7825,3839.0
199.785,3708.0
199.7875,3662.0
199.79,3615.0
199.7925,3585.0
199.795,3629.0
199.7975,3805.0
199.8,3928.0
199.8025,4331.0
199.805,4866.0
199.8075,5595.0
199.81,6367.0
199.8125,6939.0
199.815,7380.0
199.8175,7512.0
199.82,7211.0
199.8225,6425.0
199.825,5055.0
199.8275,4155.0
199.83,3847.0
199.8325,3739.0
199.835,3651.0
199.8375,3595.0
199.84,3507.0
199.8425,3443.0
199.845,3447.0
199.8475,3415.0
199.85,3384.0
199.8525,3349.0
199.855,3315.0
199.8575,3338.0
199.86,3313.0
199.8625,3305.0
199.865,3295.0
199.8675,3316.0
199.87,3324.0
199.8725,3329.0
199.875,3332.0
199.8775,3383.0
199.88,3375.0
199.8825,3390.0
199.885,3399.0
199.8875,3390.0
199.89,3420.0
199.8925,3406.0
199.895,3455.0
199.8975,3515.0
199.9,3522.0
199.9025,3515.0
199.905,3531.0
199.9075,3566.0
199.91,3553.0
199.9125,3560.0
199.915,3586.0
199.9175,3617.0
199.92,3627.0
199.9225,3621.0
199.925,3614.0
199.9275,3621.0
199.93,3618.0
199.9325,3641.0
199.935,3624.0
199.9375,3638.0
199.94,3654.0
199.9425,3661.0
199.945,3667.0
199.9475,3690.0
199.95,3694.0
199.9525,3699.0
199.955,3709.0
199.9575,3708.0
199.96,3729.0
199.9625,3730.0
199.965,3738.0
199.9675,3737.0
199.97,3720.0
199.9725,3717.0
199.975,3712.0
199.9775,3709.0
199.98,3688.0
199.9825,3696.0
199.985,3687.0
199.9875,3666.0
199.99,3700.0
199.9925,3708.0
199.995,3708.0
199.9975,3702.0
200.0,3692.0
200.0025,3692.0
200.005,3684.0
200.0075,3700.0
200.01,3699.0
200.0125,3696.0
200.015,3726.0
200.0175,3766.0
200.02,3764.0
200.0225,3764.0
200.025,3778.0
200.0275,3769.0
200.03,3790.0
200.0325,3792.0
200.035,3813.0
200.0375,3856.0
200.04,3860.0
200.0425,3851.0
200.045,3858.0
200.0475,3857.0
200.05,3907.0
200.0525,3914.0
200.055,3910.0
200.0575,3934.0
200.06,3943.0
200.0625,3945.0
200.065,3959.0
200.0675,3978.0
200.07,3996.0
200.0725,3993.0
200.075,3997.0
200.0775,3991.0
200.08,4008.0
200.0825,4006.0
200.085,3983.0
200.0875,3977.0
200.09,3988.0
200.0925,3976.0
200.095,3959.0
200.0975,3992.0
200.1,3975.0
200.1025,3966.0
200.105,3966.0
200.1075,3992.0
200.11,4022.0
200.1125,3988.0
200.115,3989.0
200.1175,4009.0
200.12,4004.0
200.1225,4009.0
200.125,4001.0
200.1275,4039.0
200.13,4047.0
200.1325,4059.0
200.135,4072.0
200.1375,4090.0
200.14,4097.0
200.1425,4091.0
200.145,4107.0
200.1475,4126.0
200.15,4156.0
200.1525,4158.0
200.155,4162.0
200.1575,4188.0
200.16,4161.0
200.1625,4140.0
200.165,4164.0
200.1675,4177.0
200.17,4181.0
200.1725,4191.0
200.175,4199.0
200.1775,4209.0
200.18,4210.0
200.1825,4173.0
200.185,4182.0
200.1875,4199.0
200.19,4194.0
200.1925,4168.0
200.195,4137.0
200.1975,4151.0
200.2,4168.0
200.2025,4153.0
200.205,4131.0
200.2075,4125.0
200.21,4150.0
200.2125,4142.0
200.215,4130.0
200.2175,4142.0
200.22,4147.0
200.2225,4160.0
200.225,4135.0
200.2275,4142.0
200.23,4152.0
200.2325,4141.0
200.235,4160.0
200.2375,4149.0
200.24,4148.0
200.2425,4141.0
200.245,4118.0
200.2475,4139.0
200.25,4162.0
200.2525,4145.0
200.255,4137.0
200.2575,4169.0
200.26,4141.0
200.2625,4148.0
200.265,4144.0
200.2675,4124.0
200.27,4139.0
200.2725,4138.0
200.275,4133.0
200.2775,4140.0
200.28,4135.0
200.2825,4144.0
200.285,4138.0
200.2875,4103.0
200.29,4131.0
200.2925,4138.0
200.295,4146.0
200.2975,4149.0
200.3,4124.0
200.3025,4122.0
200.305,4163.0
200.3075,4150.0
200.31,4139.0
200.3125,4140.0
200.315,4092.0
200.3175,4085.0
200.32,4106.0
200.3225,4111.0
200.325,4115.0
200.3275,4114.0
200.33,4125.0
200.3325,4101.0
200.335,4110.0
200.3375,4111.0
200.34,4109.0
200.3425,4118.0
200.345,4096.0
200.3475,4082.0
200.35,4094.0
200.3525,4091.0
200.355,4060.0
200.3575,4059.0
200.36,4042.0
200.3625,4027.0
200.365,4026.0
200.3675,4010.0
200.37,4016.0
200.3725,4025.0
200.375,4009.0
200.3775,3978.0
200.38,3988.0
200.3825,3994.0
200.385,3969.0
200.3875,3955.0
200.39,3935.0
200.3925,3908.0
200.395,3920.0
200.3975,3894.0
200.4,3869.0
200.4025,3897.0
200.405,3891.0
200.4075,3869.0
200.41,3876.0
200.4125,3847.0
200.415,3852.0
200.4175,3863.0
200.42,3856.0
200.4225,3879.0
200.425,3829.0
200.4275,3845.0
200.43,3872.0
200.4325,3852.0
200.435,3855.0
200.4375,3874.0
200.44,3854.0
200.4425,3816.0
200.445,3802.0
200.4475,3782.0
200.45,3808.0
200.4525,3818.0
200.455,3814.0
200.4575,3832.0
200.46,3846.0
200.4625,3856.0
200.465,3861.0
200.4675,3856.0
200.47,3859.0
200.4725,3832.0
200.475,3848.0
200.4775,3859.0
200.48,3881.0
200.4825,3839.0
200.485,3879.0
200.4875,3879.0
200.49,3872.0
200.4925,3867.0
200.495,3824.0
200.4975,3843.0
200.5,3881.0
200.5025,3874.0
200.505,3867.0
200.5075,3865.0
200.51,3864.0
200.5125,3887.0
200.515,3871.0
200.5175,3873.0
200.52,3852.0
200.5225,3831.0
200.525,3792.0
200.5275,3702.0
200.53,3604.0
200.5325,3516.0
200.535,3431.0
200.5375,3387.0
200.54,3409.0
200.5425,3492.0
200.545,3559.0
200.5475,3675.0
200.55,3922.0
200.5525,4303.0
200.555,4827.0
200.5575,5552.0
200.56,6167.0
200.5625,6590.0
200.565,6772.0
200.5675,6436.0
200.57,5697.0
200.5725,4535.0
200.575,3866.0
200.5775,3717.0
200.58,3603.0
200.5825,3553.0
200.585,3455.0
200.5875,3384.0
200.59,3351.0
200.5925,3298.0
200.595,3245.0
200.5975,3230.0
200.6,3210.0
200.6025,3200.0
200.605,3178.0
200.6075,3164.0
200.61,3178.0
200.6125,3167.0
200.615,3201.0
200.6175,3207.0
200.62,3218.0
200.6225,3242.0
200.625,3246.0
200.6275,3242.0
200.63,3250.0
200.6325,3265.0
200.635,3272.0
200.6375,3304.0
200.64,3340.0
200.6425,3362.0
200.645,3383.0
200.6475,3409.0
200.65,3394.0
200.6525,3427.0
200.655,3438.0
200.6575,3437.0
200.66,3450.0
200.6625,3485.0
200.665,3485.0
200.6675,3476.0
200.67,3503.0
200.6725,3520.0
200.675,3549.0
200.6775,3593.0
200.68,3575.0
200.6825,3558.0
200.685,3539.0
200.6875,3535.0
200.69,3540.0
200.6925,3549.0
200.695,3528.0
200.6975,3553.0
200.7,3548.0
200.7025,3536.0
200.705,3559.0
200.7075,3583.0
200.71,3564.0
200.7125,3546.0
200.715,3612.0
200.7175,3607.0
200.72,3637.0
200.7225,3627.0
200.725,3621.0
200.7275,3651.0
200.73,3652.0
200.7325,3672.0
200.735,3638.0
200.7375,3652.0
200.74,3643.0
200.7425,3640.0
200.745,3647.0
200.7475,3671.0
200.75,3676.0
200.7525,3670.0
200.755,3654.0
200.7575,3648.0
200.76,3643.0
200.7625,3631.0
200.765,3629.0
200.7675,3611.0
200.77,3613.0
200.7725,3619.0
200.775,3661.0
200.7775,3651.0
200.78,3639.0
200.7825,3631.0
200.785,3629.0
200.7875,3629.0
200.79,3647.0
200.7925,3659.0
200.795,3664.0
200.7975,3695.0
200.8,3736.0
200.8025,3716.0
200.805,3725.0
200.8075,3716.0
200.81,3735.0
200.8125,3737.0
200.815,3742.0
200.8175,3730.0
200.82,3727.0
200.8225,3727.0
200.825,3704.0
200.8275,3706.0
200.83,3688.0
200.8325,3635.0
200.835,3657.0
200.8375,3655.0
200.84,3655.0
200.8425,3619.0
200.845,3625.0
200.8475,3598.0
200.85,3631.0
200.8525,3657.0
200.855,3639.0
200.8575,3631.0
200.86,3617.0
200.8625,3639.0
200.865,3661.0
200.8675,3677.0
200.87,3674.0
200.8725,3653.0
200.875,3683.0
200.8775,3676.0
200.88,3706.0
200.8825,3675.0
200.885,3674.0
200.8875,3704.0
200.89,3719.0
200.8925,3727.0
200.895,3725.0
200.8975,3714.0
200.9,3722.0
200.9025,3769.0
200.905,3755.0
200.9075,3713.0
200.91,3719.0
200.9125,3725.0
200.915,3731.0
200.9175,3758.0
200.92,3726.0
200.9225,3743.0
200.925,3710.0
200.9275,3716.0
200.93,3707.0
200.9325,3715.0
200.935,3725.0
200.9375,3708.0
200.94,3681.0
200.9425,3683.0
200.945,3688.0
200.9475,3690.0
200.95,3700.0
200.9525,3707.0
200.955,3688.0
200.9575,3668.0
200.96,3696.0
200.9625,3685.0
200.965,3638.0
200.9675,3621.0
200.97,3632.0
200.9725,3644.0
200.975,3638.0
200.9775,3630.0
200.98,3621.0
200.9825,3624.0
200.985,3594.0
200.9875,3608.0
200.99,3603.0
200.9925,3581.0
200.995,3575.0
200.9975,3536.0
201.0,3541.0
201.0025,3546.0
201.005,3545.0
201.0075,3526.0
201.01,3532.0
201.0125,3547.0
201.015,3538.0
201.0175,3537.0
201.02,3530.0
201.0225,3484.0
201.025,3485.0
201.0275,3514.0
201.03,3515.0
201.0325,3504.0
201.035,3525.0
201.0375,3529.0
201.04,3511.0
201.0425,3529.0
201.045,3500.0
201.0475,3509.0
201.05,3481.0
201.0525,3508.0
201.055,3502.0
201.0575,3506.0
201.06,3485.0
201.0625,3464.0
201.065,3462.0
201.0675,3475.0
201.07,3480.0
201.0725,3475.0
201.075,3473.0
201.0775,3476.0
201.08,3472.0
201.0825,3443.0
201.085,3446.0
201.0875,3460.0
201.09,3441.0
201.0925,3452.0
201.095,3461.0
201.0975,3451.0
201.1,3463.0
201.1025,3445.0
201.105,3431.0
201.1075,3420.0
201.11,3407.0
201.1125,3421.0
201.115,3420.0
201.1175,3430.0
201.12,3403.0
201.1225,3431.0
201.125,3371.0
201.1275,3402.0
201.13,3395.0
201.1325,3415.0
201.135,3382.0
201.1375,3399.0
201.14,3383.0
201.1425,3356.0
201.145,3371.0
201.1475,3373.0
201.15,3359.0
201.1525,3378.0
201.155,3375.0
201.1575,3405.0
201.16,3404.0
201.1625,3419.0
201.165,3413.0
201.1675,3427.0
201.17,3430.0
201.1725,3419.0
201.175,3407.0
201.1775,3389.0
201.18,3397.0
201.1825,3380.0
201.185,3375.0
201.1875,3351.0
201.19,3322.0
201.1925,3343.0
201.195,3364.0
201.1975,3390.0
201.2,3394.0
201.2025,3401.0
201.205,3389.0
201.2075,3367.0
201.21,3394.0
201.2125,3393.0
201.215,3428.0
201.2175,3429.0
201.22,3438.0
201.2225,3422.0
201.225,3438.0
201.2275,3448.0
201.23,3437.0
201.2325,3443.0
201.235,3445.0
201.2375,3442.0
201.24,3441.0
201.2425,3466.0
201.245,3462.0
201.2475,3460.0
201.25,3477.0
201.2525,3494.0
201.255,3508.0
201.2575,3512.0
201.26,3500.0
201.2625,3496.0
201.265,3500.0
201.2675,3501.0
201.27,3501.0
201.2725,3521.0
201.275,3506.0
201.2775,3502.0
201.28,3530.0
201.2825,3539.0
201.285,3511.0
201.2875,3530.0
201.29,3530.0
201.2925,3525.0
201.295,3535.0
201.2975,3513.0
201.3,3533.0
201.3025,3569.0
201.305,3549.0
201.3075,3505.0
201.31,3438.0
201.3125,3364.0
201.315,3268.0
201.3175,3214.0
201.32,3192.0
201.3225,3154.0
201.325,3208.0
201.3275,3273.0
201.33,3352.0
201.3325,3433.0
201.335,3642.0
201.3375,3967.0
201.34,4489.0
201.3425,5130.0
201.345,5602.0
201.3475,5979.0
201.35,5919.0
201.3525,5586.0
201.355,4702.0
201.3575,3865.0
201.36,3512.0
201.3625,3427.0
201.365,3363.0
201.3675,3275.0
201.37,3205.0
201.3725,3145.0
201.375,3082.0
201.3775,3078.0
201.38,3051.0
201.3825,3054.0
201.385,3013.0
201.3875,3002.0
201.39,3019.0
201.3925,3042.0
201.395,3013.0
201.3975,3007.0
201.4,2995.0
201.4025,3044.0
201.405,3067.0
201.4075,3081.0
201.41,3137.0
201.4125,3163.0
201.415,3169.0
201.4175,3187.0
201.42,3220.0
201.4225,3217.0
201.425,3235.0
201.4275,3267.0
201.43,3313.0
201.4325,3373.0
201.435,3391.0
201.4375,3425.0
201.44,3421.0
201.4425,3432.0
201.445,3461.0
201.4475,3500.0
201.45,3504.0
201.4525,3533.0
201.455,3545.0
201.4575,3549.0
201.46,3564.0
201.4625,3580.0
201.465,3595.0
201.4675,3596.0
201.47,3617.0
201.4725,3635.0
201.475,3624.0
201.4775,3644.0
201.48,3664.0
201.4825,3699.0
201.485,3697.0
201.4875,3724.0
201.49,3752.0
201.4925,3756.0
201.495,3736.0
201.4975,3754.0
201.5,3800.0
201.5025,3820.0
201.505,3851.0
201.5075,3864.0
201.51,3836.0
201.5125,3855.0
201.515,3868.0
201.5175,3887.0
201.52,3886.0
201.5225,3884.0
201.525,3910.0
201.5275,3931.0
201.53,3946.0
201.5325,3940.0
201.535,3949.0
201.5375,3966.0
201.54,3965.0
201.5425,3971.0
201.545,3992.0
201.5475,3986.0
201.55,3995.0
201.5525,4005.0
201.555,4027.0
201.5575,4021.0
201.56,4042.0
201.5625,4065.0
201.565,4086.0
201.5675,4096.0
201.57,4070.0
201.5725,4039.0
201.575,4054.0
201.5775,4051.0
201.58,4064.0
201.5825,4065.0
201.585,4042.0
201.5875,4081.0
201.59,4086.0
201.5925,4110.0
201.595,4139.0
201.5975,4133.0
201.6,4110.0
201.6025,4148.0
201.605,4159.0
201.6075,4160.0
201.61,4163.0
201.6125,4170.0
201.615,4156.0
201.6175,4150.0
201.62,4147.0
201.6225,4146.0
201.625,4133.0
201.6275,4127.0
201.63,4109.0
201.6325,4104.0
201.635,4120.0
201.6375,4111.0
201.64,4112.0
201.6425,4136.0
201.645,4126.0
201.6475,4144.0
201.65,4148.0
201.6525,4157.0
201.655,4172.0
201.6575,4201.0
201.66,4190.0
201.6625,4217.0
201.665,4237.0
201.6675,4228.0
201.67,4221.0
201.6725,4244.0
201.675,4258.0
201.6775,4284.0
201.68,4302.0
201.6825,4315.0
201.685,4328.0
201.6875,4309.0
201.69,4348.0
201.6925,4331.0
201.695,4374.0
201.6975,4348.0
201.7,4330.0
201.7025,4345.0
201.705,4352.0
201.7075,4384.0
201.71,4373.0
201.7125,4372.0
201.715,4393.0
201.7175,4413.0
201.72,4426.0
201.7225,4443.0
201.725,4485.0
201.7275,4470.0
201.73,4472.0
201.7325,4514.0
201.735,4478.0
201.7375,4469.0
201.74,4484.0
201.7425,4487.0
201.745,4511.0
201.7475,4503.0
201.75,4488.0
201.7525,4532.0
201.755,4540.0
201.7575,4580.0
201.76,4606.0
201.7625,4604.0
201.765,4594.0
201.7675,4637.0
201.77,4674.0
201.7725,4710.0
201.775,4700.0
201.7775,4729.0
201.78,4740.0
201.7825,4761.0
201.785,4796.0
201.7875,4838.0
201.79,4858.0
201.7925,4911.0
201.795,4930.0
201.7975,4914.0
201.8,4934.0
201.8025,4968.0
201.805,4944.0
201.8075,4952.0
201.81,4981.0
201.8125,4993.0
201.815,4983.0
201.8175,5002.0
201.82,5008.0
201.8225,4994.0
201.825,4980.0
201.8275,4956.0
201.83,4977.0
201.8325,4989.0
201.835,4979.0
201.8375,4958.0
201.84,4987.0
201.8425,5001.0
201.845,4988.0
201.8475,4988.0
201.85,4972.0
201.8525,4983.0
201.855,4970.0
201.8575,4967.0
201.86,4992.0
201.8625,4976.0
201.865,5017.0
201.8675,4991.0
201.87,5003.0
201.8725,4994.0
201.875,4993.0
201.8775,4972.0
201.88,4990.0
201.8825,4997.0
201.885,4993.0
201.8875,4994.0
201.89,4984.0
201.8925,4967.0
201.895,4973.0
201.8975,4973.0
201.9,4969.0
201.9025,4969.0
201.905,4940.0
201.9075,4968.0
201.91,4953.0
201.9125,4956.0
201.915,4938.0
201.9175,4917.0
201.92,4882.0
201.9225,4860.0
201.925,4858.0
201.9275,4869.0
201.93,4859.0
201.9325,4868.0
201.935,4839.0
201.9375,4865.0
201.94,4860.0
201.9425,4862.0
201.945,4856.0
201.9475,4861.0
201.95,4846.0
201.9525,4867.0
201.955,4848.0
201.9575,4855.0
201.96,4857.0
201.9625,4875.0
201.965,4880.0
201.9675,4871.0
201.97,4872.0
201.9725,4841.0
201.975,4861.0
201.9775,4840.0
201.98,4862.0
201.9825,4849.0
201.985,4852.0
201.9875,4873.0
201.99,4850.0
201.9925,4846.0
201.995,4852.0
201.9975,4841.0
202.0,4799.0
202.0025,4845.0
202.005,4836.0
202.0075,4835.0
202.01,4820.0
202.0125,4820.0
202.015,4848.0
202.0175,4838.0
202.02,4829.0
202.0225,4857.0
202.025,4873.0
202.0275,4837.0
202.03,4823.0
202.0325,4815.0
202.035,4809.0
202.0375,4823.0
202.04,4821.0
202.0425,4803.0
202.045,4784.0
202.0475,4796.0
202.05,4781.0
202.0525,4778.0
202.055,4759.0
202.0575,4689.0
202.06,4570.0
202.0625,4472.0
202.065,4350.0
202.0675,4335.0
202.07,4333.0
202.0725,4367.0
202.075,4453.0
202.0775,4523.0
202.08,4633.0
202.0825,4834.0
202.085,5122.0
202.0875,5646.0
202.09,6267.0
202.0925,6871.0
202.095,7202.0
202.0975,7125.0
202.1,6696.0
202.1025,5723.0
202.105,4957.0
202.1075,4701.0
202.11,4618.0
202.1125,4535.0
202.115,4478.0
202.1175,4408.0
202.12,4322.0
202.1225,4262.0
202.125,4205.0
202.1275,4171.0
202.13,4159.0
202.1325,4111.0
202.135,4110.0
202.1375,4089.0
202.14,4103.0
202.1425,4125.0
202.145,4123.0
202.1475,4093.0
202.15,4075.0
202.1525,4103.0
202.155,4127.0
202.1575,4136.0
202.16,4185.0
202.1625,4171.0
202.165,4187.0
202.1675,4186.0
202.17,4229.0
202.1725,4215.0
202.175,4208.0
202.1775,4187.0
202.18,4176.0
202.1825,4218.0
202.185,4234.0
202.1875,4258.0
202.19,4278.0
202.1925,4260.0
202.195,4291.0
202.1975,4297.0
202.2,4308.0
202.2025,4290.0
202.205,4299.0
202.2075,4326.0
202.21,4310.0
202.2125,4320.0
202.215,4314.0
202.2175,4305.0
202.22,4306.0
202.2225,4317.0
202.225,4328.0
202.2275,4346.0
202.23,4369.0
202.2325,4350.0
202.235,4359.0
202.2375,4365.0
202.24,4355.0
202.2425,4362.0
202.245,4350.0
202.2475,4322.0
202.25,4331.0
202.2525,4334.0
202.255,4326.0
202.2575,4298.0
202.26,4296.0
202.2625,4270.0
202.265,4264.0
202.2675,4237.0
202.27,4221.0
202.2725,4213.0
202.275,4218.0
202.2775,4229.0
202.28,4227.0
202.2825,4250.0
202.285,4217.0
202.2875,4242.0
202.29,4240.0
202.2925,4258.0
202.295,4245.0
202.2975,4269.0
202.3,4278.0
202.3025,4268.0
202.305,4290.0
202.3075,4288.0
202.31,4268.0
202.3125,4259.0
202.315,4279.0
202.3175,4292.0
202.32,4274.0
202.3225,4315.0
202.325,4320.0
202.3275,4310.0
202.33,4273.0
202.3325,4300.0
202.335,4290.0
202.3375,4284.0
202.34,4292.0
202.3425,4296.0
202.345,4292.0
202.3475,4299.0
202.35,4305.0
202.3525,4291.0
202.355,4308.0
202.3575,4296.0
202.36,4275.0
202.3625,4242.0
202.365,4208.0
202.3675,4225.0
202.37,4191.0
202.3725,4172.0
202.375,4152.0
202.3775,4139.0
202.38,4111.0
202.3825,4095.0
202.385,4105.0
202.3875,4077.0
202.39,4083.0
202.3925,4046.0
202.395,4044.0
202.3975,4060.0
202.4,4051.0
202.4025,4044.0
202.405,4018.0
202.4075,3995.0
202.41,3982.0
202.4125,4012.0
202.415,4030.0
202.4175,4029.0
202.42,4033.0
202.4225,4059.0
202.425,4064.0
202.4275,4106.0
202.43,4104.0
202.4325,4118.0
202.435,4115.0
202.4375,4126.0
202.44,4119.0
202.4425,4154.0
202.445,4140.0
202.4475,4148.0
202.45,4148.0
202.4525,4139.0
202.455,4178.0
202.4575,4163.0
202.46,4202.0
202.4625,4192.0
202.465,4164.0
202.4675,4167.0
202.47,4179.0
202.4725,4189.0
202.475,4184.0
202.4775,4196.0
202.48,4200.0
202.4825,4194.0
202.485,4196.0
202.4875,4178.0
202.49,4195.0
202.4925,4216.0
202.495,4225.0
202.4975,4247.0
202.5,4226.0
202.5025,4230.0
202.505,4227.0
202.5075,4226.0
202.51,4216.0
202.5125,4237.0
202.515,4227.0
202.5175,4216.0
202.52,4228.0
202.5225,4241.0
202.525,4254.0
202.5275,4259.0
202.53,4268.0
202.5325,4255.0
202.535,4243.0
202.5375,4243.0
202.54,4252.0
202.5425,4263.0
202.545,4242.0
202.5475,4253.0
202.55,4233.0
202.5525,4246.0
202.555,4261.0
202.5575,4269.0
202.56,4240.0
202.5625,4231.0
202.565,4237.0
202.5675,4223.0
202.57,4240.0
202.5725,4253.0
202.575,4254.0
202.5775,4251.0
202.58,4227.0
202.5825,4233.0
202.585,4235.0
202.5875,4263.0
202.59,4236.0
202.5925,4212.0
202.595,4218.0
202.5975,4222.0
202.6,4186.0
202.6025,4208.0
202.605,4208.0
202.6075,4197.0
202.61,4178.0
202.6125,4163.0
202.615,4184.0
202.6175,4178.0
202.62,4180.0
202.6225,4190.0
202.625,4227.0
202.6275,4186.0
202.63,4197.0
202.6325,4183.0
202.635,4188.0
202.6375,4184.0
202.64,4204.0
202.6425,4182.0
202.645,4197.0
202.6475,4226.0
202.65,4222.0
202.6525,4223.0
202.655,4221.0
202.6575,4194.0
202.66,4158.0
202.6625,4156.0
202.665,4162.0
202.6675,4182.0
202.67,4178.0
202.6725,4175.0
202.675,4165.0
202.6775,4161.0
202.68,4137.0
202.6825,4151.0
202.685,4140.0
202.6875,4163.0
202.69,4162.0
202.6925,4162.0
202.695,4155.0
202.6975,4159.0
202.7,4142.0
202.7025,4162.0
202.705,4173.0
202.7075,4143.0
202.71,4157.0
202.7125,4173.0
202.715,4169.0
202.7175,4142.0
202.72,4163.0
202.7225,4144.0
202.725,4141.0
202.7275,4127.0
202.73,4109.0
202.7325,4098.0
202.735,4079.0
202.7375,4088.0
202.74,4119.0
202.7425,4133.0
202.745,4118.0
202.7475,4104.0
202.75,4079.0
202.7525,4079.0
202.755,4070.0
202.7575,4113.0
202.76,4095.0
202.7625,4117.0
202.765,4120.0
202.7675,4115.0
202.77,4113.0
202.7725,4114.0
202.775,4088.0
202.7775,4115.0
202.78,4085.0
202.7825,4108.0
202.785,4131.0
202.7875,4121.0
202.79,4126.0
202.7925,4143.0
202.795,4117.0
202.7975,4130.0
202.8,4148.0
202.8025,4130.0
202.805,4144.0
202.8075,4136.0
202.81,4119.0
202.8125,4101.0
202.815,4153.0
202.8175,4143.0
202.82,4109.0
202.8225,4101.0
202.825,4091.0
202.8275,4098.0
202.83,4123.0
202.8325,4117.0
202.835,4114.0
202.8375,4109.0
202.84,4118.0
202.8425,4132.0
202.845,4137.0
202.8475,4087.0
202.85,4079.0
202.8525,4008.0
202.855,3927.0
202.8575,3844.0
202.86,3768.0
202.8625,3766.0
202.865,3758.0
202.8675,3770.0
202.87,3867.0
202.8725,3914.0
202.875,3988.0
202.8775,4176.0
202.88,4503.0
202.8825,5006.0
202.885,5650.0
202.8875,6275.0
202.89,6691.0
202.8925,6773.0
202.895,6425.0
202.8975,5694.0
202.9,4719.0
202.9025,4174.0
202.905,4060.0
202.9075,3992.0
202.91,3931.0
202.9125,3870.0
202.915,3814.0
202.9175,3747.0
202.92,3678.0
202.9225,3670.0
202.925,3638.0
202.9275,3588.0
202.93,3597.0
202.9325,3597.0
202.935,3590.0
202.9375,3615.0
202.94,3626.0
202.9425,3630.0
202.945,3626.0
202.9475,3666.0
202.95,3649.0
202.9525,3675.0
202.955,3708.0
202.9575,3705.0
202.96,3698.0
202.9625,3709.0
202.965,3722.0
202.9675,3731.0
202.97,3753.0
202.9725,3772.0
202.975,3756.0
202.9775,3764.0
202.98,3811.0
202.9825,3799.0
202.985,3787.0
202.9875,3811.0
202.99,3849.0
202.9925,3856.0
202.995,3876.0
202.9975,3862.0
203.0,3873.0
203.0025,3892.0
203.005,3916.0
203.0075,3948.0
203.01,3929.0
203.0125,3961.0
203.015,3944.0
203.0175,3967.0
203.02,3950.0
203.0225,3961.0
203.025,3967.0
203.0275,3972.0
203.03,3988.0
203.0325,3996.0
203.035,3989.0
203.0375,3985.0
203.04,3997.0
203.0425,3991.0
203.045,4011.0
203.0475,4016.0
203.05,4035.0
203.0525,4031.0
203.055,4038.0
203.0575,4089.0
203.06,4094.0
203.0625,4122.0
203.065,4138.0
203.0675,4127.0
203.07,4137.0
203.0725,4176.0
203.075,4214.0
203.0775,4240.0
203.08,4242.0
203.0825,4263.0
203.085,4287.0
203.0875,4284.0
203.09,4313.0
203.0925,4325.0
203.095,4346.0
203.0975,4362.0
203.1,4371.0
203.1025,4377.0
203.105,4413.0
203.1075,4444.0
203.11,4440.0
203.1125,4487.0
203.115,4501.0
203.1175,4521.0
203.12,4505.0
203.1225,4520.0
203.125,4534.0
203.1275,4529.0
203.13,4523.0
203.1325,4547.0
203.135,4567.0
203.1375,4586.0
203.14,4588.0
203.1425,4571.0
203.145,4600.0
203.1475,4603.0
203.15,4616.0
203.1525,4574.0
203.155,4575.0
203.1575,4571.0
203.16,4552.0
203.1625,4530.0
203.165,4481.0
203.1675,4467.0
203.17,4464.0
203.1725,4462.0
203.175,4416.0
203.1775,4393.0
203.18,4415.0
203.1825,4406.0
203.185,4420.0
203.1875,4392.0
203.19,4383.0
203.1925,4390.0
203.195,4369.0
203.1975,4380.0
203.2,4378.0
203.2025,4394.0
203.205,4413.0
203.2075,4394.0
203.21,4402.0
203.2125,4413.0
203.215,4435.0
203.2175,4420.0
203.22,4441.0
203.2225,4435.0
203.225,4424.0
203.2275,4426.0
203.23,4421.0
203.2325,4420.0
203.235,4459.0
203.2375,4424.0
203.24,4417.0
203.2425,4405.0
203.245,4410.0
203.2475,4392.0
203.25,4387.0
203.2525,4425.0
203.255,4427.0
203.2575,4441.0
203.26,4425.0
203.2625,4418.0
203.265,4433.0
203.2675,4427.0
203.27,4435.0
203.2725,4483.0
203.275,4501.0
203.2775,4506.0
203.28,4505.0
203.2825,4500.0
203.285,4493.0
203.2875,4512.0
203.29,4511.0
203.2925,4506.0
203.295,4520.0
203.2975,4553.0
203.3,4546.0
203.3025,4575.0
203.305,4578.0
203.3075,4606.0
203.31,4613.0
203.3125,4610.0
203.315,4613.0
203.3175,4611.0
203.32,4636.0
203.3225,4675.0
203.325,4698.0
203.3275,4697.0
203.33,4722.0
203.3325,4753.0
203.335,4784.0
203.3375,4783.0
203.34,4782.0
203.3425,4790.0
203.345,4851.0
203.3475,4830.0
203.35,4855.0
203.3525,4810.0
203.355,4858.0
203.3575,4888.0
203.36,4859.0
203.3625,4862.0
203.365,4849.0
203.3675,4839.0
203.37,4851.0
203.3725,4887.0
203.375,4861.0
203.3775,4861.0
203.38,4863.0
203.3825,4866.0
203.385,4864.0
203.3875,4877.0
203.39,4880.0
203.3925,4863.0
203.395,4859.0
203.3975,4845.0
203.4,4839.0
203.4025,4806.0
203.405,4827.0
203.4075,4815.0
203.41,4841.0
203.4125,4857.0
203.415,4848.0
203.4175,4835.0
203.42,4819.0
203.4225,4803.0
203.425,4792.0
203.4275,4794.0
203.43,4815.0
203.4325,4833.0
203.435,4794.0
203.4375,4774.0
203.44,4771.0
203.4425,4771.0
203.445,4769.0
203.4475,4759.0
203.45,4739.0
203.4525,4723.0
203.455,4735.0
203.4575,4735.0
203.46,4750.0
203.4625,4743.0
203.465,4718.0
203.4675,4699.0
203.47,4713.0
203.4725,4697.0
203.475,4697.0
203.4775,4686.0
203.48,4691.0
203.4825,4666.0
203.485,4682.0
203.4875,4628.0
203.49,4626.0
203.4925,4611.0
203.495,4643.0
203.4975,4607.0
203.5,4603.0
203.5025,4606.0
203.505,4582.0
203.5075,4546.0
203.51,4536.0
203.5125,4535.0
203.515,4531.0
203.5175,4532.0
203.52,4520.0
203.5225,4518.0
203.525,4491.0
203.5275,4492.0
203.53,4479.0
203.5325,4459.0
203.535,4412.0
203.5375,4392.0
203.54,4411.0
203.5425,4435.0
203.545,4449.0
203.5475,4424.0
203.55,4402.0
203.5525,4387.0
203.555,4376.0
203.5575,4403.0
203.56,4379.0
203.5625,4418.0
203.565,4381.0
203.5675,4383.0
203.57,4353.0
203.5725,4368.0
203.575,4357.0
203.5775,4365.0
203.58,4343.0
203.5825,4344.0
203.585,4343.0
203.5875,4330.0
203.59,4324.0
203.5925,4312.0
203.595,4329.0
203.5975,4305.0
203.6,4295.0
203.6025,4296.0
203.605,4314.0
203.6075,4320.0
203.61,4251.0
203.6125,4250.0
203.615,4273.0
203.6175,4274.0
203.62,4276.0
203.6225,4286.0
203.625,4260.0
203.6275,4255.0
203.63,4270.0
203.6325,4293.0
203.635,4254.0
203.6375,4246.0
203.64,4226.0
203.6425,4257.0
203.645,4277.0
203.6475,4244.0
203.65,4234.0
203.6525,4204.0
203.655,4202.0
203.6575,4169.0
203.66,4169.0
203.6625,4194.0
203.665,4184.0
203.6675,4193.0
203.67,4182.0
203.6725,4198.0
203.675,4210.0
203.6775,4218.0
203.68,4188.0
203.6825,4176.0
203.685,4134.0
203.6875,4050.0
203.69,3970.0
203.6925,3881.0
203.695,3779.0
203.6975,3784.0
203.7,3828.0
203.7025,3888.0
203.705,3946.0
203.7075,4018.0
203.71,4186.0
203.7125,4496.0
203.715,5011.0
203.7175,5675.0
203.72,6325.0
203.7225,6792.0
203.725,7087.0
203.7275,6830.0
203.73,6297.0
203.7325,5174.0
203.735,4307.0
203.7375,4026.0
203.74,3981.0
203.7425,3914.0
203.745,3882.0
203.7475,3789.0
203.75,3711.0
203.7525,3692.0
203.755,3627.0
203.7575,3609.0
203.76,3567.0
203.7625,3532.0
203.765,3547.0
203.7675,3552.0
203.77,3564.0
203.7725,3537.0
203.775,3555.0
203.7775,3561.0
203.78,3595.0
203.7825,3623.0
203.785,3626.0
203.7875,3650.0
203.79,3646.0
203.7925,3663.0
203.795,3693.0
203.7975,3723.0
203.8,3731.0
203.8025,3752.0
203.805,3766.0
203.8075,3767.0
203.81,3775.0
203.8125,3755.0
203.815,3794.0
203.8175,3817.0
203.82,3816.0
203.8225,3798.0
203.825,3844.0
203.8275,3824.0
203.83,3819.0
203.8325,3820.0
203.835,3824.0
203.8375,3835.0
203.84,3838.0
203.8425,3821.0
203.845,3839.0
203.8475,3868.0
203.85,3886.0
203.8525,3884.0
203.855,3889.0
203.8575,3902.0
203.86,3900.0
203.8625,3907.0
203.865,3939.0
203.8675,3952.0
203.87,3952.0
203.8725,3940.0
203.875,3938.0
203.8775,3967.0
203.88,3953.0
203.8825,3959.0
203.885,3962.0
203.8875,3955.0
203.89,3956.0
203.8925,3965.0
203.895,3937.0
203.8975,3968.0
203.9,3943.0
203.9025,3961.0
203.905,3974.0
203.9075,3959.0
203.91,3950.0
203.9125,3942.0
203.915,3952.0
203.9175,3927.0
203.92,3971.0
203.9225,3967.0
203.925,3956.0
203.9275,3964.0
203.93,3965.0
203.9325,3954.0
203.935,3927.0
203.9375,3950.0
203.94,3937.0
203.9425,3954.0
203.945,3962.0
203.9475,3973.0
203.95,3967.0
203.9525,4011.0
203.955,4069.0
203.9575,4086.0
203.96,4114.0
203.9625,4108.0
203.965,4147.0
203.9675,4174.0
203.97,4195.0
203.9725,4198.0
203.975,4245.0
203.9775,4290.0
203.98,4301.0
203.9825,4317.0
203.985,4335.0
203.9875,4331.0
203.99,4347.0
203.9925,4381.0
203.995,4377.0
203.9975,4375.0
204.0,4362.0
204.0025,4385.0
204.005,4371.0
204.0075,4380.0
204.01,4393.0
204.0125,4390.0
204.015,4396.0
204.0175,4395.0
204.02,4398.0
204.0225,4379.0
204.025,4401.0
204.0275,4408.0
204.03,4416.0
204.0325,4427.0
204.035,4477.0
204.0375,4494.0
204.04,4513.0
204.0425,4492.0
204.045,4522.0
204.0475,4551.0
204.05,4565.0
204.0525,4590.0
204.055,4621.0
204.0575,4617.0
204.06,4614.0
204.0625,4614.0
204.065,4646.0
204.0675,4654.0
204.07,4643.0
204.0725,4654.0
204.075,4657.0
204.0775,4630.0
204.08,4620.0
204.0825,4650.0
204.085,4652.0
204.0875,4648.0
204.09,4637.0
204.0925,4600.0
204.095,4592.0
204.0975,4615.0
204.1,4594.0
204.1025,4599.0
204.105,4633.0
204.1075,4613.0
204.11,4613.0
204.1125,4621.0
204.115,4622.0
204.1175,4643.0
204.12,4624.0
204.1225,4658.0
204.125,4661.0
204.1275,4672.0
204.13,4629.0
204.1325,4634.0
204.135,4647.0
204.1375,4666.0
204.14,4677.0
204.1425,4669.0
204.145,4688.0
204.1475,4677.0
204.15,4671.0
204.1525,4697.0
204.155,4682.0
204.1575,4672.0
204.16,4659.0
204.1625,4654.0
204.165,4657.0
204.1675,4649.0
204.17,4646.0
204.1725,4652.0
204.175,4635.0
204.1775,4636.0
204.18,4630.0
204.1825,4659.0
204.185,4648.0
204.1875,4642.0
204.19,4646.0
204.1925,4675.0
204.195,4653.0
204.1975,4656.0
204.2,4620.0
204.2025,4619.0
204.205,4611.0
204.2075,4635.0
204.21,4640.0
204.2125,4643.0
204.215,4660.0
204.2175,4641.0
204.22,4623.0
204.2225,4615.0
204.225,4586.0
204.2275,4594.0
204.23,4594.0
204.2325,4552.0
204.235,4558.0
204.2375,4582.0
204.24,4540.0
204.2425,4537.0
204.245,4535.0
204.2475,4512.0
204.25,4490.0
204.2525,4501.0
204.255,4480.0
204.2575,4488.0
204.26,4482.0
204.2625,4476.0
204.265,4492.0
204.2675,4493.0
204.27,4500.0
204.2725,4481.0
204.275,4457.0
204.2775,4474.0
204.28,4429.0
204.2825,4429.0
204.285,4424.0
204.2875,4402.0
204.29,4416.0
204.2925,4402.0
204.295,4430.0
204.2975,4408.0
204.3,4422.0
204.3025,4389.0
204.305,4391.0
204.3075,4388.0
204.31,4328.0
204.3125,4344.0
204.315,4346.0
204.3175,4341.0
204.32,4316.0
204.3225,4334.0
204.325,4308.0
204.3275,4289.0
204.33,4314.0
204.3325,4277.0
204.335,4272.0
204.3375,4251.0
204.34,4231.0
204.3425,4214.0
204.345,4190.0
204.3475,4156.0
204.35,4150.0
204.3525,4149.0
204.355,4140.0
204.3575,4126.0
204.36,4156.0
204.3625,4154.0
204.365,4143.0
204.3675,4137.0
204.37,4153.0
204.3725,4144.0
204.375,4102.0
204.3775,4086.0
204.38,4064.0
204.3825,4078.0
204.385,4060.0
204.3875,4048.0
204.39,4038.0
204.3925,4030.0
204.395,4050.0
204.3975,4056.0
204.4,4027.0
204.4025,4043.0
204.405,4030.0
204.4075,3999.0
204.41,4014.0
204.4125,3987.0
204.415,3988.0
204.4175,3991.0
204.42,4004.0
204.4225,3964.0
204.425,3949.0
204.4275,3958.0
204.43,3978.0
204.4325,3980.0
204.435,3980.0
204.4375,3980.0
204.44,3961.0
204.4425,3959.0
204.445,3962.0
204.4475,3923.0
204.45,3916.0
204.4525,3904.0
204.455,3878.0
204.4575,3904.0
204.46,3886.0
204.4625,3886.0
204.465,3914.0
204.4675,3914.0
204.47,3902.0
204.4725,3896.0
204.475,3889.0
204.4775,3893.0
204.48,3886.0
204.4825,3866.0
204.485,3880.0
204.4875,3870.0
204.49,3879.0
204.4925,3848.0
204.495,3874.0
204.4975,3856.0
204.5,3869.0
204.5025,3882.0
204.505,3822.0
204.5075,3834.0
204.51,3829.0
204.5125,3819.0
204.515,3823.0
204.5175,3848.0
204.52,3859.0
204.5225,3848.0
204.525,3799.0
204.5275,3776.0
204.53,3709.0
204.5325,3587.0
204.535,3479.0
204.5375,3410.0
204.54,3390.0
204.5425,3388.0
204.545,3437.0
204.5475,3486.0
204.55,3565.0
204.5525,3639.0
204.555,3935.0
204.5575,4356.0
204.56,4934.0
204.5625,5711.0
204.565,6291.0
204.5675,6689.0
204.57,6723.0
204.5725,6360.0
204.575,5511.0
204.5775,4455.0
204.58,3848.0
204.5825,3738.0
204.585,3674.0
204.5875,3642.0
204.59,3571.0
204.5925,3528.0
204.595,3450.0
204.5975,3433.0
204.6,3387.0
204.6025,3376.0
204.605,3348.0
204.6075,3362.0
204.61,3354.0
204.6125,3328.0
204.615,3341.0
204.6175,3376.0
204.62,3400.0
204.6225,3381.0
204.625,3376.0
204.6275,3406.0
204.63,3430.0
204.6325,3454.0
204.635,3444.0
204.6375,3480.0
204.64,3514.0
204.6425,3506.0
204.645,3529.0
204.6475,3573.0
204.65,3569.0
204.6525,3590.0
204.655,3612.0
204.6575,3632.0
204.66,3631.0
204.6625,3664.0
204.665,3691.0
204.6675,3689.0
204.67,3699.0
204.6725,3736.0
204.675,3734.0
204.6775,3768.0
204.68,3779.0
204.6825,3819.0
204.685,3826.0
204.6875,3854.0
204.69,3869.0
204.6925,3887.0
204.695,3897.0
204.6975,3903.0
204.7,3909.0
204.7025,3907.0
204.705,3930.0
204.7075,3910.0
204.71,3904.0
204.7125,3917.0
204.715,3926.0
204.7175,3978.0
204.72,4010.0
204.7225,3977.0
204.725,3995.0
204.7275,4016.0
204.73,4016.0
204.7325,4018.0
204.735,3984.0
204.7375,4034.0
204.74,4025.0
204.7425,3990.0
204.745,3990.0
204.7475,4013.0
204.75,3983.0
204.7525,3986.0
204.755,4004.0
204.7575,3979.0
204.76,3975.0
204.7625,3930.0
204.765,3910.0
204.7675,3960.0
204.77,3966.0
204.7725,3977.0
204.775,3988.0
204.7775,3990.0
204.78,4025.0
204.7825,3996.0
204.785,3974.0
204.7875,3997.0
204.79,4027.0
204.7925,4066.0
204.795,4074.0
204.7975,4086.0
204.8,4099.0
204.8025,4110.0
204.805,4136.0
204.8075,4156.0
204.81,4200.0
204.8125,4268.0
204.815,4346.0
204.8175,4373.0
204.82,4381.0
204.8225,4376.0
204.825,4388.0
204.8275,4384.0
204.83,4353.0
204.8325,4329.0
204.835,4361.0
204.8375,4319.0
204.84,4283.0
204.8425,4275.0
204.845,4260.0
204.8475,4231.0
204.85,4162.0
204.8525,4143.0
204.855,4128.0
204.8575,4086.0
204.86,4063.0
204.8625,4072.0
204.865,4024.0
204.8675,4022.0
204.87,4002.0
204.8725,3983.0
204.875,4002.0
204.8775,3993.0
204.88,3975.0
204.8825,3969.0
204.885,3962.0
204.8875,3997.0
204.89,3962.0
204.8925,3925.0
204.895,3998.0
204.8975,4013.0
204.9,4017.0
204.9025,4003.0
204.905,3998.0
204.9075,3994.0
204.91,3997.0
204.9125,4042.0
204.915,4021.0
204.9175,4043.0
204.92,4054.0
204.9225,4044.0
204.925,4091.0
204.9275,4077.0
204.93,4075.0
204.9325,4065.0
204.935,4071.0
204.9375,4077.0
204.94,4044.0
204.9425,4047.0
204.945,4060.0
204.9475,4059.0
204.95,4050.0
204.9525,4054.0
204.955,4050.0
204.9575,4025.0
204.96,4036.0
204.9625,4064.0
204.965,4037.0
204.9675,4052.0
204.97,4044.0
204.9725,4077.0
204.975,4072.0
204.9775,4069.0
204.98,4048.0
204.9825,4088.0
204.985,4089.0
204.9875,4124.0
204.99,4104.0
204.9925,4100.0
204.995,4112.0
204.9975,4118.0
205.0,4118.0
205.0025,4136.0
205.005,4129.0
205.0075,4119.0
205.01,4112.0
205.0125,4081.0
205.015,4105.0
205.0175,4111.0
205.02,4119.0
205.0225,4109.0
205.025,4121.0
205.0275,4123.0
205.03,4128.0
205.0325,4137.0
205.035,4107.0
205.0375,4129.0
205.04,4105.0
205.0425,4110.0
205.045,4117.0
205.0475,4125.0
205.05,4118.0
205.0525,4119.0
205.055,4125.0
205.0575,4097.0
205.06,4100.0
205.0625,4105.0
205.065,4094.0
205.0675,4079.0
205.07,4079.0
205.0725,4072.0
205.075,4037.0
205.0775,4030.0
205.08,3999.0
205.0825,3998.0
205.085,4029.0
205.0875,4057.0
205.09,4026.0
205.0925,4009.0
205.095,4014.0
205.0975,4012.0
205.1,3994.0
205.1025,4013.0
205.105,4046.0
205.1075,4055.0
205.11,4051.0
205.1125,4035.0
205.115,4058.0
205.1175,4047.0
205.12,4037.0
205.1225,4069.0
205.125,4054.0
205.1275,4061.0
205.13,4055.0
205.1325,4063.0
205.135,4051.0
205.1375,4043.0
205.14,4081.0
205.1425,4055.0
205.145,4037.0
205.1475,4047.0
205.15,4063.0
205.1525,4040.0
205.155,4026.0
205.1575,4034.0
205.16,4076.0
205.1625,4088.0
205.165,4085.0
205.1675,4080.0
205.17,4095.0
205.1725,4090.0
205.175,4056.0
205.1775,4020.0
205.18,4061.0
205.1825,4043.0
205.185,4068.0
205.1875,4041.0
205.19,4115.0
205.1925,4112.0
205.195,4140.0
205.1975,4147.0
205.2,4173.0
205.2025,4166.0
205.205,4169.0
205.2075,4188.0
205.21,4210.0
205.2125,4211.0
205.215,4204.0
205.2175,4195.0
205.22,4194.0
205.2225,4185.0
205.225,4201.0
205.2275,4201.0
205.23,4209.0
205.2325,4149.0
205.235,4130.0
205.2375,4171.0
205.24,4136.0
205.2425,4122.0
205.245,4133.0
205.2475,4125.0
205.25,4145.0
205.2525,4145.0
205.255,4136.0
205.2575,4111.0
205.26,4108.0
205.2625,4086.0
205.265,4098.0
205.2675,4095.0
205.27,4109.0
205.2725,4102.0
205.275,4113.0
205.2775,4107.0
205.28,4094.0
205.2825,4087.0
205.285,4068.0
205.2875,4070.0
205.29,4050.0
205.2925,4058.0
205.295,4081.0
205.2975,4101.0
205.3,4108.0
205.3025,4096.0
205.305,4113.0
205.3075,4090.0
205.31,4116.0
205.3125,4122.0
205.315,4097.0
205.3175,4109.0
205.32,4147.0
205.3225,4145.0
205.325,4131.0
205.3275,4137.0
205.33,4164.0
205.3325,4158.0
205.335,4114.0
205.3375,4140.0
205.34,4148.0
205.3425,4152.0
205.345,4182.0
205.3475,4156.0
205.35,4163.0
205.3525,4172.0
205.355,4138.0
205.3575,4168.0
205.36,4127.0
205.3625,4096.0
205.365,4069.0
205.3675,3979.0
205.37,3874.0
205.3725,3770.0
205.375,3732.0
205.3775,3687.0
205.38,3701.0
205.3825,3766.0
205.385,3862.0
205.3875,3934.0
205.39,4126.0
205.3925,4477.0
205.395,4972.0
205.3975,5657.0
205.4,6337.0
205.4025,6821.0
205.405,7115.0
205.4075,6892.0
205.41,6394.0
205.4125,5276.0
205.415,4327.0
205.4175,3974.0
205.42,3920.0
205.4225,3874.0
205.425,3807.0
205.4275,3756.0
205.43,3710.0
205.4325,3649.0
205.435,3596.0
205.4375,3564.0
205.44,3552.0
205.4425,3540.0
205.445,3499.0
205.4475,3507.0
205.45,3508.0
205.4525,3479.0
205.455,3491.0
205.4575,3498.0
205.46,3516.0
205.4625,3547.0
205.465,3547.0
205.4675,3586.0
205.47,3582.0
205.4725,3583.0
205.475,3583.0
205.4775,3597.0
205.48,3626.0
205.4825,3646.0
205.485,3668.0
205.4875,3690.0
205.49,3687.0
205.4925,3705.0
205.495,3702.0
205.4975,3763.0
205.5,3749.0
205.5025,3745.0
205.505,3753.0
205.5075,3761.0
205.51,3825.0
205.5125,3837.0
205.515,3825.0
205.5175,3866.0
205.52,3855.0
205.5225,3845.0
205.525,3867.0
205.5275,3859.0
205.53,3855.0
205.5325,3843.0
205.535,3863.0
205.5375,3882.0
205.54,3902.0
205.5425,3917.0
205.545,3892.0
205.5475,3906.0
205.55,3920.0
205.5525,3932.0
205.555,3946.0
205.5575,3944.0
205.56,3971.0
205.5625,3979.0
205.565,3982.0
205.5675,3990.0
205.57,3997.0
205.5725,3979.0
205.575,3970.0
205.5775,3987.0
205.58,3984.0
205.5825,3971.0
205.585,3970.0
205.5875,3990.0
205.59,3980.0
205.5925,3987.0
205.595,3993.0
205.5975,4015.0
205.6,4040.0
205.6025,4043.0
205.605,4021.0
205.6075,4053.0
205.61,4040.0
205.6125,4032.0
205.615,4060.0
205.6175,4055.0
205.62,4082.0
205.6225,4089.0
205.625,4091.0
205.6275,4089.0
205.63,4123.0
205.6325,4143.0
205.635,4172.0
205.6375,4203.0
205.64,4200.0
205.6425,4197.0
205.645,4214.0
205.6475,4206.0
205.65,4230.0
205.6525,4228.0
205.655,4208.0
205.6575,4240.0
205.66,4232.0
205.6625,4234.0
205.665,4236.0
205.6675,4218.0
205.67,4189.0
205.6725,4162.0
205.675,4115.0
205.6775,4117.0
205.68,4073.0
205.6825,4039.0
205.685,4022.0
205.6875,4025.0
205.69,4015.0
205.6925,4011.0
205.695,4016.0
205.6975,3992.0
205.7,3998.0
205.7025,3973.0
205.705,3960.0
205.7075,3947.0
205.71,3984.0
205.7125,3987.0
205.715,3974.0
205.7175,3969.0
205.72,3986.0
205.7225,3985.0
205.725,4009.0
205.7275,4017.0
205.73,4047.0
205.7325,4037.0
205.735,4044.0
205.7375,4067.0
205.74,4059.0
205.7425,4041.0
205.745,4049.0
205.7475,4037.0
205.75,4040.0
205.7525,4061.0
205.755,4045.0
205.7575,4064.0
205.76,4065.0
205.7625,4052.0
205.765,4067.0
205.7675,4071.0
205.77,4077.0
205.7725,4125.0
205.775,4106.0
205.7775,4101.0
205.78,4109.0
205.7825,4122.0
205.785,4134.0
205.7875,4123.0
205.79,4094.0
205.7925,4116.0
205.795,4100.0
