190.132000001,447.0
190.133000001,397.0
190.134000001,406.0
190.135000001,486.0
190.136000001,566.0
190.137000001,608.0
190.138000001,592.0
190.139000001,525.0
190.140000001,434.0
190.141000001,392.0
190.142000001,414.0
190.143000001,482.0
190.144000001,547.0
190.145000001,612.0
190.146000001,592.0
190.147000001,516.0
190.148000001,439.0
190.149000001,405.0
190.150000001,422.0
190.151000001,486.0
190.152000001,566.0
190.153000001,601.0
190.154000001,581.0
190.155000001,520.0
190.156000001,444.0
190.157000001,400.0
190.158000001,407.0
190.159000001,484.0
190.160000001,560.0
190.161000001,603.0
190.162000001,595.0
190.163000001,530.0
190.164000001,451.0
190.165000001,408.0
190.166000001,421.0
190.167000001,479.0
190.168000001,559.0
190.169000001,614.0
190.170000001,600.0
190.171000001,531.0
190.172000001,445.0
190.173000001,396.0
190.174000001,407.0
190.175000001,491.0
190.176000001,571.0
190.177000001,616.0
190.178000001,603.0
190.179000001,539.0
190.180000001,447.0
190.181000001,396.0
190.182000001,420.0
190.183000001,493.0
190.184000001,572.0
190.185000001,622.0
190.186000001,605.0
190.187000001,529.0
190.188000001,454.0
190.189000001,415.0
190.190000001,425.0
190.191000001,490.0
190.192000001,571.0
190.193000001,615.0
190.194000001,589.0
190.195000001,534.0
190.196000001,453.0
190.197000001,405.0
190.198000001,414.0
190.199000001,488.0
190.200000001,563.0
190.201000001,606.0
190.202000001,604.0
190.203000001,542.0
190.204000001,465.0
190.205000001,419.0
190.206000001,430.0
190.207000001,482.0
190.208000001,560.0
190.209000001,616.0
190.210000001,606.0
190.211000001,533.0
190.212000001,451.0
190.213000001,411.0
190.214000001,419.0
190.215000001,491.0
190.216000001,575.0
190.217000001,621.0
190.218000001,606.0
190.219000001,540.0
190.220000001,452.0
190.221000001,403.0
190.222000001,424.0
190.223000001,492.0
190.224000001,565.0
190.225000001,613.0
190.226000001,600.0
190.227000001,532.0
190.228000001,456.0
190.229000001,417.0
190.230000001,427.0
190.231000001,489.0
190.232000001,569.0
190.233000001,620.0
190.234000001,599.0
190.235000001,541.0
190.236000001,463.0
190.237000001,413.0
190.238000001,418.0
190.239000001,481.0
190.240000001,546.0
190.241000001,600.0
190.242000001,599.0
190.243000001,536.0
190.244000001,456.0
190.245000001,409.0
190.246000001,416.0
190.247000001,470.0
190.248000001,547.0
190.249000001,607.0
190.250000001,594.0
190.251000001,536.0
190.252000001,450.0
190.253000001,402.0
190.254000001,406.0
190.255000001,472.0
190.256000001,557.0
190.257000001,609.0
190.258000001,600.0
190.259000001,538.0
190.260000001,451.0
190.261000001,394.0
190.262000001,415.0
190.263000001,482.0
190.264000001,560.0
190.265000001,625.0
190.266000001,626.0
190.267000001,566.0
190.268000001,484.0
190.269000001,445.0
190.270000001,449.0
190.271000001,513.0
190.272000001,585.0
190.273000001,621.0
190.274000001,581.0
190.275000001,498.0
190.276000001,408.0
190.277000001,337.0
190.278000001,331.0
190.279000001,393.0
190.280000001,487.0
190.281000001,539.0
190.282000001,551.0
190.283000001,509.0
190.284000001,427.0
190.285000001,385.0
190.286000001,402.0
190.287000001,465.0
190.288000001,547.0
190.289000001,612.0
190.290000001,615.0
190.291000001,565.0
190.292000001,481.0
190.293000001,429.0
190.294000001,436.0
190.295000001,500.0
190.296000001,582.0
190.297000001,630.0
190.298000001,618.0
190.299000001,556.0
190.300000001,471.0
190.301000001,412.0
190.302000001,421.0
190.303000001,493.0
190.304000001,570.0
190.305000001,619.0
190.306000001,609.0
190.307000001,534.0
190.308000001,456.0
190.309000001,416.0
190.310000001,422.0
190.311000001,478.0
190.312000001,566.0
190.313000001,615.0
190.314000001,598.0
190.315000001,529.0
190.316000001,461.0
190.317000001,414.0
190.318000001,419.0
190.319000001,480.0
190.320000001,559.0
190.321000001,602.0
190.322000001,601.0
190.323000001,543.0
190.324000001,468.0
190.325000001,415.0
190.326000001,420.0
190.327000001,483.0
190.328000001,552.0
190.329000001,616.0
190.330000001,607.0
190.331000001,537.0
190.332000001,457.0
190.333000001,414.0
190.334000001,416.0
190.335000001,473.0
190.336000001,560.0
190.337000001,613.0
190.338000001,607.0
190.339000001,545.0
190.340000001,470.0
190.341000001,406.0
190.342000001,414.0
190.343000001,482.0
190.344000001,564.0
190.345000001,611.0
190.346000001,598.0
190.347000001,541.0
190.348000001,455.0
190.349000001,413.0
190.350000001,421.0
190.351000001,479.0
190.352000001,559.0
190.353000001,615.0
190.354000001,599.0
190.355000001,533.0
190.356000001,453.0
190.357000001,402.0
190.358000001,405.0
190.359000001,464.0
190.360000001,536.0
190.361000001,586.0
190.362000001,587.0
190.363000001,535.0
190.364000001,453.0
190.365000001,396.0
190.366000001,398.0
190.367000001,458.0
190.368000001,527.0
190.369000001,591.0
190.370000001,590.0
190.371000001,533.0
190.372000001,450.0
190.373000001,397.0
190.374000001,392.0
190.375000001,454.0
190.376000001,546.0
190.377000001,600.0
190.378000001,591.0
190.379000001,535.0
190.380000001,453.0
190.381000001,395.0
190.382000001,396.0
190.383000001,467.0
190.384000001,536.0
190.385000001,598.0
190.386000001,597.0
190.387000001,539.0
190.388000001,446.0
190.389000001,399.0
190.390000001,408.0
190.391000001,468.0
190.392000001,550.0
190.393000001,607.0
190.394000001,595.0
190.395000001,526.0
190.396000001,454.0
190.397000001,403.0
190.398000001,409.0
190.399000001,467.0
190.400000001,546.0
190.401000001,598.0
190.402000001,592.0
190.403000001,537.0
190.404000001,458.0
190.405000001,405.0
190.406000001,408.0
190.407000001,465.0
190.408000001,534.0
190.409000001,597.0
190.410000001,600.0
190.411000001,544.0
190.412000001,463.0
190.413000001,404.0
190.414000001,405.0
190.415000001,457.0
190.416000001,549.0
190.417000001,608.0
190.418000001,608.0
190.419000001,548.0
190.420000001,465.0
190.421000001,409.0
190.422000001,397.0
190.423000001,473.0
190.424000001,554.0
190.425000001,610.0
190.426000001,609.0
190.427000001,542.0
190.428000001,457.0
190.429000001,408.0
190.430000001,422.0
190.431000001,474.0
190.432000001,555.0
190.433000001,612.0
190.434000001,611.0
190.435000001,544.0
190.436000001,472.0
190.437000001,423.0
190.438000001,422.0
190.439000001,477.0
190.440000001,556.0
190.441000001,607.0
190.442000001,601.0
190.443000001,560.0
190.444000001,477.0
190.445000001,417.0
190.446000001,422.0
190.447000001,479.0
190.448000001,548.0
190.449000001,602.0
190.450000001,613.0
190.451000001,551.0
190.452000001,473.0
190.453000001,418.0
190.454000001,416.0
190.455000001,467.0
190.456000001,551.0
190.457000001,612.0
190.458000001,609.0
190.459000001,556.0
190.460000001,475.0
190.461000001,419.0
190.462000001,406.0
190.463000001,471.0
190.464000001,552.0
190.465000001,606.0
190.466000001,603.0
190.467000001,551.0
190.468000001,470.0
190.469000001,412.0
190.470000001,420.0
190.471000001,476.0
190.472000001,559.0
190.473000001,616.0
190.474000001,614.0
190.475000001,546.0
190.476000001,472.0
190.477000001,423.0
190.478000001,421.0
190.479000001,475.0
190.480000001,548.0
190.481000001,610.0
190.482000001,608.0
190.483000001,562.0
190.484000001,483.0
190.485000001,429.0
190.486000001,420.0
190.487000001,476.0
190.488000001,552.0
190.489000001,604.0
190.490000001,620.0
190.491000001,564.0
190.492000001,482.0
190.493000001,427.0
190.494000001,421.0
190.495000001,473.0
190.496000001,552.0
190.497000001,618.0
190.498000001,623.0
190.499000001,567.0
190.500000001,479.0
190.501000001,424.0
190.502000001,408.0
190.503000001,469.0
190.504000001,553.0
190.505000001,614.0
190.506000001,618.0
190.507000001,566.0
190.508000001,483.0
190.509000001,422.0
190.510000001,432.0
190.511000001,486.0
190.512000001,561.0
190.513000001,625.0
190.514000001,628.0
190.515000001,567.0
190.516000001,485.0
190.517000001,438.0
190.518000001,428.0
190.519000001,482.0
190.520000001,561.0
190.521000001,627.0
190.522000001,622.0
190.523000001,571.0
190.524000001,495.0
190.525000001,435.0
190.526000001,429.0
190.527000001,483.0
190.528000001,556.0
190.529000001,605.0
190.530000001,615.0
190.531000001,564.0
190.532000001,479.0
190.533000001,416.0
190.534000001,416.0
190.535000001,466.0
190.536000001,544.0
190.537000001,616.0
190.538000001,617.0
190.539000001,565.0
190.540000001,485.0
190.541000001,425.0
190.542000001,406.0
190.543000001,463.0
190.544000001,553.0
190.545000001,613.0
190.546000001,623.0
190.547000001,572.0
190.548000001,503.0
190.549000001,451.0
190.550000001,463.0
190.551000001,517.0
190.552000001,599.0
190.553000001,650.0
190.554000001,644.0
190.555000001,574.0
190.556000001,460.0
190.557000001,386.0
190.558000001,365.0
190.559000001,392.0
190.560000001,457.0
190.561000001,512.0
190.562000001,514.0
190.563000001,477.0
190.564000001,419.0
190.565000001,367.0
190.566000001,373.0
190.567000001,440.0
190.568000001,528.0
190.569000001,585.0
190.570000001,607.0
190.571000001,568.0
190.572000001,499.0
190.573000001,446.0
190.574000001,444.0
190.575000001,486.0
190.576000001,556.0
190.577000001,630.0
190.578000001,629.0
190.579000001,581.0
190.580000001,497.0
190.581000001,438.0
190.582000001,424.0
190.583000001,466.0
190.584000001,563.0
190.585000001,621.0
190.586000001,623.0
190.587000001,573.0
190.588000001,502.0
190.589000001,430.0
190.590000001,428.0
190.591000001,484.0
190.592000001,564.0
190.593000001,623.0
190.594000001,631.0
190.595000001,580.0
190.596000001,489.0
190.597000001,442.0
190.598000001,437.0
190.599000001,485.0
190.600000001,560.0
190.601000001,619.0
190.602000001,630.0
190.603000001,577.0
190.604000001,509.0
190.605000001,454.0
190.606000001,435.0
190.607000001,484.0
190.608000001,566.0
190.609000001,614.0
190.610000001,622.0
190.611000001,581.0
190.612000001,506.0
190.613000001,451.0
190.614000001,436.0
190.615000001,488.0
190.616000001,562.0
190.617000001,634.0
190.618000001,642.0
190.619000001,593.0
190.620000001,510.0
190.621000001,450.0
190.622000001,430.0
190.623000001,479.0
190.624000001,572.0
190.625000001,633.0
190.626000001,643.0
190.627000001,593.0
190.628000001,503.0
190.629000001,436.0
190.630000001,436.0
190.631000001,487.0
190.632000001,563.0
190.633000001,632.0
190.634000001,639.0
190.635000001,587.0
190.636000001,494.0
190.637000001,433.0
190.638000001,429.0
190.639000001,480.0
190.640000001,558.0
190.641000001,624.0
190.642000001,625.0
190.643000001,568.0
190.644000001,495.0
190.645000001,433.0
190.646000001,421.0
190.647000001,469.0
190.648000001,548.0
190.649000001,601.0
190.650000001,605.0
190.651000001,564.0
190.652000001,484.0
190.653000001,423.0
190.654000001,408.0
190.655000001,454.0
190.656000001,528.0
190.657000001,593.0
190.658000001,611.0
190.659000001,561.0
190.660000001,479.0
190.661000001,416.0
190.662000001,405.0
190.663000001,441.0
190.664000001,530.0
190.665000001,599.0
190.666000001,611.0
190.667000001,556.0
190.668000001,477.0
190.669000001,412.0
190.670000001,405.0
190.671000001,455.0
190.672000001,541.0
190.673000001,606.0
190.674000001,616.0
190.675000001,572.0
190.676000001,480.0
190.677000001,412.0
190.678000001,408.0
190.679000001,457.0
190.680000001,540.0
190.681000001,597.0
190.682000001,622.0
190.683000001,569.0
190.684000001,495.0
190.685000001,437.0
190.686000001,422.0
190.687000001,471.0
190.688000001,550.0
190.689000001,601.0
190.690000001,617.0
190.691000001,568.0
190.692000001,497.0
190.693000001,437.0
190.694000001,422.0
190.695000001,470.0
190.696000001,535.0
190.697000001,607.0
190.698000001,626.0
190.699000001,581.0
190.700000001,500.0
190.701000001,438.0
190.702000001,422.0
190.703000001,460.0
190.704000001,539.0
190.705000001,604.0
190.706000001,614.0
190.707000001,567.0
190.708000001,498.0
190.709000001,435.0
190.710000001,408.0
190.711000001,467.0
190.712000001,551.0
190.713000001,617.0
190.714000001,629.0
190.715000001,581.0
190.716000001,496.0
190.717000001,428.0
190.718000001,417.0
190.719000001,465.0
190.720000001,534.0
190.721000001,607.0
190.722000001,622.0
190.723000001,570.0
190.724000001,490.0
190.725000001,435.0
190.726000001,418.0
190.727000001,464.0
190.728000001,541.0
190.729000001,609.0
190.730000001,614.0
190.731000001,574.0
190.732000001,493.0
190.733000001,430.0
190.734000001,407.0
190.735000001,447.0
190.736000001,528.0
190.737000001,598.0
190.738000001,622.0
190.739000001,579.0
190.740000001,496.0
190.741000001,427.0
190.742000001,413.0
190.743000001,447.0
190.744000001,529.0
190.745000001,605.0
190.746000001,619.0
190.747000001,571.0
190.748000001,483.0
190.749000001,417.0
190.750000001,397.0
190.751000001,450.0
190.752000001,534.0
190.753000001,600.0
190.754000001,618.0
190.755000001,573.0
190.756000001,483.0
190.757000001,411.0
190.758000001,404.0
190.759000001,450.0
190.760000001,529.0
190.761000001,596.0
190.762000001,613.0
190.763000001,556.0
190.764000001,476.0
190.765000001,413.0
190.766000001,398.0
190.767000001,437.0
190.768000001,527.0
190.769000001,595.0
190.770000001,601.0
190.771000001,566.0
190.772000001,484.0
190.773000001,413.0
190.774000001,395.0
190.775000001,445.0
190.776000001,520.0
190.777000001,580.0
190.778000001,604.0
190.779000001,567.0
190.780000001,488.0
190.781000001,424.0
190.782000001,407.0
190.783000001,442.0
190.784000001,517.0
190.785000001,590.0
190.786000001,611.0
190.787000001,573.0
190.788000001,493.0
190.789000001,428.0
190.790000001,401.0
190.791000001,443.0
190.792000001,522.0
190.793000001,594.0
190.794000001,620.0
190.795000001,578.0
190.796000001,497.0
190.797000001,420.0
190.798000001,408.0
190.799000001,454.0
190.800000001,530.0
190.801000001,592.0
190.802000001,603.0
190.803000001,568.0
190.804000001,484.0
190.805000001,425.0
190.806000001,405.0
190.807000001,448.0
190.808000001,529.0
190.809000001,597.0
190.810000001,609.0
190.811000001,569.0
190.812000001,496.0
190.813000001,429.0
190.814000001,408.0
190.815000001,444.0
190.816000001,518.0
190.817000001,589.0
190.818000001,617.0
190.819000001,577.0
190.820000001,502.0
190.821000001,442.0
190.822000001,431.0
190.823000001,481.0
190.824000001,568.0
190.825000001,644.0
190.826000001,665.0
190.827000001,620.0
190.828000001,543.0
190.829000001,463.0
190.830000001,407.0
190.831000001,424.0
190.832000001,489.0
190.833000001,539.0
190.834000001,535.0
190.835000001,481.0
190.836000001,402.0
190.837000001,325.0
190.838000001,335.0
190.839000001,393.0
190.840000001,475.0
190.841000001,558.0
190.842000001,590.0
190.843000001,565.0
190.844000001,492.0
190.845000001,445.0
190.846000001,434.0
190.847000001,485.0
190.848000001,569.0
190.849000001,636.0
190.850000001,646.0
190.851000001,604.0
190.852000001,523.0
190.853000001,451.0
190.854000001,423.0
190.855000001,458.0
190.856000001,545.0
190.857000001,610.0
190.858000001,632.0
190.859000001,603.0
190.860000001,520.0
190.861000001,450.0
190.862000001,425.0
190.863000001,465.0
190.864000001,536.0
190.865000001,614.0
190.866000001,639.0
190.867000001,597.0
190.868000001,511.0
190.869000001,438.0
190.870000001,415.0
190.871000001,453.0
190.872000001,539.0
190.873000001,614.0
190.874000001,639.0
190.875000001,600.0
190.876000001,522.0
190.877000001,445.0
190.878000001,423.0
190.879000001,471.0
190.880000001,550.0
190.881000001,621.0
190.882000001,643.0
190.883000001,597.0
190.884000001,515.0
190.885000001,449.0
190.886000001,435.0
190.887000001,471.0
190.888000001,549.0
190.889000001,622.0
190.890000001,642.0
190.891000001,595.0
190.892000001,532.0
190.893000001,465.0
190.894000001,437.0
190.895000001,476.0
190.896000001,556.0
190.897000001,617.0
190.898000001,643.0
190.899000001,611.0
190.900000001,537.0
190.901000001,467.0
190.902000001,442.0
190.903000001,478.0
190.904000001,542.0
190.905000001,619.0
190.906000001,646.0
190.907000001,599.0
190.908000001,520.0
190.909000001,460.0
190.910000001,427.0
190.911000001,453.0
190.912000001,540.0
190.913000001,607.0
190.914000001,630.0
190.915000001,597.0
190.916000001,515.0
190.917000001,430.0
190.918000001,401.0
190.919000001,450.0
190.920000001,524.0
190.921000001,592.0
190.922000001,611.0
190.923000001,576.0
190.924000001,486.0
190.925000001,422.0
190.926000001,402.0
190.927000001,435.0
190.928000001,514.0
190.929000001,588.0
190.930000001,613.0
190.931000001,566.0
190.932000001,492.0
190.933000001,427.0
190.934000001,395.0
190.935000001,427.0
190.936000001,507.0
190.937000001,574.0
190.938000001,604.0
190.939000001,576.0
190.940000001,500.0
190.941000001,429.0
190.942000001,406.0
190.943000001,440.0
190.944000001,508.0
190.945000001,581.0
190.946000001,619.0
190.947000001,584.0
190.948000001,508.0
190.949000001,434.0
190.950000001,395.0
190.951000001,424.0
190.952000001,514.0
190.953000001,591.0
190.954000001,612.0
190.955000001,585.0
190.956000001,507.0
190.957000001,433.0
190.958000001,392.0
190.959000001,431.0
190.960000001,517.0
190.961000001,590.0
190.962000001,617.0
190.963000001,588.0
190.964000001,496.0
190.965000001,427.0
190.966000001,406.0
190.967000001,443.0
190.968000001,517.0
190.969000001,593.0
190.970000001,620.0
190.971000001,576.0
190.972000001,501.0
190.973000001,435.0
190.974000001,410.0
190.975000001,437.0
190.976000001,510.0
190.977000001,586.0
190.978000001,613.0
190.979000001,586.0
190.980000001,510.0
190.981000001,441.0
190.982000001,407.0
190.983000001,444.0
190.984000001,510.0
190.985000001,580.0
190.986000001,620.0
190.987000001,591.0
190.988000001,506.0
190.989000001,429.0
190.990000001,401.0
190.991000001,432.0
190.992000001,516.0
190.993000001,595.0
190.994000001,625.0
190.995000001,592.0
190.996000001,512.0
190.997000001,436.0
190.998000001,395.0
190.999000001,436.0
191.000000001,518.0
191.001000001,594.0
191.002000001,625.0
191.003000001,582.0
191.004000001,502.0
191.005000001,430.0
191.006000001,410.0
191.007000001,440.0
191.008000001,517.0
191.009000001,594.0
191.010000001,626.0
191.011000001,588.0
191.012000001,509.0
191.013000001,443.0
191.014000001,414.0
191.015000001,442.0
191.016000001,518.0
191.017000001,593.0
191.018000001,618.0
191.019000001,593.0
191.020000001,522.0
191.021000001,450.0
191.022000001,416.0
191.023000001,445.0
191.024000001,521.0
191.025000001,588.0
191.026000001,630.0
191.027000001,602.0
191.028000001,521.0
191.029000001,448.0
191.030000001,415.0
191.031000001,437.0
191.032000001,515.0
191.033000001,602.0
191.034000001,632.0
191.035000001,602.0
191.036000001,525.0
191.037000001,451.0
191.038000001,408.0
191.039000001,440.0
191.040000001,517.0
191.041000001,591.0
191.042000001,618.0
191.043000001,591.0
191.044000001,516.0
191.045000001,436.0
191.046000001,416.0
191.047000001,445.0
191.048000001,521.0
191.049000001,602.0
191.050000001,630.0
191.051000001,596.0
191.052000001,511.0
191.053000001,447.0
191.054000001,417.0
191.055000001,446.0
191.056000001,515.0
191.057000001,594.0
191.058000001,622.0
191.059000001,602.0
191.060000001,527.0
191.061000001,449.0
191.062000001,419.0
191.063000001,447.0
191.064000001,519.0
191.065000001,583.0
191.066000001,622.0
191.067000001,600.0
191.068000001,525.0
191.069000001,446.0
191.070000001,401.0
191.071000001,430.0
191.072000001,504.0
191.073000001,585.0
191.074000001,617.0
191.075000001,596.0
191.076000001,520.0
191.077000001,445.0
191.078000001,398.0
191.079000001,423.0
191.080000001,513.0
191.081000001,594.0
191.082000001,627.0
191.083000001,597.0
191.084000001,516.0
191.085000001,440.0
191.086000001,423.0
191.087000001,464.0
191.088000001,550.0
191.089000001,629.0
191.090000001,663.0
191.091000001,622.0
191.092000001,542.0
191.093000001,470.0
191.094000001,414.0
191.095000001,422.0
191.096000001,480.0
191.097000001,548.0
191.098000001,544.0
191.099000001,511.0
191.100000001,443.0
191.101000001,372.0
191.102000001,345.0
191.103000001,382.0
191.104000001,473.0
191.105000001,549.0
191.106000001,596.0
191.107000001,584.0
191.108000001,506.0
191.109000001,432.0
191.110000001,402.0
191.111000001,445.0
191.112000001,522.0
191.113000001,615.0
191.114000001,651.0
191.115000001,626.0
191.116000001,547.0
191.117000001,468.0
191.118000001,422.0
191.119000001,438.0
191.120000001,524.0
191.121000001,573.0
191.122000001,590.0
191.123000001,547.0
191.124000001,462.0
191.125000001,384.0
191.126000001,350.0
191.127000001,380.0
191.128000001,459.0
191.129000001,539.0
191.130000001,569.0
191.131000001,546.0
191.132000001,457.0
191.133000001,391.0
191.134000001,359.0
191.135000001,384.0
191.136000001,462.0
191.137000001,535.0
191.138000001,576.0
191.139000001,554.0
191.140000001,488.0
191.141000001,415.0
191.142000001,380.0
191.143000001,405.0
191.144000001,477.0
191.145000001,550.0
191.146000001,590.0
191.147000001,575.0
191.148000001,497.0
191.149000001,425.0
191.150000001,390.0
191.151000001,417.0
191.152000001,484.0
191.153000001,559.0
191.154000001,601.0
191.155000001,586.0
191.156000001,518.0
191.157000001,441.0
191.158000001,402.0
191.159000001,420.0
191.160000001,502.0
191.161000001,577.0
191.162000001,615.0
191.163000001,589.0
191.164000001,532.0
191.165000001,447.0
191.166000001,406.0
191.167000001,441.0
191.168000001,519.0
191.169000001,598.0
191.170000001,635.0
191.171000001,612.0
191.172000001,524.0
191.173000001,448.0
191.174000001,414.0
191.175000001,439.0
191.176000001,503.0
191.177000001,580.0
191.178000001,624.0
191.179000001,596.0
191.180000001,531.0
191.181000001,451.0
191.182000001,411.0
191.183000001,429.0
191.184000001,503.0
191.185000001,572.0
191.186000001,606.0
191.187000001,597.0
191.188000001,521.0
191.189000001,441.0
191.190000001,393.0
191.191000001,414.0
191.192000001,480.0
191.193000001,576.0
191.194000001,620.0
191.195000001,599.0
191.196000001,532.0
191.197000001,445.0
191.198000001,400.0
191.199000001,414.0
191.200000001,493.0
191.201000001,582.0
191.202000001,628.0
191.203000001,615.0
191.204000001,541.0
191.205000001,455.0
191.206000001,414.0
191.207000001,450.0
191.208000001,519.0
191.209000001,601.0
191.210000001,645.0
191.211000001,620.0
191.212000001,540.0
191.213000001,456.0
191.214000001,428.0
191.215000001,445.0
191.216000001,517.0
191.217000001,596.0
191.218000001,638.0
191.219000001,605.0
191.220000001,539.0
191.221000001,464.0
191.222000001,422.0
191.223000001,442.0
191.224000001,519.0
191.225000001,600.0
191.226000001,627.0
191.227000001,617.0
191.228000001,540.0
191.229000001,457.0
191.230000001,412.0
191.231000001,445.0
191.232000001,507.0
191.233000001,585.0
191.234000001,616.0
191.235000001,586.0
191.236000001,513.0
191.237000001,432.0
191.238000001,393.0
191.239000001,401.0
191.240000001,475.0
191.241000001,559.0
191.242000001,604.0
191.243000001,579.0
191.244000001,514.0
191.245000001,436.0
191.246000001,389.0
191.247000001,407.0
191.248000001,489.0
191.249000001,568.0
191.250000001,612.0
191.251000001,595.0
191.252000001,516.0
191.253000001,433.0
191.254000001,400.0
191.255000001,422.0
191.256000001,493.0
191.257000001,565.0
191.258000001,607.0
191.259000001,593.0
191.260000001,522.0
191.261000001,453.0
191.262000001,412.0
191.263000001,427.0
191.264000001,500.0
191.265000001,581.0
191.266000001,614.0
191.267000001,605.0
191.268000001,533.0
191.269000001,453.0
191.270000001,409.0
191.271000001,425.0
191.272000001,486.0
191.273000001,565.0
191.274000001,614.0
191.275000001,606.0
191.276000001,532.0
191.277000001,453.0
191.278000001,408.0
191.279000001,418.0
191.280000001,487.0
191.281000001,581.0
191.282000001,625.0
191.283000001,609.0
191.284000001,535.0
191.285000001,453.0
191.286000001,406.0
191.287000001,418.0
191.288000001,497.0
191.289000001,579.0
191.290000001,619.0
191.291000001,604.0
191.292000001,533.0
191.293000001,439.0
191.294000001,406.0
191.295000001,428.0
191.296000001,491.0
191.297000001,575.0
191.298000001,629.0
191.299000001,607.0
191.300000001,529.0
191.301000001,460.0
191.302000001,419.0
191.303000001,434.0
191.304000001,507.0
191.305000001,588.0
191.306000001,621.0
191.307000001,607.0
191.308000001,546.0
191.309000001,461.0
191.310000001,406.0
191.311000001,419.0
191.312000001,496.0
191.313000001,570.0
191.314000001,622.0
191.315000001,607.0
191.316000001,538.0
191.317000001,454.0
191.318000001,408.0
191.319000001,419.0
191.320000001,484.0
191.321000001,579.0
191.322000001,624.0
191.323000001,605.0
191.324000001,531.0
191.325000001,446.0
191.326000001,397.0
191.327000001,420.0
191.328000001,497.0
191.329000001,572.0
191.330000001,618.0
191.331000001,611.0
191.332000001,541.0
191.333000001,450.0
191.334000001,422.0
191.335000001,447.0
191.336000001,524.0
191.337000001,609.0
191.338000001,656.0
191.339000001,631.0
191.340000001,559.0
191.341000001,488.0
191.342000001,433.0
191.343000001,430.0
191.344000001,473.0
191.345000001,533.0
191.346000001,556.0
191.347000001,527.0
191.348000001,461.0
191.349000001,382.0
191.350000001,342.0
191.351000001,367.0
191.352000001,449.0
191.353000001,535.0
191.354000001,593.0
191.355000001,592.0
191.356000001,528.0
191.357000001,453.0
191.358000001,414.0
191.359000001,431.0
191.360000001,492.0
191.361000001,593.0
191.362000001,647.0
191.363000001,623.0
191.364000001,556.0
191.365000001,479.0
191.366000001,420.0
191.367000001,429.0
191.368000001,502.0
191.369000001,588.0
191.370000001,635.0
191.371000001,621.0
191.372000001,551.0
191.373000001,458.0
191.374000001,411.0
191.375000001,428.0
191.376000001,495.0
191.377000001,573.0
191.378000001,618.0
191.379000001,612.0
191.380000001,537.0
191.381000001,463.0
191.382000001,417.0
191.383000001,427.0
191.384000001,491.0
191.385000001,572.0
191.386000001,617.0
191.387000001,599.0
191.388000001,542.0
191.389000001,462.0
191.390000001,416.0
191.391000001,426.0
191.392000001,485.0
191.393000001,564.0
191.394000001,619.0
191.395000001,616.0
191.396000001,552.0
191.397000001,471.0
191.398000001,419.0
191.399000001,428.0
191.400000001,480.0
191.401000001,576.0
191.402000001,629.0
191.403000001,617.0
191.404000001,552.0
191.405000001,471.0
191.406000001,415.0
191.407000001,427.0
191.408000001,504.0
191.409000001,585.0
191.410000001,634.0
191.411000001,625.0
191.412000001,560.0
191.413000001,469.0
191.414000001,418.0
191.415000001,440.0
191.416000001,504.0
191.417000001,588.0
191.418000001,635.0
191.419000001,626.0
191.420000001,542.0
191.421000001,471.0
191.422000001,424.0
191.423000001,434.0
191.424000001,490.0
191.425000001,579.0
191.426000001,623.0
191.427000001,602.0
191.428000001,543.0
191.429000001,466.0
191.430000001,407.0
191.431000001,412.0
191.432000001,479.0
191.433000001,556.0
191.434000001,600.0
191.435000001,603.0
191.436000001,534.0
191.437000001,456.0
191.438000001,403.0
191.439000001,409.0
191.440000001,463.0
191.441000001,544.0
191.442000001,605.0
191.443000001,594.0
191.444000001,523.0
191.445000001,439.0
191.446000001,390.0
191.447000001,398.0
191.448000001,464.0
191.449000001,554.0
191.450000001,606.0
191.451000001,600.0
191.452000001,533.0
191.453000001,445.0
191.454000001,385.0
191.455000001,402.0
191.456000001,469.0
191.457000001,552.0
191.458000001,604.0
191.459000001,588.0
191.460000001,519.0
191.461000001,445.0
191.462000001,398.0
191.463000001,411.0
191.464000001,471.0
191.465000001,557.0
191.466000001,610.0
191.467000001,588.0
191.468000001,529.0
191.469000001,447.0
191.470000001,401.0
191.471000001,409.0
191.472000001,472.0
191.473000001,550.0
191.474000001,599.0
191.475000001,603.0
191.476000001,541.0
191.477000001,461.0
191.478000001,409.0
191.479000001,413.0
191.480000001,466.0
191.481000001,549.0
191.482000001,610.0
191.483000001,598.0
191.484000001,531.0
191.485000001,452.0
191.486000001,410.0
191.487000001,411.0
191.488000001,478.0
191.489000001,567.0
191.490000001,615.0
191.491000001,611.0
191.492000001,547.0
191.493000001,460.0
191.494000001,398.0
191.495000001,419.0
191.496000001,482.0
191.497000001,558.0
191.498000001,610.0
191.499000001,607.0
191.500000001,540.0
191.501000001,454.0
191.502000001,412.0
191.503000001,419.0
191.504000001,482.0
191.505000001,565.0
191.506000001,618.0
191.507000001,598.0
191.508000001,541.0
191.509000001,464.0
191.510000001,412.0
191.511000001,417.0
191.512000001,471.0
191.513000001,555.0
191.514000001,606.0
191.515000001,608.0
191.516000001,549.0
191.517000001,469.0
191.518000001,414.0
191.519000001,421.0
191.520000001,474.0
191.521000001,551.0
191.522000001,617.0
191.523000001,611.0
191.524000001,549.0
191.525000001,466.0
191.526000001,406.0
191.527000001,408.0
191.528000001,480.0
191.529000001,563.0
191.530000001,617.0
191.531000001,614.0
191.532000001,554.0
191.533000001,471.0
191.534000001,400.0
191.535000001,410.0
191.536000001,475.0
191.537000001,559.0
191.538000001,618.0
191.539000001,611.0
191.540000001,547.0
191.541000001,463.0
191.542000001,421.0
191.543000001,425.0
191.544000001,482.0
191.545000001,566.0
191.546000001,622.0
191.547000001,610.0
191.548000001,544.0
191.549000001,469.0
191.550000001,424.0
191.551000001,427.0
191.552000001,486.0
191.553000001,568.0
191.554000001,612.0
191.555000001,614.0
191.556000001,556.0
191.557000001,472.0
191.558000001,418.0
191.559000001,424.0
191.560000001,480.0
191.561000001,550.0
191.562000001,615.0
191.563000001,617.0
191.564000001,549.0
191.565000001,465.0
191.566000001,409.0
191.567000001,413.0
191.568000001,470.0
191.569000001,565.0
191.570000001,620.0
191.571000001,616.0
191.572000001,558.0
191.573000001,477.0
191.574000001,404.0
191.575000001,411.0
191.576000001,482.0
191.577000001,567.0
191.578000001,628.0
191.579000001,619.0
191.580000001,576.0
191.581000001,501.0
191.582000001,462.0
191.583000001,470.0
191.584000001,527.0
191.585000001,608.0
191.586000001,655.0
191.587000001,642.0
191.588000001,555.0
191.589000001,450.0
191.590000001,386.0
191.591000001,364.0
191.592000001,405.0
191.593000001,480.0
191.594000001,537.0
191.595000001,543.0
191.596000001,499.0
191.597000001,436.0
191.598000001,391.0
191.599000001,396.0
191.600000001,463.0
191.601000001,544.0
191.602000001,610.0
191.603000001,630.0
191.604000001,577.0
191.605000001,506.0
191.606000001,457.0
191.607000001,453.0
191.608000001,498.0
191.609000001,591.0
191.610000001,646.0
191.611000001,637.0
191.612000001,583.0
191.613000001,503.0
191.614000001,434.0
191.615000001,428.0
191.616000001,497.0
191.617000001,574.0
191.618000001,630.0
191.619000001,636.0
191.620000001,579.0
191.621000001,488.0
191.622000001,437.0
191.623000001,443.0
191.624000001,500.0
191.625000001,580.0
191.626000001,634.0
191.627000001,636.0
191.628000001,568.0
191.629000001,497.0
191.630000001,435.0
191.631000001,433.0
191.632000001,484.0
191.633000001,566.0
191.634000001,629.0
191.635000001,628.0
191.636000001,580.0
191.637000001,497.0
191.638000001,438.0
191.639000001,442.0
191.640000001,495.0
191.641000001,568.0
191.642000001,628.0
191.643000001,638.0
191.644000001,578.0
191.645000001,498.0
191.646000001,432.0
191.647000001,428.0
191.648000001,484.0
191.649000001,575.0
191.650000001,642.0
191.651000001,645.0
191.652000001,587.0
191.653000001,502.0
191.654000001,438.0
191.655000001,428.0
191.656000001,492.0
191.657000001,580.0
191.658000001,638.0
191.659000001,642.0
191.660000001,581.0
191.661000001,494.0
191.662000001,432.0
191.663000001,436.0
191.664000001,497.0
191.665000001,578.0
191.666000001,635.0
191.667000001,638.0
191.668000001,566.0
191.669000001,491.0
191.670000001,427.0
191.671000001,418.0
191.672000001,470.0
191.673000001,564.0
191.674000001,621.0
191.675000001,619.0
191.676000001,565.0
191.677000001,481.0
191.678000001,419.0
191.679000001,413.0
191.680000001,467.0
191.681000001,542.0
191.682000001,598.0
191.683000001,615.0
191.684000001,549.0
191.685000001,462.0
191.686000001,403.0
191.687000001,408.0
191.688000001,454.0
191.689000001,540.0
191.690000001,610.0
191.691000001,619.0
191.692000001,560.0
191.693000001,476.0
191.694000001,416.0
191.695000001,399.0
191.696000001,463.0
191.697000001,547.0
191.698000001,609.0
191.699000001,603.0
191.700000001,548.0
191.701000001,472.0
191.702000001,407.0
191.703000001,415.0
191.704000001,468.0
191.705000001,545.0
191.706000001,612.0
191.707000001,619.0
191.708000001,555.0
191.709000001,477.0
191.710000001,418.0
191.711000001,413.0
191.712000001,466.0
191.713000001,543.0
191.714000001,601.0
191.715000001,612.0
191.716000001,563.0
191.717000001,486.0
191.718000001,424.0
191.719000001,414.0
191.720000001,468.0
191.721000001,543.0
191.722000001,598.0
191.723000001,614.0
191.724000001,564.0
191.725000001,479.0
191.726000001,419.0
191.727000001,409.0
191.728000001,452.0
191.729000001,543.0
191.730000001,614.0
191.731000001,621.0
191.732000001,566.0
191.733000001,483.0
191.734000001,419.0
191.735000001,402.0
191.736000001,458.0
191.737000001,549.0
191.738000001,609.0
191.739000001,623.0
191.740000001,569.0
191.741000001,477.0
191.742000001,403.0
191.743000001,410.0
191.744000001,463.0
191.745000001,550.0
191.746000001,613.0
191.747000001,622.0
191.748000001,560.0
191.749000001,474.0
191.750000001,420.0
191.751000001,411.0
191.752000001,454.0
191.753000001,536.0
191.754000001,607.0
191.755000001,611.0
191.756000001,557.0
191.757000001,483.0
191.758000001,419.0
191.759000001,410.0
191.760000001,462.0
191.761000001,539.0
191.762000001,594.0
191.763000001,617.0
191.764000001,564.0
191.765000001,481.0
191.766000001,407.0
191.767000001,396.0
191.768000001,449.0
191.769000001,533.0
191.770000001,611.0
191.771000001,620.0
191.772000001,567.0
191.773000001,485.0
191.774000001,419.0
191.775000001,398.0
191.776000001,450.0
191.777000001,539.0
191.778000001,604.0
191.779000001,613.0
191.780000001,559.0
191.781000001,470.0
191.782000001,406.0
191.783000001,402.0
191.784000001,460.0
191.785000001,544.0
191.786000001,611.0
191.787000001,620.0
191.788000001,564.0
191.789000001,472.0
191.790000001,420.0
191.791000001,409.0
191.792000001,459.0
191.793000001,542.0
191.794000001,611.0
191.795000001,612.0
191.796000001,566.0
191.797000001,491.0
191.798000001,416.0
191.799000001,412.0
191.800000001,462.0
191.801000001,543.0
191.802000001,598.0
191.803000001,613.0
191.804000001,562.0
191.805000001,478.0
191.806000001,418.0
191.807000001,406.0
191.808000001,448.0
191.809000001,525.0
191.810000001,602.0
191.811000001,620.0
191.812000001,569.0
191.813000001,489.0
191.814000001,420.0
191.815000001,400.0
191.816000001,445.0
191.817000001,538.0
191.818000001,608.0
191.819000001,621.0
191.820000001,573.0
191.821000001,492.0
191.822000001,421.0
191.823000001,414.0
191.824000001,479.0
191.825000001,577.0
191.826000001,647.0
191.827000001,675.0
191.828000001,624.0
191.829000001,526.0
191.830000001,462.0
191.831000001,436.0
191.832000001,466.0
191.833000001,518.0
191.834000001,558.0
191.835000001,553.0
191.836000001,477.0
191.837000001,395.0
191.838000001,327.0
191.839000001,316.0
191.840000001,383.0
191.841000001,481.0
191.842000001,553.0
191.843000001,577.0
191.844000001,549.0
191.845000001,482.0
191.846000001,425.0
191.847000001,417.0
191.848000001,464.0
191.849000001,560.0
191.850000001,638.0
191.851000001,666.0
191.852000001,617.0
191.853000001,529.0
191.854000001,451.0
191.855000001,428.0
191.856000001,467.0
191.857000001,565.0
191.858000001,636.0
191.859000001,649.0
191.860000001,600.0
191.861000001,516.0
191.862000001,436.0
191.863000001,427.0
191.864000001,480.0
191.865000001,561.0
191.866000001,628.0
191.867000001,647.0
191.868000001,599.0
191.869000001,507.0
191.870000001,445.0
191.871000001,431.0
191.872000001,468.0
191.873000001,553.0
191.874000001,628.0
191.875000001,646.0
191.876000001,595.0
191.877000001,514.0
191.878000001,449.0
191.879000001,435.0
191.880000001,479.0
191.881000001,558.0
191.882000001,620.0
191.883000001,632.0
191.884000001,596.0
191.885000001,515.0
191.886000001,439.0
191.887000001,424.0
191.888000001,471.0
191.889000001,549.0
191.890000001,622.0
191.891000001,646.0
191.892000001,600.0
191.893000001,520.0
191.894000001,451.0
191.895000001,432.0
191.896000001,463.0
191.897000001,558.0
191.898000001,630.0
191.899000001,649.0
191.900000001,596.0
191.901000001,514.0
191.902000001,448.0
191.903000001,426.0
191.904000001,477.0
191.905000001,563.0
191.906000001,630.0
191.907000001,650.0
191.908000001,604.0
191.909000001,509.0
191.910000001,438.0
191.911000001,426.0
191.912000001,467.0
191.913000001,548.0
191.914000001,619.0
191.915000001,628.0
191.916000001,578.0
191.917000001,505.0
191.918000001,436.0
191.919000001,414.0
191.920000001,455.0
191.921000001,536.0
191.922000001,600.0
191.923000001,612.0
191.924000001,578.0
191.925000001,496.0
191.926000001,424.0
191.927000001,405.0
191.928000001,444.0
191.929000001,518.0
191.930000001,587.0
191.931000001,618.0
191.932000001,574.0
191.933000001,489.0
191.934000001,418.0
191.935000001,401.0
191.936000001,433.0
191.937000001,522.0
191.938000001,597.0
191.939000001,608.0
191.940000001,564.0
191.941000001,490.0
191.942000001,418.0
191.943000001,391.0
191.944000001,442.0
191.945000001,528.0
191.946000001,599.0
191.947000001,623.0
191.948000001,581.0
191.949000001,485.0
191.950000001,412.0
191.951000001,402.0
191.952000001,444.0
191.953000001,518.0
191.954000001,588.0
191.955000001,618.0
191.956000001,573.0
191.957000001,490.0
191.958000001,426.0
191.959000001,406.0
191.960000001,448.0
191.961000001,532.0
191.962000001,598.0
191.963000001,611.0
191.964000001,578.0
191.965000001,501.0
191.966000001,429.0
191.967000001,405.0
191.968000001,435.0
191.969000001,523.0
191.970000001,590.0
191.971000001,629.0
191.972000001,585.0
191.973000001,502.0
191.974000001,430.0
191.975000001,408.0
191.976000001,438.0
191.977000001,525.0
191.978000001,602.0
191.979000001,627.0
191.980000001,581.0
191.981000001,504.0
191.982000001,421.0
191.983000001,397.0
191.984000001,442.0
191.985000001,535.0
191.986000001,607.0
191.987000001,629.0
191.988000001,589.0
191.989000001,500.0
191.990000001,422.0
191.991000001,407.0
191.992000001,443.0
191.993000001,530.0
191.994000001,605.0
191.995000001,629.0
191.996000001,579.0
191.997000001,501.0
191.998000001,434.0
191.999000001,414.0
192.000000001,450.0
192.001000001,533.0
192.002000001,608.0
192.003000001,619.0
192.004000001,586.0
192.005000001,510.0
192.006000001,429.0
192.007000001,405.0
192.008000001,451.0
192.009000001,537.0
192.010000001,598.0
192.011000001,635.0
192.012000001,596.0
192.013000001,514.0
192.014000001,443.0
192.015000001,417.0
192.016000001,444.0
192.017000001,521.0
192.018000001,601.0
192.019000001,629.0
192.020000001,583.0
192.021000001,497.0
192.022000001,422.0
192.023000001,398.0
192.024000001,445.0
192.025000001,534.0
192.026000001,612.0
192.027000001,638.0
192.028000001,596.0
192.029000001,512.0
192.030000001,427.0
192.031000001,409.0
192.032000001,453.0
192.033000001,535.0
192.034000001,609.0
192.035000001,629.0
192.036000001,587.0
192.037000001,510.0
192.038000001,444.0
192.039000001,415.0
192.040000001,451.0
192.041000001,537.0
192.042000001,608.0
192.043000001,630.0
192.044000001,593.0
192.045000001,515.0
192.046000001,440.0
192.047000001,411.0
192.048000001,445.0
192.049000001,521.0
192.050000001,589.0
192.051000001,624.0
192.052000001,594.0
192.053000001,516.0
192.054000001,437.0
192.055000001,412.0
192.056000001,445.0
192.057000001,521.0
192.058000001,603.0
192.059000001,627.0
192.060000001,587.0
192.061000001,511.0
192.062000001,441.0
192.063000001,407.0
192.064000001,448.0
192.065000001,553.0
192.066000001,635.0
192.067000001,677.0
192.068000001,643.0
192.069000001,563.0
192.070000001,470.0
192.071000001,443.0
192.072000001,478.0
192.073000001,531.0
192.074000001,576.0
192.075000001,589.0
192.076000001,532.0
192.077000001,422.0
192.078000001,345.0
192.079000001,324.0
192.080000001,359.0
192.081000001,452.0
192.082000001,540.0
192.083000001,575.0
192.084000001,543.0
192.085000001,488.0
192.086000001,420.0
192.087000001,404.0
192.088000001,439.0
192.089000001,526.0
192.090000001,609.0
192.091000001,656.0
192.092000001,626.0
192.093000001,543.0
192.094000001,466.0
192.095000001,432.0
192.096000001,456.0
192.097000001,526.0
192.098000001,602.0
192.099000001,648.0
192.100000001,603.0
192.101000001,530.0
192.102000001,444.0
192.103000001,418.0
192.104000001,445.0
192.105000001,537.0
192.106000001,612.0
192.107000001,644.0
192.108000001,612.0
192.109000001,527.0
192.110000001,438.0
192.111000001,412.0
192.112000001,452.0
192.113000001,532.0
192.114000001,610.0
192.115000001,638.0
192.116000001,599.0
192.117000001,510.0
192.118000001,445.0
192.119000001,417.0
192.120000001,450.0
192.121000001,531.0
192.122000001,609.0
192.123000001,636.0
192.124000001,596.0
192.125000001,526.0
192.126000001,443.0
192.127000001,411.0
192.128000001,447.0
192.129000001,532.0
192.130000001,599.0
192.131000001,635.0
192.132000001,611.0
192.133000001,530.0
192.134000001,452.0
192.135000001,421.0
192.136000001,451.0
192.137000001,522.0
192.138000001,602.0
192.139000001,645.0
192.140000001,611.0
192.141000001,534.0
192.142000001,454.0
192.143000001,417.0
192.144000001,443.0
192.145000001,534.0
192.146000001,612.0
192.147000001,639.0
192.148000001,612.0
192.149000001,531.0
192.150000001,444.0
192.151000001,410.0
192.152000001,439.0
192.153000001,524.0
192.154000001,601.0
192.155000001,637.0
192.156000001,607.0
192.157000001,510.0
192.158000001,443.0
192.159000001,412.0
192.160000001,440.0
192.161000001,513.0
192.162000001,586.0
192.163000001,619.0
192.164000001,575.0
192.165000001,503.0
192.166000001,432.0
192.167000001,396.0
192.168000001,425.0
192.169000001,494.0
192.170000001,565.0
192.171000001,603.0
192.172000001,580.0
192.173000001,499.0
192.174000001,427.0
192.175000001,392.0
192.176000001,417.0
192.177000001,493.0
192.178000001,567.0
192.179000001,602.0
192.180000001,571.0
192.181000001,497.0
192.182000001,427.0
192.183000001,390.0
192.184000001,408.0
192.185000001,495.0
192.186000001,577.0
192.187000001,613.0
192.188000001,580.0
192.189000001,504.0
192.190000001,420.0
192.191000001,382.0
192.192000001,423.0
192.193000001,496.0
192.194000001,573.0
192.195000001,618.0
192.196000001,587.0
192.197000001,499.0
192.198000001,426.0
192.199000001,399.0
192.200000001,426.0
192.201000001,504.0
192.202000001,586.0
192.203000001,625.0
192.204000001,585.0
192.205000001,509.0
192.206000001,436.0
192.207000001,400.0
192.208000001,421.0
192.209000001,501.0
192.210000001,586.0
192.211000001,618.0
192.212000001,599.0
192.213000001,523.0
192.214000001,443.0
192.215000001,407.0
192.216000001,436.0
192.217000001,514.0
192.218000001,581.0
192.219000001,632.0
192.220000001,605.0
192.221000001,523.0
192.222000001,437.0
192.223000001,404.0
192.224000001,429.0
192.225000001,507.0
192.226000001,596.0
192.227000001,634.0
192.228000001,606.0
192.229000001,526.0
192.230000001,442.0
192.231000001,396.0
192.232000001,431.0
192.233000001,511.0
192.234000001,587.0
192.235000001,628.0
192.236000001,596.0
192.237000001,511.0
192.238000001,434.0
192.239000001,412.0
192.240000001,429.0
192.241000001,509.0
192.242000001,586.0
192.243000001,626.0
192.244000001,590.0
192.245000001,514.0
192.246000001,441.0
192.247000001,404.0
192.248000001,433.0
192.249000001,508.0
192.250000001,586.0
192.251000001,613.0
192.252000001,597.0
192.253000001,527.0
192.254000001,443.0
192.255000001,399.0
192.256000001,430.0
192.257000001,505.0
192.258000001,568.0
192.259000001,620.0
192.260000001,589.0
192.261000001,515.0
192.262000001,435.0
192.263000001,404.0
192.264000001,426.0
192.265000001,496.0
192.266000001,588.0
192.267000001,624.0
192.268000001,600.0
192.269000001,522.0
192.270000001,442.0
192.271000001,395.0
192.272000001,427.0
192.273000001,507.0
192.274000001,584.0
192.275000001,614.0
192.276000001,591.0
192.277000001,519.0
192.278000001,432.0
192.279000001,402.0
192.280000001,426.0
192.281000001,502.0
192.282000001,579.0
192.283000001,622.0
192.284000001,592.0
192.285000001,507.0
192.286000001,434.0
192.287000001,400.0
192.288000001,419.0
192.289000001,490.0
192.290000001,569.0
192.291000001,612.0
192.292000001,593.0
192.293000001,521.0
192.294000001,441.0
192.295000001,395.0
192.296000001,418.0
192.297000001,497.0
192.298000001,568.0
192.299000001,618.0
192.300000001,601.0
192.301000001,533.0
192.302000001,460.0
192.303000001,427.0
192.304000001,446.0
192.305000001,527.0
192.306000001,615.0
192.307000001,653.0
192.308000001,632.0
192.309000001,546.0
192.310000001,451.0
192.311000001,383.0
192.312000001,383.0
192.313000001,441.0
192.314000001,498.0
192.315000001,549.0
192.316000001,531.0
192.317000001,462.0
192.318000001,376.0
192.319000001,352.0
192.320000001,394.0
192.321000001,473.0
192.322000001,561.0
192.323000001,614.0
192.324000001,590.0
192.325000001,517.0
192.326000001,451.0
192.327000001,419.0
192.328000001,439.0
192.329000001,520.0
192.330000001,608.0
192.331000001,640.0
192.332000001,618.0
192.333000001,548.0
192.334000001,461.0
192.335000001,418.0
192.336000001,438.0
192.337000001,515.0
192.338000001,583.0
192.339000001,634.0
192.340000001,620.0
192.341000001,544.0
192.342000001,455.0
192.343000001,411.0
192.344000001,436.0
192.345000001,503.0
192.346000001,588.0
192.347000001,639.0
192.348000001,615.0
192.349000001,543.0
192.350000001,461.0
192.351000001,408.0
192.352000001,424.0
192.353000001,505.0
192.354000001,589.0
192.355000001,632.0
192.356000001,609.0
192.357000001,533.0
192.358000001,450.0
192.359000001,410.0
192.360000001,435.0
192.361000001,509.0
192.362000001,589.0
192.363000001,631.0
192.364000001,608.0
192.365000001,526.0
192.366000001,456.0
192.367000001,417.0
192.368000001,433.0
192.369000001,504.0
192.370000001,582.0
192.371000001,620.0
192.372000001,603.0
192.373000001,542.0
192.374000001,461.0
192.375000001,416.0
192.376000001,435.0
192.377000001,506.0
192.378000001,582.0
192.379000001,629.0
192.380000001,612.0
192.381000001,535.0
192.382000001,451.0
192.383000001,416.0
192.384000001,434.0
192.385000001,496.0
192.386000001,582.0
192.387000001,632.0
192.388000001,610.0
192.389000001,537.0
192.390000001,453.0
192.391000001,405.0
192.392000001,412.0
192.393000001,486.0
192.394000001,570.0
192.395000001,609.0
192.396000001,586.0
192.397000001,516.0
192.398000001,428.0
192.399000001,380.0
192.400000001,406.0
192.401000001,480.0
192.402000001,562.0
192.403000001,601.0
192.404000001,584.0
192.405000001,501.0
192.406000001,424.0
192.407000001,385.0
192.408000001,401.0
192.409000001,465.0
192.410000001,548.0
192.411000001,595.0
192.412000001,571.0
192.413000001,511.0
192.414000001,432.0
192.415000001,390.0
192.416000001,404.0
192.417000001,477.0
192.418000001,553.0
192.419000001,599.0
192.420000001,587.0
192.421000001,517.0
192.422000001,434.0
192.423000001,384.0
192.424000001,393.0
192.425000001,458.0
192.426000001,550.0
192.427000001,604.0
192.428000001,589.0
192.429000001,519.0
192.430000001,432.0
192.431000001,389.0
192.432000001,392.0
192.433000001,473.0
192.434000001,553.0
192.435000001,606.0
192.436000001,589.0
192.437000001,521.0
192.438000001,432.0
192.439000001,384.0
192.440000001,410.0
192.441000001,477.0
192.442000001,555.0
192.443000001,607.0
192.444000001,594.0
192.445000001,516.0
192.446000001,435.0
192.447000001,397.0
192.448000001,404.0
192.449000001,480.0
192.450000001,562.0
192.451000001,611.0
192.452000001,587.0
192.453000001,528.0
192.454000001,450.0
192.455000001,405.0
192.456000001,415.0
192.457000001,483.0
192.458000001,562.0
192.459000001,606.0
192.460000001,600.0
192.461000001,534.0
192.462000001,442.0
192.463000001,398.0
192.464000001,416.0
192.465000001,481.0
192.466000001,563.0
192.467000001,620.0
192.468000001,607.0
192.469000001,540.0
192.470000001,454.0
192.471000001,409.0
192.472000001,410.0
192.473000001,485.0
192.474000001,572.0
192.475000001,623.0
192.476000001,606.0
192.477000001,532.0
192.478000001,452.0
192.479000001,397.0
192.480000001,416.0
192.481000001,483.0
192.482000001,566.0
192.483000001,617.0
192.484000001,603.0
192.485000001,533.0
192.486000001,442.0
192.487000001,402.0
192.488000001,414.0
192.489000001,479.0
192.490000001,563.0
192.491000001,606.0
192.492000001,596.0
192.493000001,538.0
192.494000001,456.0
192.495000001,411.0
192.496000001,419.0
192.497000001,483.0
192.498000001,566.0
192.499000001,608.0
192.500000001,602.0
192.501000001,543.0
192.502000001,456.0
192.503000001,403.0
192.504000001,417.0
192.505000001,474.0
192.506000001,556.0
192.507000001,625.0
192.508000001,616.0
192.509000001,547.0
192.510000001,459.0
192.511000001,413.0
192.512000001,414.0
192.513000001,478.0
192.514000001,569.0
192.515000001,610.0
192.516000001,600.0
192.517000001,541.0
192.518000001,459.0
192.519000001,397.0
192.520000001,410.0
192.521000001,477.0
192.522000001,564.0
192.523000001,615.0
192.524000001,606.0
192.525000001,532.0
192.526000001,444.0
192.527000001,407.0
192.528000001,415.0
192.529000001,484.0
192.530000001,567.0
192.531000001,617.0
192.532000001,601.0
192.533000001,537.0
192.534000001,453.0
192.535000001,404.0
192.536000001,420.0
192.537000001,493.0
192.538000001,584.0
192.539000001,637.0
192.540000001,639.0
192.541000001,577.0
192.542000001,491.0
192.543000001,437.0
192.544000001,423.0
192.545000001,471.0
192.546000001,535.0
192.547000001,578.0
192.548000001,553.0
192.549000001,470.0
192.550000001,372.0
192.551000001,319.0
192.552000001,322.0
192.553000001,392.0
192.554000001,495.0
192.555000001,568.0
192.556000001,569.0
192.557000001,512.0
192.558000001,426.0
192.559000001,378.0
192.560000001,399.0
192.561000001,480.0
192.562000001,575.0
192.563000001,638.0
192.564000001,636.0
192.565000001,569.0
192.566000001,467.0
192.567000001,424.0
192.568000001,434.0
192.569000001,494.0
192.570000001,575.0
192.571000001,630.0
192.572000001,616.0
192.573000001,546.0
192.574000001,476.0
192.575000001,428.0
192.576000001,430.0
192.577000001,501.0
192.578000001,583.0
192.579000001,628.0
192.580000001,623.0
192.581000001,566.0
192.582000001,481.0
192.583000001,431.0
192.584000001,435.0
192.585000001,498.0
192.586000001,575.0
192.587000001,627.0
192.588000001,627.0
192.589000001,565.0
192.590000001,479.0
192.591000001,430.0
192.592000001,430.0
192.593000001,487.0
192.594000001,578.0
192.595000001,635.0
192.596000001,622.0
192.597000001,554.0
192.598000001,470.0
192.599000001,420.0
192.600000001,419.0
192.601000001,489.0
192.602000001,573.0
192.603000001,626.0
192.604000001,620.0
192.605000001,555.0
192.606000001,467.0
192.607000001,419.0
192.608000001,434.0
192.609000001,493.0
192.610000001,576.0
192.611000001,625.0
192.612000001,611.0
192.613000001,548.0
192.614000001,469.0
192.615000001,428.0
192.616000001,440.0
192.617000001,503.0
192.618000001,584.0
192.619000001,629.0
192.620000001,616.0
192.621000001,556.0
192.622000001,474.0
192.623000001,424.0
192.624000001,429.0
192.625000001,489.0
192.626000001,557.0
192.627000001,618.0
192.628000001,614.0
192.629000001,553.0
192.630000001,464.0
192.631000001,406.0
