126.285,1.0
126.286,1.0
126.287,0.0
126.288,34.0
126.289,0.0
126.29,1.0
126.291,1.0
126.292,0.0
126.293,0.0
126.294,1.0
126.295,1.0
126.296,0.0
126.297,0.0
126.298,0.0
126.299,1.0
126.3,1.0
126.301,1.0
126.302,1.0
126.303,1.0
126.304,0.0
126.305,0.0
126.306,1.0
126.307,0.0
126.308,1.0
126.309,1.0
126.31,1.0
126.311,0.0
126.312,0.0
126.313,1.0
126.314,0.0
126.315,1.0
126.316,1.0
126.317,1.0
126.318,1.0
126.319,1.0
126.32,0.0
126.321,0.0
126.322,0.0
126.323,0.0
126.324,1.0
126.325,0.0
126.326,0.0
126.327,0.0
126.328,0.0
126.329,0.0
126.33,1.0
126.331,1.0
126.332,1.0
126.333,0.0
126.334,0.0
126.335,0.0
126.336,0.0
126.337,1.0
126.338,1.0
126.339,1.0
126.34,0.0
126.341,0.0
126.342,1.0
126.343,0.0
126.344,0.0
126.345,1.0
126.346,1.0
126.347,1.0
126.348,1.0
126.349,1.0
126.35,1.0
126.351,1.0
126.352,1.0
126.353,1.0
126.354,1.0
126.355,0.0
126.356,0.0
126.357,1.0
126.358,1.0
126.359,0.0
126.36,1.0
126.361,1.0
126.362,0.0
126.363,1.0
126.364,0.0
126.365,0.0
126.366,0.0
126.367,1.0
126.368,1.0
126.369,1.0
126.37,0.0
126.371,0.0
126.372,0.0
126.373,1.0
126.374,1.0
126.375,0.0
126.376,0.0
126.377,0.0
126.378,1.0
126.379,1.0
126.38,1.0
126.381,1.0
126.382,1.0
126.383,1.0
126.384,1.0
126.385,0.0
126.386,0.0
126.387,1.0
126.388,1.0
126.389,1.0
126.39,0.0
126.391,1.0
126.392,0.0
126.393,1.0
126.394,1.0
126.395,0.0
126.396,1.0
126.397,1.0
126.398,0.0
126.399,1.0
126.4,1.0
126.401,0.0
126.402,0.0
126.403,1.0
126.404,0.0
126.405,1.0
126.406,1.0
126.407,1.0
126.408,0.0
126.409,1.0
126.41,1.0
126.411,1.0
126.412,0.0
126.413,0.0
126.414,1.0
126.415,1.0
126.416,0.0
126.417,0.0
126.418,0.0
126.419,0.0
126.42,1.0
126.421,1.0
126.422,1.0
126.423,1.0
126.424,1.0
126.425,1.0
126.426,1.0
126.427,0.0
126.428,1.0
126.429,1.0
126.43,0.0
126.431,0.0
126.432,1.0
126.433,1.0
126.434,1.0
126.435,1.0
126.436,1.0
126.437,1.0
126.438,0.0
126.439,1.0
126.44,1.0
126.441,1.0
126.442,1.0
126.443,0.0
126.444,1.0
126.445,1.0
126.446,1.0
126.447,1.0
126.448,0.0
126.449,1.0
126.45,1.0
126.451,0.0
126.452,1.0
126.453,1.0
126.454,1.0
126.455,0.0
126.456,1.0
126.457,0.0
126.458,0.0
126.459,1.0
126.46,0.0
126.461,1.0
126.462,1.0
126.463,1.0
126.464,1.0
126.465,1.0
126.466,2.0
126.467,1.0
126.468,1.0
126.469,1.0
126.47,0.0
126.471,1.0
126.472,0.0
126.473,0.0
126.474,1.0
126.475,1.0
126.476,1.0
126.477,1.0
126.478,0.0
126.479,0.0
126.48,0.0
126.481,1.0
126.482,1.0
126.483,0.0
126.484,1.0
126.485,0.0
126.486,0.0
126.487,0.0
126.488,44.0
126.489,0.0
126.49,1.0
126.491,0.0
126.492,0.0
126.493,1.0
126.494,0.0
126.495,0.0
126.496,64.0
126.497,0.0
126.498,0.0
126.499,0.0
126.5,0.0
126.501,0.0
126.502,0.0
126.503,0.0
126.504,334.0
126.505,0.0
126.506,0.0
126.507,0.0
126.508,0.0
126.509,0.0
126.51,1.0
126.511,2.0
126.512,980.0
126.513,813.0
126.514,5.0
126.515,7.0
126.516,16.0
126.517,53.0
126.518,104.0
126.519,197.0
126.52,1020.0
126.521,995.0
126.522,310.0
126.523,288.0
126.524,328.0
126.525,373.0
126.526,413.0
126.527,709.0
126.528,1020.0
126.529,1020.0
126.53,784.0
126.531,522.0
126.532,537.0
126.533,573.0
126.534,600.0
126.535,1023.0
126.536,1019.0
126.537,1019.0
126.538,1020.0
126.539,654.0
126.54,614.0
126.541,651.0
126.542,866.0
126.543,1019.0
126.544,1019.0
126.545,1019.0
126.546,1019.0
126.547,915.0
126.548,566.0
126.549,559.0
126.55,1020.0
126.551,1019.0
126.552,1020.0
126.553,1020.0
126.554,1020.0
126.555,1020.0
126.556,774.0
126.557,1020.0
126.558,1019.0
126.559,1019.0
126.56,1020.0
126.561,1020.0
126.562,1020.0
126.563,1019.0
126.564,1020.0
126.565,1019.0
126.566,1019.0
126.567,1019.0
126.568,1019.0
126.569,1019.0
126.57,1019.0
126.571,1021.0
126.572,1019.0
126.573,1019.0
126.574,1019.0
126.575,1019.0
126.576,1020.0
126.577,1019.0
126.578,1020.0
126.579,1020.0
126.58,1019.0
126.581,1020.0
126.582,1020.0
126.583,1019.0
126.584,1019.0
126.585,1020.0
126.586,1019.0
126.587,1019.0
126.588,1021.0
126.589,1019.0
126.59,1019.0
126.591,1019.0
126.592,1020.0
126.593,1019.0
126.594,1019.0
126.595,1019.0
126.596,1020.0
126.597,1020.0
126.598,1020.0
126.599,1019.0
126.6,1019.0
126.601,1019.0
126.602,1020.0
126.603,1020.0
126.604,1021.0
126.605,1020.0
126.606,1020.0
126.607,1020.0
126.608,1019.0
126.609,1020.0
126.61,1019.0
126.611,1019.0
126.612,1020.0
126.613,1019.0
126.614,1019.0
126.615,1020.0
126.616,1020.0
126.617,1020.0
126.618,1020.0
126.619,1019.0
126.62,1007.0
126.621,1019.0
126.622,1019.0
126.623,1019.0
126.624,1019.0
126.625,1019.0
126.626,1020.0
126.627,1020.0
126.628,498.0
126.629,608.0
126.63,1020.0
126.631,1019.0
126.632,1019.0
126.633,1019.0
126.634,1019.0
126.635,1019.0
126.636,0.0
126.637,36.0
126.638,1020.0
126.639,1019.0
126.64,1019.0
126.641,1019.0
126.642,1020.0
126.643,1000.0
126.644,0.0
126.645,0.0
126.646,1019.0
126.647,1020.0
126.648,1019.0
126.649,1019.0
126.65,1020.0
126.651,822.0
126.652,0.0
126.653,0.0
126.654,997.0
126.655,1019.0
126.656,1019.0
126.657,1019.0
126.658,1019.0
126.659,474.0
126.66,0.0
126.661,0.0
126.662,679.0
126.663,1020.0
126.664,1019.0
126.665,1019.0
126.666,1019.0
126.667,532.0
126.668,0.0
126.669,1.0
126.67,679.0
126.671,1019.0
126.672,1012.0
126.673,1019.0
126.674,1020.0
126.675,378.0
126.676,1.0
126.677,0.0
126.678,680.0
126.679,1018.0
126.68,1019.0
126.681,1019.0
126.682,1021.0
126.683,483.0
126.684,1.0
126.685,0.0
126.686,723.0
126.687,1019.0
126.688,1019.0
126.689,1020.0
126.69,1020.0
126.691,688.0
126.692,1.0
126.693,0.0
126.694,1020.0
126.695,1020.0
126.696,1019.0
126.697,1019.0
126.698,1019.0
126.699,928.0
126.7,0.0
126.701,0.0
126.702,1019.0
126.703,1019.0
126.704,1019.0
126.705,1019.0
126.706,1019.0
126.707,1014.0
126.708,0.0
126.709,2.0
126.71,1020.0
126.711,1020.0
126.712,1019.0
126.713,1019.0
126.714,1020.0
126.715,1013.0
126.716,0.0
126.717,3.0
126.718,1019.0
126.719,1019.0
126.72,1018.0
126.721,1020.0
126.722,1019.0
126.723,994.0
126.724,0.0
126.725,0.0
126.726,1020.0
126.727,1019.0
126.728,1020.0
126.729,1020.0
126.73,1019.0
126.731,830.0
126.732,0.0
126.733,0.0
126.734,893.0
126.735,1019.0
126.736,1019.0
126.737,1019.0
126.738,1019.0
126.739,451.0
126.74,1.0
126.741,1.0
126.742,322.0
126.743,1020.0
126.744,1019.0
126.745,1019.0
126.746,1020.0
126.747,0.0
126.748,1.0
126.749,1.0
126.75,87.0
126.751,1020.0
126.752,1020.0
126.753,1019.0
126.754,1021.0
126.755,0.0
126.756,1.0
126.757,1.0
126.758,12.0
126.759,1019.0
126.76,1018.0
126.761,1020.0
126.762,1020.0
126.763,0.0
126.764,1.0
126.765,1.0
126.766,4.0
126.767,1020.0
126.768,1019.0
126.769,1019.0
126.77,1020.0
126.771,1.0
126.772,1.0
126.773,0.0
126.774,0.0
126.775,1019.0
126.776,1019.0
126.777,1019.0
126.778,1018.0
126.779,1.0
126.78,0.0
126.781,0.0
126.782,0.0
126.783,1019.0
126.784,1019.0
126.785,1020.0
126.786,1021.0
126.787,0.0
126.788,1.0
126.789,0.0
126.79,0.0
126.791,1019.0
126.792,1020.0
126.793,1019.0
126.794,1010.0
126.795,1.0
126.796,1.0
126.797,0.0
126.798,0.0
126.799,1016.0
126.8,1020.0
126.801,1017.0
126.802,941.0
126.803,0.0
126.804,0.0
126.805,1.0
126.806,0.0
126.807,1020.0
126.808,1021.0
126.809,1019.0
126.81,978.0
126.811,0.0
126.812,1.0
126.813,1.0
126.814,0.0
126.815,1020.0
126.816,1019.0
126.817,1019.0
126.818,963.0
126.819,0.0
126.82,0.0
126.821,1.0
126.822,0.0
126.823,1019.0
126.824,1019.0
126.825,1020.0
126.826,975.0
126.827,1.0
126.828,1.0
126.829,1.0
126.83,0.0
126.831,1020.0
126.832,1018.0
126.833,1019.0
126.834,941.0
126.835,1.0
126.836,1.0
126.837,0.0
126.838,0.0
126.839,1020.0
126.84,1019.0
126.841,1019.0
126.842,658.0
126.843,1.0
126.844,2.0
126.845,2.0
126.846,1.0
126.847,629.0
126.848,1019.0
126.849,1021.0
126.85,560.0
126.851,0.0
126.852,1.0
126.853,1.0
126.854,1.0
126.855,608.0
126.856,1019.0
126.857,1019.0
126.858,557.0
126.859,1.0
126.86,1.0
126.861,1.0
126.862,0.0
126.863,605.0
126.864,1020.0
126.865,1020.0
126.866,677.0
126.867,0.0
126.868,0.0
126.869,1.0
126.87,1.0
126.871,951.0
126.872,1019.0
126.873,1019.0
126.874,793.0
126.875,1.0
126.876,1.0
126.877,0.0
126.878,0.0
126.879,1019.0
126.88,1020.0
126.881,1018.0
126.882,853.0
126.883,1.0
126.884,0.0
126.885,0.0
126.886,0.0
126.887,1020.0
126.888,1020.0
126.889,1019.0
126.89,974.0
126.891,0.0
126.892,0.0
126.893,0.0
126.894,1.0
126.895,1019.0
126.896,1019.0
126.897,1018.0
126.898,1004.0
126.899,0.0
126.9,0.0
126.901,0.0
126.902,0.0
126.903,1020.0
126.904,1019.0
126.905,1020.0
126.906,1017.0
126.907,0.0
126.908,0.0
126.909,0.0
126.91,0.0
126.911,1019.0
126.912,1020.0
126.913,1013.0
126.914,1012.0
126.915,0.0
126.916,1.0
126.917,0.0
126.918,0.0
126.919,1019.0
126.92,1020.0
126.921,1020.0
126.922,1019.0
126.923,0.0
126.924,0.0
126.925,0.0
126.926,0.0
126.927,1020.0
126.928,1020.0
126.929,1020.0
126.93,1018.0
126.931,0.0
126.932,0.0
126.933,0.0
126.934,0.0
126.935,1020.0
126.936,1020.0
126.937,1019.0
126.938,1021.0
126.939,0.0
126.94,0.0
126.941,0.0
126.942,0.0
126.943,1023.0
126.944,1019.0
126.945,1022.0
126.946,1019.0
126.947,0.0
126.948,0.0
126.949,0.0
126.95,0.0
126.951,1020.0
126.952,1020.0
126.953,1019.0
126.954,1019.0
126.955,0.0
126.956,0.0
126.957,0.0
126.958,0.0
126.959,1019.0
126.96,1019.0
126.961,1020.0
126.962,1020.0
126.963,1.0
126.964,1.0
126.965,1.0
126.966,1.0
126.967,1020.0
126.968,1020.0
126.969,1019.0
126.97,1020.0
126.971,0.0
126.972,0.0
126.973,0.0
126.974,6.0
126.975,1019.0
126.976,1020.0
126.977,1019.0
126.978,1020.0
126.979,0.0
126.98,0.0
126.981,0.0
126.982,0.0
126.983,1019.0
126.984,1019.0
126.985,1019.0
126.986,1020.0
126.987,0.0
126.988,0.0
126.989,0.0
126.99,1.0
126.991,1020.0
126.992,1019.0
126.993,1019.0
126.994,1019.0
126.995,0.0
126.996,0.0
126.997,0.0
126.998,3.0
126.999,1020.0
127.0,1018.0
127.001,1018.0
127.002,1021.0
127.003,0.0
127.004,0.0
127.005,0.0
127.006,13.0
127.007,1020.0
127.008,1019.0
127.009,1020.0
127.01,1021.0
127.011,0.0
127.012,0.0
127.013,0.0
127.014,73.0
127.015,1019.0
127.016,1020.0
127.017,1019.0
127.018,1019.0
127.019,92.0
127.02,0.0
127.021,0.0
127.022,152.0
127.023,1019.0
127.024,1020.0
127.025,1020.0
127.026,1020.0
127.027,386.0
127.028,0.0
127.029,0.0
127.03,218.0
127.031,1020.0
127.032,1019.0
127.033,1019.0
127.034,1019.0
127.035,552.0
127.036,0.0
127.037,0.0
127.038,256.0
127.039,1020.0
127.04,1020.0
127.041,1019.0
127.042,1020.0
127.043,232.0
127.044,0.0
127.045,0.0
127.046,171.0
127.047,1019.0
127.048,1020.0
127.049,1017.0
127.05,1019.0
127.051,137.0
127.052,0.0
127.053,0.0
127.054,137.0
127.055,1020.0
127.056,1019.0
127.057,1020.0
127.058,1019.0
127.059,302.0
127.06,0.0
127.061,0.0
127.062,215.0
127.063,1020.0
127.064,1020.0
127.065,1019.0
127.066,1020.0
127.067,665.0
127.068,0.0
127.069,0.0
127.07,445.0
127.071,1020.0
127.072,1019.0
127.073,1019.0
127.074,1018.0
127.075,848.0
127.076,0.0
127.077,0.0
127.078,686.0
127.079,1020.0
127.08,1019.0
127.081,1020.0
127.082,1020.0
127.083,717.0
127.084,1.0
127.085,0.0
127.086,504.0
127.087,1020.0
127.088,1019.0
127.089,1020.0
127.09,1019.0
127.091,712.0
127.092,0.0
127.093,0.0
127.094,480.0
127.095,1020.0
127.096,1020.0
127.097,1019.0
127.098,1020.0
127.099,638.0
127.1,1.0
127.101,0.0
127.102,463.0
127.103,1018.0
127.104,1020.0
127.105,1019.0
127.106,1019.0
127.107,674.0
127.108,1.0
127.109,0.0
127.11,330.0
127.111,1020.0
127.112,1020.0
127.113,1017.0
127.114,1020.0
127.115,516.0
127.116,0.0
127.117,0.0
127.118,346.0
127.119,1019.0
127.12,1019.0
127.121,1019.0
127.122,1022.0
127.123,389.0
127.124,1.0
127.125,1.0
127.126,173.0
127.127,1019.0
127.128,1019.0
127.129,1019.0
127.13,1020.0
127.131,6.0
127.132,1.0
127.133,0.0
127.134,47.0
127.135,1019.0
127.136,1019.0
127.137,1019.0
127.138,1020.0
127.139,0.0
127.14,0.0
127.141,0.0
127.142,11.0
127.143,1019.0
127.144,1019.0
127.145,1020.0
127.146,1020.0
127.147,0.0
127.148,0.0
127.149,1.0
127.15,2.0
127.151,1019.0
127.152,1019.0
127.153,1020.0
127.154,1020.0
127.155,0.0
127.156,1.0
127.157,0.0
127.158,1.0
127.159,1020.0
127.16,1019.0
127.161,1020.0
127.162,1020.0
127.163,0.0
127.164,1.0
127.165,1.0
127.166,2.0
127.167,1020.0
127.168,1019.0
127.169,1020.0
127.17,1020.0
127.171,1.0
127.172,1.0
127.173,0.0
127.174,0.0
127.175,1019.0
127.176,1020.0
127.177,1019.0
127.178,1020.0
127.179,0.0
127.18,0.0
127.181,0.0
127.182,2.0
127.183,1019.0
127.184,1020.0
127.185,1019.0
127.186,1020.0
127.187,0.0
127.188,0.0
127.189,0.0
127.19,0.0
127.191,1019.0
127.192,1019.0
127.193,1019.0
127.194,1020.0
127.195,0.0
127.196,0.0
127.197,0.0
127.198,0.0
127.199,1020.0
127.2,1019.0
127.201,1019.0
127.202,1020.0
127.203,2.0
127.204,0.0
127.205,1.0
127.206,2.0
127.207,1020.0
127.208,1019.0
127.209,1020.0
127.21,1020.0
127.211,0.0
127.212,1.0
127.213,0.0
127.214,1.0
127.215,1020.0
127.216,1021.0
127.217,1018.0
127.218,1020.0
127.219,0.0
127.22,0.0
127.221,1.0
127.222,0.0
127.223,1019.0
127.224,1020.0
127.225,1019.0
127.226,1020.0
127.227,0.0
127.228,0.0
127.229,0.0
127.23,0.0
127.231,1023.0
127.232,1019.0
127.233,1019.0
127.234,1019.0
127.235,0.0
127.236,0.0
127.237,0.0
127.238,0.0
127.239,1019.0
127.24,1019.0
127.241,1019.0
127.242,1020.0
127.243,0.0
127.244,0.0
127.245,0.0
127.246,0.0
127.247,1019.0
127.248,1020.0
127.249,1020.0
127.25,1019.0
127.251,0.0
127.252,2.0
127.253,0.0
127.254,0.0
127.255,1019.0
127.256,1019.0
127.257,1019.0
127.258,1020.0
127.259,0.0
127.26,0.0
127.261,0.0
127.262,0.0
127.263,1020.0
127.264,1020.0
127.265,1020.0
127.266,1020.0
127.267,0.0
127.268,0.0
127.269,0.0
127.27,0.0
127.271,1020.0
127.272,1019.0
127.273,1020.0
127.274,1020.0
127.275,0.0
127.276,0.0
127.277,0.0
127.278,0.0
127.279,1020.0
127.28,1019.0
127.281,1019.0
127.282,1020.0
127.283,0.0
127.284,0.0
127.285,0.0
127.286,0.0
127.287,1020.0
127.288,1020.0
127.289,1019.0
127.29,1020.0
127.291,1.0
127.292,0.0
127.293,0.0
127.294,0.0
127.295,1019.0
127.296,1019.0
127.297,1019.0
127.298,1021.0
127.299,1.0
127.3,0.0
127.301,0.0
127.302,0.0
127.303,1019.0
127.304,1019.0
127.305,1020.0
127.306,1020.0
127.307,0.0
127.308,0.0
127.309,0.0
127.31,0.0
127.311,1020.0
127.312,1020.0
127.313,1019.0
127.314,1021.0
127.315,0.0
127.316,0.0
127.317,0.0
127.318,0.0
127.319,1019.0
127.32,1019.0
127.321,1019.0
127.322,1023.0
127.323,1.0
127.324,0.0
127.325,0.0
127.326,0.0
127.327,1019.0
127.328,1019.0
127.329,1020.0
127.33,1020.0
127.331,0.0
127.332,0.0
127.333,0.0
127.334,0.0
127.335,1020.0
127.336,1019.0
127.337,1019.0
127.338,1021.0
127.339,0.0
127.34,4.0
127.341,0.0
127.342,0.0
127.343,1019.0
127.344,1019.0
127.345,1019.0
127.346,1021.0
127.347,1.0
127.348,0.0
127.349,0.0
127.35,1.0
127.351,785.0
127.352,1020.0
127.353,1019.0
127.354,975.0
127.355,0.0
127.356,0.0
127.357,0.0
127.358,0.0
127.359,545.0
127.36,1019.0
127.361,1020.0
127.362,952.0
127.363,0.0
127.364,0.0
127.365,0.0
127.366,0.0
127.367,760.0
127.368,1020.0
127.369,1019.0
127.37,1016.0
127.371,0.0
127.372,0.0
127.373,0.0
127.374,0.0
127.375,1020.0
127.376,1020.0
127.377,1019.0
127.378,1020.0
127.379,0.0
127.38,0.0
127.381,0.0
127.382,4.0
127.383,1019.0
127.384,1019.0
127.385,1020.0
127.386,1020.0
127.387,704.0
127.388,0.0
127.389,0.0
127.39,586.0
127.391,1019.0
127.392,1019.0
127.393,1020.0
127.394,1019.0
127.395,1020.0
127.396,31.0
127.397,18.0
127.398,1020.0
127.399,1020.0
127.4,1020.0
127.401,1019.0
127.402,1020.0
127.403,1020.0
127.404,903.0
127.405,513.0
127.406,1020.0
127.407,1019.0
127.408,1019.0
127.409,1020.0
127.41,1020.0
127.411,1019.0
127.412,998.0
127.413,1020.0
127.414,1019.0
127.415,1019.0
127.416,1020.0
127.417,1020.0
127.418,1019.0
127.419,1019.0
127.42,1011.0
127.421,1020.0
127.422,1020.0
127.423,1019.0
127.424,1020.0
127.425,1019.0
127.426,1019.0
127.427,1019.0
127.428,1018.0
127.429,1021.0
127.43,1019.0
127.431,1019.0
127.432,1020.0
127.433,1019.0
127.434,1020.0
127.435,1019.0
127.436,998.0
127.437,925.0
127.438,1019.0
127.439,1020.0
127.44,1019.0
127.441,1021.0
127.442,1020.0
127.443,1019.0
127.444,863.0
127.445,264.0
127.446,1019.0
127.447,1020.0
127.448,1020.0
127.449,1019.0
127.45,1020.0
127.451,1020.0
127.452,0.0
127.453,0.0
127.454,1020.0
127.455,1020.0
127.456,1019.0
127.457,1019.0
127.458,1020.0
127.459,955.0
127.46,1.0
127.461,1.0
127.462,255.0
127.463,1019.0
127.464,1020.0
127.465,1018.0
127.466,1020.0
127.467,590.0
127.468,0.0
127.469,1.0
127.47,30.0
127.471,1020.0
127.472,1018.0
127.473,1018.0
127.474,1019.0
127.475,20.0
127.476,1.0
127.477,0.0
127.478,0.0
127.479,1019.0
127.48,1020.0
127.481,1018.0
127.482,1019.0
127.483,0.0
127.484,1.0
127.485,1.0
127.486,0.0
127.487,1020.0
127.488,1019.0
127.489,1020.0
127.49,1021.0
127.491,0.0
127.492,1.0
127.493,1.0
127.494,0.0
127.495,1020.0
127.496,1020.0
127.497,1020.0
127.498,1020.0
127.499,1.0
127.5,1.0
127.501,0.0
127.502,0.0
127.503,1019.0
127.504,1019.0
127.505,1019.0
127.506,1020.0
127.507,1.0
127.508,1.0
127.509,1.0
127.51,1.0
127.511,1019.0
127.512,1019.0
127.513,1019.0
127.514,1020.0
127.515,1.0
127.516,2.0
127.517,0.0
127.518,1.0
127.519,1020.0
127.52,1018.0
127.521,1020.0
127.522,1020.0
127.523,0.0
127.524,1.0
127.525,1.0
127.526,0.0
127.527,1013.0
127.528,1020.0
127.529,1020.0
127.53,1021.0
127.531,0.0
127.532,1.0
127.533,0.0
127.534,0.0
127.535,1019.0
127.536,1019.0
127.537,1020.0
127.538,1020.0
127.539,0.0
127.54,0.0
127.541,1.0
127.542,0.0
127.543,1020.0
127.544,1020.0
127.545,1020.0
127.546,1019.0
127.547,1.0
127.548,1.0
127.549,0.0
127.55,1.0
127.551,1019.0
127.552,1019.0
127.553,1019.0
127.554,1021.0
127.555,0.0
127.556,0.0
127.557,2.0
127.558,0.0
127.559,1019.0
127.56,1019.0
127.561,1019.0
127.562,1020.0
127.563,1.0
127.564,1.0
127.565,1.0
127.566,0.0
127.567,1023.0
127.568,1019.0
127.569,1019.0
127.57,1021.0
127.571,0.0
127.572,1.0
127.573,1.0
127.574,1.0
127.575,1020.0
127.576,1019.0
127.577,1019.0
127.578,1021.0
127.579,1.0
127.58,1.0
127.581,1.0
127.582,0.0
127.583,1019.0
127.584,1019.0
127.585,1020.0
127.586,1020.0
127.587,0.0
127.588,0.0
127.589,1.0
127.59,0.0
127.591,1019.0
127.592,1019.0
127.593,1019.0
127.594,1021.0
127.595,0.0
127.596,1.0
127.597,0.0
127.598,0.0
127.599,945.0
127.6,1018.0
127.601,1019.0
127.602,1020.0
127.603,1.0
127.604,1.0
127.605,1.0
127.606,0.0
127.607,725.0
127.608,1020.0
127.609,1020.0
127.61,1019.0
127.611,5.0
127.612,0.0
127.613,0.0
127.614,0.0
127.615,880.0
127.616,1020.0
127.617,1019.0
127.618,1020.0
127.619,1.0
127.62,0.0
127.621,2.0
127.622,1.0
127.623,997.0
127.624,1019.0
127.625,1019.0
127.626,1019.0
127.627,0.0
127.628,0.0
127.629,0.0
127.63,1.0
127.631,967.0
127.632,1018.0
127.633,1020.0
127.634,1021.0
127.635,0.0
127.636,1.0
127.637,0.0
127.638,0.0
127.639,947.0
127.64,1020.0
127.641,1020.0
127.642,1021.0
127.643,4.0
127.644,0.0
127.645,1.0
127.646,0.0
127.647,1019.0
127.648,1019.0
127.649,1021.0
127.65,1020.0
127.651,1.0
127.652,0.0
127.653,1.0
127.654,1.0
127.655,1021.0
127.656,1019.0
127.657,1020.0
127.658,1020.0
127.659,0.0
127.66,1.0
127.661,0.0
127.662,0.0
127.663,1019.0
127.664,1020.0
127.665,1020.0
127.666,1020.0
127.667,0.0
127.668,1.0
127.669,1.0
127.67,0.0
127.671,1019.0
127.672,1020.0
127.673,1019.0
127.674,1020.0
127.675,0.0
127.676,1.0
127.677,0.0
127.678,0.0
127.679,1022.0
127.68,1019.0
127.681,1020.0
127.682,1020.0
127.683,1.0
127.684,0.0
127.685,0.0
127.686,0.0
127.687,671.0
127.688,1020.0
127.689,1019.0
127.69,1019.0
127.691,0.0
127.692,1.0
127.693,1.0
127.694,0.0
127.695,586.0
127.696,1019.0
127.697,1020.0
127.698,1020.0
127.699,1.0
127.7,0.0
127.701,0.0
127.702,1.0
127.703,462.0
127.704,1020.0
127.705,1020.0
127.706,1020.0
127.707,1.0
127.708,1.0
127.709,0.0
127.71,1.0
127.711,586.0
127.712,1019.0
127.713,1019.0
127.714,1011.0
127.715,0.0
127.716,1.0
127.717,0.0
127.718,0.0
127.719,586.0
127.72,1019.0
127.721,1021.0
127.722,1018.0
127.723,1.0
127.724,1.0
127.725,1.0
127.726,0.0
127.727,426.0
127.728,1020.0
127.729,1020.0
127.73,1013.0
127.731,1.0
127.732,0.0
127.733,1.0
127.734,0.0
127.735,459.0
127.736,1020.0
127.737,1019.0
127.738,1015.0
127.739,1.0
127.74,0.0
127.741,0.0
127.742,0.0
127.743,369.0
127.744,1020.0
127.745,1020.0
127.746,1012.0
127.747,9.0
127.748,1.0
127.749,1.0
127.75,0.0
127.751,314.0
127.752,1020.0
127.753,1020.0
127.754,972.0
127.755,0.0
127.756,0.0
127.757,1.0
127.758,0.0
127.759,244.0
127.76,1020.0
127.761,1023.0
127.762,1017.0
127.763,0.0
127.764,1.0
127.765,1.0
127.766,0.0
127.767,382.0
127.768,1020.0
127.769,1019.0
127.77,1020.0
127.771,1.0
127.772,0.0
127.773,0.0
127.774,0.0
127.775,546.0
127.776,1020.0
127.777,1019.0
127.778,1020.0
127.779,1.0
127.78,0.0
127.781,1.0
127.782,0.0
127.783,868.0
127.784,1019.0
127.785,1019.0
127.786,1020.0
127.787,0.0
127.788,0.0
127.789,0.0
127.79,1.0
127.791,1013.0
127.792,1020.0
127.793,1020.0
127.794,1021.0
127.795,0.0
127.796,1.0
127.797,0.0
127.798,0.0
127.799,1020.0
127.8,1019.0
127.801,1020.0
127.802,1020.0
127.803,0.0
127.804,0.0
127.805,1.0
127.806,0.0
127.807,994.0
127.808,1019.0
127.809,1019.0
127.81,1020.0
127.811,0.0
127.812,1.0
127.813,0.0
127.814,0.0
127.815,1020.0
127.816,1019.0
127.817,1019.0
127.818,1021.0
127.819,0.0
127.82,0.0
127.821,1.0
127.822,0.0
127.823,1019.0
127.824,1019.0
127.825,1019.0
127.826,1021.0
127.827,19.0
127.828,1.0
127.829,1.0
127.83,0.0
127.831,1019.0
127.832,1020.0
127.833,1020.0
127.834,1018.0
127.835,342.0
127.836,0.0
127.837,1.0
127.838,1.0
127.839,1020.0
127.84,1019.0
127.841,1019.0
127.842,1020.0
127.843,728.0
127.844,1.0
127.845,1.0
127.846,7.0
127.847,1020.0
127.848,1019.0
127.849,1019.0
127.85,1019.0
127.851,927.0
127.852,1.0
127.853,0.0
127.854,23.0
127.855,1018.0
127.856,1019.0
127.857,1020.0
127.858,1018.0
127.859,1000.0
127.86,1.0
127.861,1.0
127.862,62.0
127.863,1019.0
127.864,1020.0
127.865,1019.0
127.866,1020.0
127.867,944.0
127.868,1.0
127.869,0.0
127.87,31.0
127.871,1018.0
127.872,1019.0
127.873,1020.0
127.874,1019.0
127.875,836.0
127.876,1.0
127.877,0.0
127.878,1.0
127.879,1020.0
127.88,1020.0
127.881,1019.0
127.882,1019.0
127.883,813.0
127.884,0.0
127.885,1.0
127.886,2.0
127.887,1019.0
127.888,1019.0
127.889,1021.0
127.89,1018.0
127.891,725.0
127.892,1.0
127.893,0.0
127.894,0.0
127.895,1019.0
127.896,1020.0
127.897,1019.0
127.898,1019.0
127.899,779.0
127.9,0.0
127.901,1.0
127.902,0.0
127.903,1019.0
127.904,1019.0
127.905,1020.0
127.906,1019.0
127.907,807.0
127.908,1.0
127.909,1.0
127.91,48.0
127.911,1020.0
127.912,1019.0
127.913,1019.0
127.914,1019.0
127.915,1019.0
127.916,0.0
127.917,0.0
127.918,608.0
127.919,1018.0
127.92,1019.0
127.921,1020.0
127.922,1018.0
127.923,1019.0
127.924,993.0
127.925,702.0
127.926,1020.0
127.927,1019.0
127.928,1020.0
127.929,1019.0
127.93,1019.0
127.931,1019.0
127.932,1019.0
127.933,1019.0
127.934,1020.0
127.935,1020.0
127.936,1019.0
127.937,1020.0
127.938,1020.0
127.939,1018.0
127.94,1020.0
127.941,1018.0
127.942,1020.0
127.943,1019.0
127.944,1020.0
127.945,1020.0
127.946,1020.0
127.947,1020.0
127.948,1019.0
127.949,1019.0
127.95,1019.0
127.951,1019.0
127.952,1020.0
127.953,1020.0
127.954,1020.0
127.955,1020.0
127.956,1019.0
127.957,1019.0
127.958,1020.0
127.959,1020.0
127.96,1019.0
127.961,1020.0
127.962,1019.0
127.963,1019.0
127.964,1020.0
127.965,1020.0
127.966,1020.0
127.967,1022.0
127.968,1019.0
127.969,1020.0
127.97,1020.0
127.971,1020.0
127.972,1019.0
127.973,1018.0
127.974,1020.0
127.975,1020.0
127.976,1020.0
127.977,1020.0
127.978,1019.0
127.979,1018.0
127.98,1020.0
127.981,1020.0
127.982,1019.0
127.983,1020.0
127.984,1019.0
127.985,1020.0
127.986,1020.0
127.987,1020.0
127.988,1020.0
127.989,1020.0
127.99,1020.0
127.991,1019.0
127.992,1020.0
127.993,1019.0
127.994,1021.0
127.995,1019.0
127.996,1020.0
127.997,1019.0
127.998,1020.0
127.999,1019.0
128.0,1019.0
128.001,1019.0
128.002,1020.0
128.003,1019.0
128.004,1020.0
128.005,1020.0
128.006,1023.0
128.007,1019.0
128.008,1019.0
128.009,1020.0
128.01,1021.0
128.011,1020.0
128.012,1020.0
128.013,1020.0
128.014,1019.0
128.015,1020.0
128.016,1020.0
128.017,1021.0
128.018,1020.0
128.019,1023.0
128.02,1017.0
128.021,1019.0
128.022,1019.0
128.023,1020.0
128.024,1020.0
128.025,1019.0
128.026,1020.0
128.027,1020.0
128.028,1020.0
128.029,1020.0
128.03,1019.0
128.031,1020.0
128.032,1018.0
128.033,1020.0
128.034,1020.0
128.035,1019.0
128.036,1020.0
128.037,1022.0
128.038,1019.0
128.039,1019.0
128.04,1018.0
128.041,1020.0
128.042,1019.0
128.043,1020.0
128.044,1019.0
128.045,1020.0
128.046,1020.0
128.047,1019.0
128.048,1019.0
128.049,1020.0
128.05,1020.0
128.051,1018.0
128.052,1019.0
128.053,1020.0
128.054,1020.0
128.055,1020.0
128.056,1019.0
128.057,1020.0
128.058,1020.0
128.059,1019.0
128.06,1013.0
128.061,571.0
128.062,1020.0
128.063,1019.0
128.064,1019.0
128.065,1020.0
128.066,1020.0
128.067,840.0
128.068,1.0
128.069,0.0
128.07,1.0
128.071,391.0
128.072,1019.0
128.073,1020.0
128.074,665.0
128.075,1.0
128.076,1.0
128.077,1.0
128.078,1.0
128.079,1.0
128.08,0.0
128.081,1.0
128.082,1.0
128.083,1.0
128.084,1.0
128.085,1.0
128.086,1.0
128.087,1.0
128.088,1.0
128.089,1.0
128.09,1.0
128.091,1.0
128.092,1.0
128.093,1.0
128.094,1.0
128.095,1.0
128.096,1.0
128.097,1.0
128.098,0.0
128.099,1.0
128.1,0.0
128.101,1.0
128.102,1.0
128.103,1.0
128.104,1.0
128.105,1.0
128.106,1.0
128.107,0.0
128.108,0.0
128.109,1.0
128.11,1.0
128.111,0.0
128.112,0.0
128.113,1.0
128.114,1.0
128.115,1.0
128.116,1.0
128.117,1.0
128.118,1.0
128.119,1.0
128.12,1.0
128.121,1.0
128.122,0.0
128.123,0.0
128.124,1.0
128.125,1.0
128.126,0.0
128.127,1.0
128.128,0.0
128.129,1.0
128.13,1.0
128.131,1.0
128.132,0.0
128.133,0.0
128.134,1.0
128.135,1.0
128.136,1.0
128.137,0.0
128.138,1.0
128.139,1.0
128.14,0.0
128.141,0.0
128.142,1.0
128.143,1.0
128.144,1.0
128.145,1.0
128.146,1.0
128.147,0.0
128.148,1.0
128.149,1.0
128.15,1.0
128.151,1.0
128.152,0.0
128.153,0.0
128.154,0.0
128.155,0.0
128.156,1.0
128.157,1.0
128.158,1.0
128.159,1.0
128.16,0.0
128.161,0.0
128.162,1.0
128.163,0.0
128.164,1.0
128.165,1.0
128.166,0.0
128.167,1.0
128.168,1.0
128.169,1.0
128.17,1.0
128.171,1.0
128.172,1.0
128.173,1.0
128.174,0.0
128.175,1.0
128.176,1.0
128.177,0.0
128.178,1.0
128.179,1.0
128.18,1.0
128.181,1.0
128.182,1.0
128.183,0.0
128.184,1.0
128.185,1.0
128.186,1.0
128.187,1.0
128.188,0.0
128.189,0.0
128.19,0.0
128.191,1.0
128.192,0.0
128.193,0.0
128.194,1.0
128.195,0.0
128.196,1.0
128.197,1.0
128.198,1.0
128.199,1.0
128.2,34.0
128.201,672.0
128.202,0.0
128.203,1.0
128.204,1.0
128.205,1.0
128.206,1.0
128.207,1.0
128.208,851.0
128.209,1019.0
128.21,300.0
128.211,1.0
128.212,0.0
128.213,1.0
128.214,0.0
128.215,1.0
128.216,935.0
128.217,1020.0
128.218,484.0
128.219,1.0
128.22,1.0
128.221,1.0
128.222,0.0
128.223,1.0
128.224,276.0
128.225,944.0
128.226,1.0
128.227,1.0
128.228,1.0
128.229,1.0
128.23,1.0
128.231,0.0
128.232,0.0
128.233,96.0
128.234,1.0
128.235,0.0
128.236,0.0
128.237,1.0
128.238,1.0
128.239,1.0
128.24,3.0
128.241,137.0
128.242,1.0
128.243,0.0
128.244,0.0
128.245,0.0
128.246,1.0
128.247,1.0
128.248,153.0
128.249,859.0
128.25,0.0
128.251,1.0
128.252,1.0
128.253,1.0
128.254,1.0
128.255,1.0
128.256,421.0
128.257,1020.0
128.258,113.0
128.259,1.0
128.26,1.0
128.261,0.0
128.262,1.0
128.263,0.0
128.264,605.0
128.265,1020.0
128.266,148.0
128.267,1.0
128.268,1.0
128.269,1.0
128.27,1.0
128.271,1.0
128.272,553.0
128.273,1020.0
128.274,256.0
128.275,1.0
128.276,1.0
128.277,0.0
128.278,1.0
128.279,2.0
128.28,952.0
128.281,1020.0
128.282,542.0
128.283,0.0
128.284,1.0
128.285,1.0
128.286,1.0
128.287,1.0
128.288,1020.0
128.289,1019.0
128.29,1019.0
128.291,0.0
128.292,1.0
128.293,1.0
128.294,0.0
128.295,1019.0
128.296,1019.0
128.297,1020.0
128.298,1020.0
128.299,1014.0
128.3,1.0
128.301,1.0
128.302,149.0
128.303,1019.0
128.304,1020.0
128.305,1019.0
128.306,1019.0
128.307,1020.0
128.308,648.0
128.309,15.0
128.31,921.0
128.311,1019.0
128.312,1020.0
128.313,1019.0
128.314,1020.0
128.315,1020.0
128.316,1008.0
128.317,462.0
128.318,1019.0
128.319,1020.0
128.32,1019.0
128.321,1019.0
128.322,1019.0
128.323,1019.0
128.324,988.0
128.325,200.0
128.326,1020.0
128.327,1018.0
128.328,1019.0
128.329,1019.0
128.33,1020.0
128.331,1020.0
128.332,575.0
128.333,3.0
128.334,557.0
128.335,1019.0
128.336,1020.0
128.337,1019.0
128.338,1020.0
128.339,1020.0
128.34,0.0
128.341,1.0
128.342,0.0
128.343,1021.0
128.344,1019.0
128.345,1020.0
128.346,1019.0
128.347,957.0
128.348,1.0
128.349,1.0
128.35,0.0
128.351,1020.0
128.352,1019.0
128.353,1020.0
128.354,1019.0
128.355,1019.0
128.356,0.0
128.357,0.0
128.358,451.0
128.359,1019.0
128.36,1020.0
128.361,1020.0
128.362,1020.0
128.363,1019.0
128.364,985.0
128.365,494.0
128.366,1019.0
128.367,1019.0
128.368,1019.0
128.369,1020.0
128.37,1020.0
128.371,1019.0
128.372,1020.0
128.373,975.0
128.374,1020.0
128.375,1020.0
128.376,1020.0
128.377,1020.0
128.378,1020.0
128.379,1020.0
128.38,1020.0
128.381,1020.0
128.382,1020.0
128.383,1020.0
128.384,1020.0
128.385,1020.0
128.386,1020.0
128.387,1019.0
128.388,1020.0
128.389,1021.0
128.39,1019.0
128.391,1019.0
128.392,1020.0
128.393,1019.0
128.394,1019.0
128.395,1019.0
128.396,1019.0
128.397,1021.0
128.398,1019.0
128.399,1020.0
128.4,1019.0
128.401,1020.0
128.402,1020.0
128.403,1019.0
128.404,1020.0
128.405,1019.0
128.406,1020.0
128.407,1020.0
128.408,1020.0
128.409,1020.0
128.41,1019.0
128.411,1019.0
128.412,1019.0
128.413,1020.0
128.414,1020.0
128.415,1019.0
128.416,1020.0
128.417,1020.0
128.418,1023.0
128.419,1019.0
128.42,1020.0
128.421,1019.0
128.422,1020.0
128.423,1019.0
128.424,1020.0
128.425,1020.0
128.426,1019.0
128.427,1019.0
128.428,1019.0
128.429,1019.0
128.43,1020.0
128.431,1020.0
128.432,1019.0
128.433,1019.0
128.434,1019.0
128.435,1019.0
128.436,1019.0
128.437,1020.0
128.438,1020.0
128.439,1019.0
128.44,1019.0
128.441,1019.0
128.442,1019.0
128.443,1019.0
128.444,1020.0
128.445,1019.0
128.446,1019.0
128.447,1020.0
128.448,1020.0
128.449,1019.0
128.45,1019.0
128.451,1019.0
128.452,1019.0
128.453,1019.0
128.454,1019.0
128.455,1018.0
128.456,1019.0
128.457,1019.0
128.458,1019.0
128.459,1019.0
128.46,1019.0
128.461,1019.0
128.462,1020.0
128.463,1020.0
128.464,1020.0
128.465,1020.0
128.466,1020.0
128.467,1019.0
128.468,1019.0
128.469,1019.0
128.47,1019.0
128.471,1019.0
128.472,1021.0
128.473,1018.0
128.474,1018.0
128.475,1019.0
128.476,1020.0
128.477,1019.0
128.478,1020.0
128.479,1021.0
128.48,1020.0
128.481,1020.0
128.482,1019.0
128.483,1020.0
128.484,1019.0
128.485,1020.0
128.486,1019.0
128.487,1020.0
128.488,1019.0
128.489,1019.0
128.49,1019.0
128.491,1019.0
128.492,1019.0
128.493,1019.0
128.494,1019.0
128.495,1020.0
128.496,1014.0
128.497,1019.0
128.498,1019.0
128.499,1020.0
128.5,1019.0
128.501,1023.0
128.502,1020.0
128.503,1020.0
128.504,1019.0
128.505,1019.0
128.506,1020.0
128.507,1019.0
128.508,1020.0
128.509,1020.0
128.51,1020.0
128.511,1020.0
128.512,1020.0
128.513,1020.0
128.514,1019.0
128.515,1020.0
128.516,1019.0
128.517,1020.0
128.518,1019.0
128.519,1019.0
128.52,1020.0
128.521,1019.0
128.522,1019.0
128.523,1019.0
128.524,1019.0
128.525,1020.0
128.526,1019.0
128.527,1020.0
128.528,1020.0
128.529,1020.0
128.53,1020.0
128.531,1019.0
128.532,1019.0
128.533,466.0
128.534,1020.0
128.535,1019.0
128.536,1019.0
128.537,1020.0
128.538,1019.0
128.539,1020.0
128.54,545.0
128.541,0.0
128.542,387.0
128.543,1019.0
128.544,1019.0
128.545,1021.0
128.546,1020.0
128.547,1021.0
128.548,0.0
128.549,1.0
128.55,6.0
128.551,1020.0
128.552,1019.0
128.553,1019.0
128.554,1018.0
128.555,1020.0
128.556,0.0
128.557,0.0
128.558,0.0
128.559,1020.0
128.56,1018.0
128.561,1019.0
128.562,1020.0
128.563,1020.0
128.564,0.0
128.565,0.0
128.566,289.0
128.567,1019.0
128.568,1020.0
128.569,1020.0
128.57,1019.0
128.571,1019.0
128.572,963.0
128.573,302.0
128.574,1020.0
128.575,1019.0
128.576,1019.0
128.577,1019.0
128.578,1019.0
128.579,1019.0
128.58,1019.0
128.581,1019.0
128.582,1019.0
128.583,1019.0
128.584,1020.0
128.585,1019.0
128.586,1019.0
128.587,1019.0
128.588,1021.0
128.589,1020.0
128.59,1020.0
128.591,1019.0
128.592,1020.0
128.593,1019.0
128.594,1019.0
128.595,1023.0
128.596,1020.0
128.597,1019.0
128.598,1021.0
128.599,1020.0
128.6,1021.0
128.601,1019.0
128.602,1019.0
128.603,1018.0
128.604,1021.0
128.605,700.0
128.606,1019.0
128.607,1020.0
128.608,1020.0
128.609,1021.0
128.61,1020.0
128.611,1020.0
128.612,279.0
128.613,0.0
128.614,123.0
128.615,1020.0
128.616,1019.0
128.617,1020.0
128.618,1019.0
128.619,1020.0
128.62,0.0
128.621,0.0
128.622,8.0
128.623,1020.0
128.624,1023.0
128.625,1020.0
128.626,1021.0
128.627,1020.0
128.628,0.0
128.629,1.0
128.63,0.0
128.631,1019.0
128.632,1019.0
128.633,1021.0
128.634,1020.0
128.635,725.0
128.636,1.0
128.637,1.0
128.638,0.0
128.639,577.0
128.64,1019.0
128.641,1021.0
128.642,1019.0
128.643,0.0
128.644,1.0
128.645,1.0
128.646,1.0
128.647,21.0
128.648,1020.0
128.649,1019.0
128.65,1018.0
128.651,0.0
128.652,1.0
128.653,1.0
128.654,0.0
128.655,0.0
128.656,1021.0
128.657,1020.0
128.658,810.0
128.659,1.0
128.66,1.0
128.661,0.0
128.662,1.0
128.663,0.0
128.664,502.0
128.665,1019.0
128.666,151.0
128.667,1.0
128.668,0.0
128.669,1.0
128.67,1.0
128.671,1.0
128.672,0.0
128.673,400.0
128.674,1.0
128.675,0.0
128.676,0.0
128.677,1.0
128.678,0.0
128.679,1.0
128.68,0.0
128.681,0.0
128.682,0.0
128.683,1.0
128.684,2.0
128.685,1.0
128.686,1.0
128.687,1.0
128.688,0.0
128.689,4.0
128.69,3.0
128.691,1.0
128.692,1.0
128.693,1.0
128.694,1.0
128.695,1.0
128.696,1.0
128.697,0.0
128.698,0.0
128.699,1.0
128.7,0.0
128.701,1.0
128.702,2.0
128.703,1.0
128.704,1.0
128.705,1.0
128.706,1.0
128.707,1.0
128.708,1.0
128.709,1.0
128.71,0.0
128.711,0.0
128.712,0.0
128.713,1.0
128.714,1.0
128.715,1.0
128.716,1.0
128.717,1.0
128.718,1.0
128.719,2.0
128.72,0.0
128.721,1.0
128.722,0.0
128.723,0.0
128.724,1.0
128.725,1.0
128.726,1.0
128.727,1.0
128.728,0.0
128.729,1.0
128.73,1.0
128.731,0.0
128.732,1.0
128.733,1.0
128.734,1.0
128.735,1.0
128.736,0.0
128.737,0.0
128.738,1.0
128.739,1.0
128.74,0.0
128.741,1.0
128.742,1.0
128.743,1.0
128.744,0.0
128.745,0.0
128.746,1.0
128.747,1.0
128.748,1.0
128.749,1.0
128.75,1.0
128.751,1.0
128.752,0.0
128.753,116.0
128.754,0.0
128.755,1.0
128.756,1.0
128.757,1.0
128.758,0.0
128.759,1.0
128.76,2.0
128.761,656.0
128.762,1.0
128.763,1.0
128.764,1.0
128.765,1.0
128.766,1.0
128.767,1.0
128.768,182.0
128.769,1017.0
128.77,368.0
128.771,0.0
128.772,0.0
128.773,1.0
128.774,1.0
128.775,1.0
128.776,286.0
128.777,1014.0
128.778,130.0
128.779,1.0
128.78,1.0
128.781,0.0
128.782,0.0
128.783,0.0
128.784,1.0
