170.143,464.0
170.144,417.0
170.145,438.0
170.146,519.0
170.147,593.0
170.148,630.0
170.149,610.0
170.15,545.0
170.151,464.0
170.152,437.0
170.153,458.0
170.154,521.0
170.155,585.0
170.156,618.0
170.157,599.0
170.158,532.0
170.159,472.0
170.16,432.0
170.161,444.0
170.162,500.0
170.163,575.0
170.164,605.0
170.165,576.0
170.166,519.0
170.167,449.0
170.168,420.0
170.169,447.0
170.17,512.0
170.171,570.0
170.172,604.0
170.173,585.0
170.174,519.0
170.175,454.0
170.176,417.0
170.177,444.0
170.178,507.0
170.179,586.0
170.18,624.0
170.181,597.0
170.182,531.0
170.183,464.0
170.184,426.0
170.185,445.0
170.186,519.0
170.187,589.0
170.188,622.0
170.189,595.0
170.19,535.0
170.191,459.0
170.192,435.0
170.193,458.0
170.194,520.0
170.195,599.0
170.196,641.0
170.197,610.0
170.198,528.0
170.199,457.0
170.2,432.0
170.201,447.0
170.202,514.0
170.203,581.0
170.204,606.0
170.205,580.0
170.206,526.0
170.207,449.0
170.208,411.0
170.209,431.0
170.21,502.0
170.211,559.0
170.212,588.0
170.213,575.0
170.214,502.0
170.215,437.0
170.216,406.0
170.217,433.0
170.218,496.0
170.219,564.0
170.22,603.0
170.221,581.0
170.222,519.0
170.223,447.0
170.224,412.0
170.225,425.0
170.226,503.0
170.227,572.0
170.228,604.0
170.229,576.0
170.23,511.0
170.231,443.0
170.232,420.0
170.233,450.0
170.234,518.0
170.235,588.0
170.236,621.0
170.237,599.0
170.238,522.0
170.239,460.0
170.24,429.0
170.241,448.0
170.242,507.0
170.243,574.0
170.244,606.0
170.245,583.0
170.246,525.0
170.247,461.0
170.248,425.0
170.249,443.0
170.25,505.0
170.251,572.0
170.252,605.0
170.253,596.0
170.254,541.0
170.255,481.0
170.256,462.0
170.257,481.0
170.258,545.0
170.259,619.0
170.26,654.0
170.261,635.0
170.262,571.0
170.263,486.0
170.264,420.0
170.265,396.0
170.266,442.0
170.267,489.0
170.268,504.0
170.269,479.0
170.27,423.0
170.271,354.0
170.272,339.0
170.273,377.0
170.274,454.0
170.275,525.0
170.276,578.0
170.277,568.0
170.278,508.0
170.279,450.0
170.28,438.0
170.281,460.0
170.282,529.0
170.283,604.0
170.284,639.0
170.285,610.0
170.286,547.0
170.287,474.0
170.288,437.0
170.289,450.0
170.29,514.0
170.291,583.0
170.292,610.0
170.293,599.0
170.294,538.0
170.295,463.0
170.296,424.0
170.297,441.0
170.298,504.0
170.299,578.0
170.3,620.0
170.301,601.0
170.302,535.0
170.303,465.0
170.304,434.0
170.305,440.0
170.306,504.0
170.307,580.0
170.308,614.0
170.309,596.0
170.31,526.0
170.311,453.0
170.312,412.0
170.313,438.0
170.314,508.0
170.315,578.0
170.316,614.0
170.317,598.0
170.318,528.0
170.319,450.0
170.32,426.0
170.321,442.0
170.322,501.0
170.323,568.0
170.324,602.0
170.325,581.0
170.326,518.0
170.327,453.0
170.328,426.0
170.329,439.0
170.33,499.0
170.331,570.0
170.332,599.0
170.333,585.0
170.334,530.0
170.335,461.0
170.336,423.0
170.337,444.0
170.338,498.0
170.339,558.0
170.34,604.0
170.341,592.0
170.342,528.0
170.343,460.0
170.344,422.0
170.345,428.0
170.346,484.0
170.347,562.0
170.348,597.0
170.349,575.0
170.35,511.0
170.351,441.0
170.352,399.0
170.353,415.0
170.354,482.0
170.355,551.0
170.356,589.0
170.357,567.0
170.358,504.0
170.359,425.0
170.36,400.0
170.361,411.0
170.362,468.0
170.363,527.0
170.364,567.0
170.365,544.0
170.366,481.0
170.367,420.0
170.368,388.0
170.369,400.0
170.37,463.0
170.371,532.0
170.372,563.0
170.373,552.0
170.374,498.0
170.375,421.0
170.376,387.0
170.377,392.0
170.378,455.0
170.379,532.0
170.38,571.0
170.381,562.0
170.382,495.0
170.383,427.0
170.384,392.0
170.385,405.0
170.386,458.0
170.387,536.0
170.388,577.0
170.389,564.0
170.39,499.0
170.391,431.0
170.392,379.0
170.393,400.0
170.394,470.0
170.395,547.0
170.396,578.0
170.397,569.0
170.398,508.0
170.399,428.0
170.4,403.0
170.401,412.0
170.402,470.0
170.403,537.0
170.404,585.0
170.405,566.0
170.406,504.0
170.407,441.0
170.408,404.0
170.409,412.0
170.41,474.0
170.411,541.0
170.412,574.0
170.413,564.0
170.414,507.0
170.415,437.0
170.416,401.0
170.417,418.0
170.418,482.0
170.419,544.0
170.42,588.0
170.421,575.0
170.422,519.0
170.423,445.0
170.424,402.0
170.425,412.0
170.426,469.0
170.427,545.0
170.428,587.0
170.429,574.0
170.43,514.0
170.431,446.0
170.432,402.0
170.433,412.0
170.434,479.0
170.435,549.0
170.436,590.0
170.437,586.0
170.438,528.0
170.439,451.0
170.44,419.0
170.441,432.0
170.442,489.0
170.443,560.0
170.444,603.0
170.445,598.0
170.446,530.0
170.447,468.0
170.448,428.0
170.449,435.0
170.45,492.0
170.451,562.0
170.452,612.0
170.453,588.0
170.454,532.0
170.455,460.0
170.456,418.0
170.457,435.0
170.458,490.0
170.459,552.0
170.46,606.0
170.461,591.0
170.462,533.0
170.463,464.0
170.464,423.0
170.465,437.0
170.466,482.0
170.467,557.0
170.468,598.0
170.469,583.0
170.47,530.0
170.471,451.0
170.472,416.0
170.473,426.0
170.474,495.0
170.475,564.0
170.476,604.0
170.477,587.0
170.478,531.0
170.479,447.0
170.48,406.0
170.481,420.0
170.482,479.0
170.483,550.0
170.484,605.0
170.485,599.0
170.486,527.0
170.487,458.0
170.488,424.0
170.489,433.0
170.49,492.0
170.491,562.0
170.492,601.0
170.493,580.0
170.494,536.0
170.495,465.0
170.496,429.0
170.497,427.0
170.498,474.0
170.499,548.0
170.5,597.0
170.501,593.0
170.502,534.0
170.503,464.0
170.504,424.0
170.505,437.0
170.506,485.0
170.507,558.0
170.508,602.0
170.509,590.0
170.51,534.0
170.511,460.0
170.512,410.0
170.513,416.0
170.514,486.0
170.515,557.0
170.516,600.0
170.517,584.0
170.518,528.0
170.519,450.0
170.52,401.0
170.521,421.0
170.522,475.0
170.523,550.0
170.524,594.0
170.525,589.0
170.526,517.0
170.527,452.0
170.528,413.0
170.529,426.0
170.53,492.0
170.531,559.0
170.532,605.0
170.533,583.0
170.534,546.0
170.535,493.0
170.536,456.0
170.537,473.0
170.538,544.0
170.539,616.0
170.54,646.0
170.541,641.0
170.542,572.0
170.543,472.0
170.544,401.0
170.545,382.0
170.546,416.0
170.547,454.0
170.548,494.0
170.549,482.0
170.55,426.0
170.551,377.0
170.552,353.0
170.553,366.0
170.554,436.0
170.555,526.0
170.556,584.0
170.557,586.0
170.558,537.0
170.559,471.0
170.56,429.0
170.561,458.0
170.562,529.0
170.563,599.0
170.564,632.0
170.565,612.0
170.566,545.0
170.567,471.0
170.568,445.0
170.569,457.0
170.57,513.0
170.571,581.0
170.572,628.0
170.573,605.0
170.574,550.0
170.575,482.0
170.576,442.0
170.577,454.0
170.578,515.0
170.579,575.0
170.58,616.0
170.581,618.0
170.582,559.0
170.583,488.0
170.584,447.0
170.585,449.0
170.586,496.0
170.587,561.0
170.588,617.0
170.589,612.0
170.59,553.0
170.591,479.0
170.592,436.0
170.593,432.0
170.594,491.0
170.595,570.0
170.596,622.0
170.597,613.0
170.598,550.0
170.599,479.0
170.6,424.0
170.601,440.0
170.602,498.0
170.603,568.0
170.604,616.0
170.605,611.0
170.606,547.0
170.607,465.0
170.608,422.0
170.609,434.0
170.61,497.0
170.611,572.0
170.612,619.0
170.613,606.0
170.614,551.0
170.615,487.0
170.616,442.0
170.617,442.0
170.618,500.0
170.619,569.0
170.62,616.0
170.621,606.0
170.622,557.0
170.623,486.0
170.624,441.0
170.625,442.0
170.626,495.0
170.627,553.0
170.628,602.0
170.629,599.0
170.63,540.0
170.631,466.0
170.632,420.0
170.633,417.0
170.634,471.0
170.635,544.0
170.636,595.0
170.637,586.0
170.638,529.0
170.639,453.0
170.64,396.0
170.641,403.0
170.642,464.0
170.643,536.0
170.644,581.0
170.645,579.0
170.646,513.0
170.647,436.0
170.648,395.0
170.649,408.0
170.65,464.0
170.651,538.0
170.652,584.0
170.653,572.0
170.654,520.0
170.655,457.0
170.656,404.0
170.657,404.0
170.658,460.0
170.659,541.0
170.66,582.0
170.661,578.0
170.662,532.0
170.663,453.0
170.664,416.0
170.665,423.0
170.666,478.0
170.667,538.0
170.668,594.0
170.669,587.0
170.67,523.0
170.671,448.0
170.672,405.0
170.673,414.0
170.674,471.0
170.675,551.0
170.676,598.0
170.677,589.0
170.678,533.0
170.679,461.0
170.68,409.0
170.681,415.0
170.682,472.0
170.683,550.0
170.684,594.0
170.685,584.0
170.686,535.0
170.687,449.0
170.688,411.0
170.689,421.0
170.69,470.0
170.691,542.0
170.692,594.0
170.693,588.0
170.694,531.0
170.695,474.0
170.696,430.0
170.697,429.0
170.698,478.0
170.699,538.0
170.7,588.0
170.701,585.0
170.702,535.0
170.703,465.0
170.704,417.0
170.705,426.0
170.706,480.0
170.707,533.0
170.708,593.0
170.709,592.0
170.71,537.0
170.711,458.0
170.712,421.0
170.713,415.0
170.714,468.0
170.715,537.0
170.716,591.0
170.717,590.0
170.718,535.0
170.719,466.0
170.72,418.0
170.721,413.0
170.722,477.0
170.723,544.0
170.724,589.0
170.725,576.0
170.726,525.0
170.727,445.0
170.728,409.0
170.729,428.0
170.73,480.0
170.731,547.0
170.732,595.0
170.733,590.0
170.734,526.0
170.735,461.0
170.736,418.0
170.737,412.0
170.738,463.0
170.739,533.0
170.74,587.0
170.741,578.0
170.742,535.0
170.743,462.0
170.744,416.0
170.745,415.0
170.746,463.0
170.747,526.0
170.748,576.0
170.749,578.0
170.75,536.0
170.751,469.0
170.752,413.0
170.753,412.0
170.754,462.0
170.755,538.0
170.756,591.0
170.757,589.0
170.758,537.0
170.759,463.0
170.76,418.0
170.761,414.0
170.762,472.0
170.763,539.0
170.764,590.0
170.765,589.0
170.766,530.0
170.767,453.0
170.768,405.0
170.769,416.0
170.77,469.0
170.771,541.0
170.772,590.0
170.773,587.0
170.774,530.0
170.775,454.0
170.776,415.0
170.777,417.0
170.778,472.0
170.779,544.0
170.78,589.0
170.781,583.0
170.782,542.0
170.783,466.0
170.784,426.0
170.785,430.0
170.786,485.0
170.787,554.0
170.788,599.0
170.789,607.0
170.79,547.0
170.791,467.0
170.792,428.0
170.793,438.0
170.794,485.0
170.795,562.0
170.796,619.0
170.797,615.0
170.798,561.0
170.799,488.0
170.8,442.0
170.801,433.0
170.802,478.0
170.803,557.0
170.804,607.0
170.805,602.0
170.806,554.0
170.807,479.0
170.808,423.0
170.809,430.0
170.81,482.0
170.811,549.0
170.812,596.0
170.813,595.0
170.814,544.0
170.815,480.0
170.816,436.0
170.817,432.0
170.818,478.0
170.819,540.0
170.82,587.0
170.821,584.0
170.822,541.0
170.823,470.0
170.824,420.0
170.825,422.0
170.826,481.0
170.827,544.0
170.828,582.0
170.829,595.0
170.83,536.0
170.831,467.0
170.832,427.0
170.833,426.0
170.834,489.0
170.835,576.0
170.836,645.0
170.837,657.0
170.838,601.0
170.839,516.0
170.84,458.0
170.841,430.0
170.842,455.0
170.843,522.0
170.844,559.0
170.845,522.0
170.846,437.0
170.847,352.0
170.848,300.0
170.849,312.0
170.85,388.0
170.851,482.0
170.852,546.0
170.853,547.0
170.854,503.0
170.855,427.0
170.856,398.0
170.857,417.0
170.858,487.0
170.859,572.0
170.86,626.0
170.861,616.0
170.862,569.0
170.863,498.0
170.864,453.0
170.865,447.0
170.866,494.0
170.867,561.0
170.868,603.0
170.869,611.0
170.87,569.0
170.871,489.0
170.872,434.0
170.873,430.0
170.874,489.0
170.875,566.0
170.876,611.0
170.877,619.0
170.878,564.0
170.879,483.0
170.88,429.0
170.881,422.0
170.882,470.0
170.883,549.0
170.884,603.0
170.885,603.0
170.886,549.0
170.887,479.0
170.888,425.0
170.889,425.0
170.89,482.0
170.891,555.0
170.892,615.0
170.893,615.0
170.894,559.0
170.895,487.0
170.896,433.0
170.897,430.0
170.898,482.0
170.899,560.0
170.9,607.0
170.901,599.0
170.902,561.0
170.903,494.0
170.904,445.0
170.905,434.0
170.906,491.0
170.907,564.0
170.908,609.0
170.909,611.0
170.91,563.0
170.911,490.0
170.912,449.0
170.913,444.0
170.914,494.0
170.915,555.0
170.916,611.0
170.917,614.0
170.918,558.0
170.919,496.0
170.92,447.0
170.921,439.0
170.922,482.0
170.923,559.0
170.924,605.0
170.925,607.0
170.926,558.0
170.927,487.0
170.928,423.0
170.929,426.0
170.93,468.0
170.931,535.0
170.932,601.0
170.933,594.0
170.934,537.0
170.935,459.0
170.936,411.0
170.937,405.0
170.938,456.0
170.939,526.0
170.94,575.0
170.941,572.0
170.942,517.0
170.943,448.0
170.944,399.0
170.945,397.0
170.946,450.0
170.947,526.0
170.948,567.0
170.949,566.0
170.95,514.0
170.951,446.0
170.952,399.0
170.953,397.0
170.954,444.0
170.955,516.0
170.956,575.0
170.957,580.0
170.958,532.0
170.959,458.0
170.96,407.0
170.961,395.0
170.962,448.0
170.963,522.0
170.964,580.0
170.965,589.0
170.966,543.0
170.967,467.0
170.968,421.0
170.969,416.0
170.97,463.0
170.971,540.0
170.972,599.0
170.973,604.0
170.974,558.0
170.975,479.0
170.976,421.0
170.977,421.0
170.978,470.0
170.979,543.0
170.98,602.0
170.981,610.0
170.982,558.0
170.983,484.0
170.984,428.0
170.985,420.0
170.986,480.0
170.987,551.0
170.988,605.0
170.989,603.0
170.99,553.0
170.991,480.0
170.992,430.0
170.993,423.0
170.994,474.0
170.995,537.0
170.996,602.0
170.997,605.0
170.998,555.0
170.999,484.0
171.0,429.0
171.001,430.0
171.002,471.0
171.003,535.0
171.004,597.0
171.005,599.0
171.006,562.0
171.007,492.0
171.008,432.0
171.009,422.0
171.01,466.0
171.011,544.0
171.012,603.0
171.013,610.0
171.014,568.0
171.015,484.0
171.016,422.0
171.017,416.0
171.018,459.0
171.019,541.0
171.02,601.0
171.021,603.0
171.022,548.0
171.023,469.0
171.024,426.0
171.025,421.0
171.026,468.0
171.027,539.0
171.028,596.0
171.029,592.0
171.03,544.0
171.031,482.0
171.032,430.0
171.033,424.0
171.034,475.0
171.035,536.0
171.036,593.0
171.037,594.0
171.038,556.0
171.039,488.0
171.04,436.0
171.041,431.0
171.042,464.0
171.043,529.0
171.044,593.0
171.045,614.0
171.046,574.0
171.047,499.0
171.048,438.0
171.049,419.0
171.05,471.0
171.051,556.0
171.052,617.0
171.053,620.0
171.054,568.0
171.055,490.0
171.056,426.0
171.057,419.0
171.058,473.0
171.059,548.0
171.06,612.0
171.061,613.0
171.062,559.0
171.063,483.0
171.064,434.0
171.065,431.0
171.066,480.0
171.067,554.0
171.068,608.0
171.069,602.0
171.07,551.0
171.071,485.0
171.072,428.0
171.073,420.0
171.074,469.0
171.075,534.0
171.076,597.0
171.077,604.0
171.078,563.0
171.079,498.0
171.08,436.0
171.081,432.0
171.082,476.0
171.083,541.0
171.084,602.0
171.085,610.0
171.086,563.0
171.087,494.0
171.088,439.0
171.089,433.0
171.09,483.0
171.091,543.0
171.092,605.0
171.093,612.0
171.094,567.0
171.095,493.0
171.096,433.0
171.097,417.0
171.098,463.0
171.099,540.0
171.1,596.0
171.101,611.0
171.102,568.0
171.103,487.0
171.104,437.0
171.105,428.0
171.106,473.0
171.107,540.0
171.108,596.0
171.109,592.0
171.11,552.0
171.111,491.0
171.112,436.0
171.113,423.0
171.114,476.0
171.115,546.0
171.116,606.0
171.117,623.0
171.118,587.0
171.119,528.0
171.12,479.0
171.121,473.0
171.122,519.0
171.123,584.0
171.124,642.0
171.125,635.0
171.126,573.0
171.127,472.0
171.128,396.0
171.129,362.0
171.13,373.0
171.131,448.0
171.132,509.0
171.133,534.0
171.134,510.0
171.135,447.0
171.136,393.0
171.137,395.0
171.138,447.0
171.139,529.0
171.14,591.0
171.141,598.0
171.142,569.0
171.143,500.0
171.144,457.0
171.145,454.0
171.146,510.0
171.147,575.0
171.148,629.0
171.149,626.0
171.15,572.0
171.151,505.0
171.152,458.0
171.153,443.0
171.154,483.0
171.155,550.0
171.156,609.0
171.157,624.0
171.158,581.0
171.159,500.0
171.16,446.0
171.161,435.0
171.162,478.0
171.163,543.0
171.164,611.0
171.165,619.0
171.166,574.0
171.167,503.0
171.168,450.0
171.169,424.0
171.17,475.0
171.171,553.0
171.172,610.0
171.173,614.0
171.174,574.0
171.175,500.0
171.176,433.0
171.177,433.0
171.178,479.0
171.179,541.0
171.18,596.0
171.181,609.0
171.182,565.0
171.183,487.0
171.184,445.0
171.185,436.0
171.186,477.0
171.187,545.0
171.188,607.0
171.189,610.0
171.19,570.0
171.191,506.0
171.192,447.0
171.193,430.0
171.194,469.0
171.195,546.0
171.196,605.0
171.197,619.0
171.198,584.0
171.199,510.0
171.2,455.0
171.201,434.0
171.202,476.0
171.203,538.0
171.204,603.0
171.205,617.0
171.206,579.0
171.207,510.0
171.208,444.0
171.209,429.0
171.21,468.0
171.211,548.0
171.212,608.0
171.213,619.0
171.214,577.0
171.215,502.0
171.216,433.0
171.217,419.0
171.218,464.0
171.219,539.0
171.22,593.0
171.221,602.0
171.222,547.0
171.223,472.0
171.224,424.0
171.225,411.0
171.226,451.0
171.227,523.0
171.228,589.0
171.229,592.0
171.23,539.0
171.231,472.0
171.232,419.0
171.233,406.0
171.234,445.0
171.235,515.0
171.236,575.0
171.237,583.0
171.238,548.0
171.239,474.0
171.24,416.0
171.241,409.0
171.242,448.0
171.243,514.0
171.244,579.0
171.245,593.0
171.246,546.0
171.247,474.0
171.248,419.0
171.249,404.0
171.25,440.0
171.251,520.0
171.252,590.0
171.253,599.0
171.254,558.0
171.255,482.0
171.256,418.0
171.257,407.0
171.258,456.0
171.259,525.0
171.26,582.0
171.261,604.0
171.262,552.0
171.263,475.0
171.264,417.0
171.265,403.0
171.266,447.0
171.267,526.0
171.268,584.0
171.269,599.0
171.27,555.0
171.271,482.0
171.272,425.0
171.273,415.0
171.274,456.0
171.275,531.0
171.276,593.0
171.277,603.0
171.278,560.0
171.279,485.0
171.28,424.0
171.281,413.0
171.282,455.0
171.283,533.0
171.284,593.0
171.285,605.0
171.286,567.0
171.287,491.0
171.288,430.0
171.289,418.0
171.29,460.0
171.291,530.0
171.292,592.0
171.293,604.0
171.294,565.0
171.295,489.0
171.296,430.0
171.297,416.0
171.298,453.0
171.299,528.0
171.3,592.0
171.301,613.0
171.302,575.0
171.303,491.0
171.304,432.0
171.305,416.0
171.306,461.0
171.307,533.0
171.308,590.0
171.309,599.0
171.31,560.0
171.311,487.0
171.312,440.0
171.313,423.0
171.314,459.0
171.315,528.0
171.316,593.0
171.317,606.0
171.318,573.0
171.319,504.0
171.32,440.0
171.321,421.0
171.322,462.0
171.323,530.0
171.324,591.0
171.325,613.0
171.326,572.0
171.327,497.0
171.328,429.0
171.329,416.0
171.33,462.0
171.331,543.0
171.332,596.0
171.333,615.0
171.334,574.0
171.335,490.0
171.336,442.0
171.337,416.0
171.338,457.0
171.339,537.0
171.34,603.0
171.341,621.0
171.342,571.0
171.343,498.0
171.344,438.0
171.345,424.0
171.346,458.0
171.347,528.0
171.348,585.0
171.349,612.0
171.35,566.0
171.351,491.0
171.352,439.0
171.353,421.0
171.354,459.0
171.355,521.0
171.356,584.0
171.357,597.0
171.358,567.0
171.359,496.0
171.36,434.0
171.361,419.0
171.362,459.0
171.363,536.0
171.364,595.0
171.365,615.0
171.366,569.0
171.367,499.0
171.368,448.0
171.369,457.0
171.37,503.0
171.371,573.0
171.372,644.0
171.373,659.0
171.374,619.0
171.375,536.0
171.376,473.0
171.377,423.0
171.378,444.0
171.379,502.0
171.38,540.0
171.381,536.0
171.382,499.0
171.383,443.0
171.384,394.0
171.385,383.0
171.386,437.0
171.387,524.0
171.388,580.0
171.389,608.0
171.39,575.0
171.391,498.0
171.392,445.0
171.393,435.0
171.394,476.0
171.395,549.0
171.396,630.0
171.397,647.0
171.398,612.0
171.399,537.0
171.4,471.0
171.401,443.0
171.402,479.0
171.403,550.0
171.404,608.0
171.405,626.0
171.406,589.0
171.407,514.0
171.408,447.0
171.409,429.0
171.41,468.0
171.411,537.0
171.412,595.0
171.413,609.0
171.414,573.0
171.415,496.0
171.416,433.0
171.417,421.0
171.418,461.0
171.419,525.0
171.42,590.0
171.421,607.0
171.422,584.0
171.423,524.0
171.424,462.0
171.425,441.0
171.426,482.0
171.427,547.0
171.428,610.0
171.429,630.0
171.43,596.0
171.431,518.0
171.432,452.0
171.433,420.0
171.434,456.0
171.435,527.0
171.436,603.0
171.437,637.0
171.438,604.0
171.439,537.0
171.44,482.0
171.441,457.0
171.442,489.0
171.443,555.0
171.444,604.0
171.445,612.0
171.446,572.0
171.447,494.0
171.448,432.0
171.449,414.0
171.45,448.0
171.451,516.0
171.452,580.0
171.453,589.0
171.454,558.0
171.455,500.0
171.456,442.0
171.457,418.0
171.458,444.0
171.459,515.0
171.46,568.0
171.461,583.0
171.462,544.0
171.463,476.0
171.464,415.0
171.465,402.0
171.466,434.0
171.467,480.0
171.468,550.0
171.469,564.0
171.47,528.0
171.471,442.0
171.472,391.0
171.473,370.0
171.474,403.0
171.475,481.0
171.476,540.0
171.477,556.0
171.478,524.0
171.479,457.0
171.48,389.0
171.481,376.0
171.482,414.0
171.483,487.0
171.484,545.0
171.485,557.0
171.486,524.0
171.487,442.0
171.488,389.0
171.489,376.0
171.49,418.0
171.491,476.0
171.492,551.0
171.493,578.0
171.494,540.0
171.495,474.0
171.496,413.0
171.497,391.0
171.498,415.0
171.499,494.0
171.5,556.0
171.501,591.0
171.502,569.0
171.503,491.0
171.504,419.0
171.505,395.0
171.506,440.0
171.507,505.0
171.508,573.0
171.509,594.0
171.51,558.0
171.511,480.0
171.512,428.0
171.513,407.0
171.514,440.0
171.515,511.0
171.516,575.0
171.517,599.0
171.518,566.0
171.519,503.0
171.52,437.0
171.521,419.0
171.522,453.0
171.523,522.0
171.524,586.0
171.525,616.0
171.526,588.0
171.527,508.0
171.528,448.0
171.529,419.0
171.53,447.0
171.531,520.0
171.532,594.0
171.533,608.0
171.534,573.0
171.535,507.0
171.536,450.0
171.537,429.0
171.538,455.0
171.539,530.0
171.54,590.0
171.541,619.0
171.542,588.0
171.543,517.0
171.544,447.0
171.545,426.0
171.546,462.0
171.547,526.0
171.548,600.0
171.549,619.0
171.55,584.0
171.551,512.0
171.552,446.0
171.553,427.0
171.554,469.0
171.555,543.0
171.556,606.0
171.557,625.0
171.558,586.0
171.559,526.0
171.56,458.0
171.561,445.0
171.562,483.0
171.563,553.0
171.564,615.0
171.565,630.0
171.566,602.0
171.567,526.0
171.568,467.0
171.569,450.0
171.57,486.0
171.571,543.0
171.572,605.0
171.573,624.0
171.574,593.0
171.575,528.0
171.576,459.0
171.577,435.0
171.578,462.0
171.579,536.0
171.58,600.0
171.581,620.0
171.582,583.0
171.583,513.0
171.584,450.0
171.585,421.0
171.586,457.0
171.587,523.0
171.588,588.0
171.589,608.0
171.59,575.0
171.591,501.0
171.592,438.0
171.593,413.0
171.594,444.0
171.595,510.0
171.596,570.0
171.597,595.0
171.598,563.0
171.599,491.0
171.6,427.0
171.601,409.0
171.602,442.0
171.603,508.0
171.604,572.0
171.605,603.0
171.606,560.0
171.607,496.0
171.608,433.0
171.609,412.0
171.61,449.0
171.611,519.0
171.612,591.0
171.613,629.0
171.614,610.0
171.615,551.0
171.616,493.0
171.617,465.0
171.618,491.0
171.619,558.0
171.62,608.0
171.621,606.0
171.622,552.0
171.623,458.0
171.624,380.0
171.625,327.0
171.626,353.0
171.627,431.0
171.628,501.0
171.629,545.0
171.63,528.0
171.631,466.0
171.632,400.0
171.633,388.0
171.634,432.0
171.635,512.0
171.636,590.0
171.637,630.0
171.638,607.0
171.639,546.0
171.64,491.0
171.641,463.0
171.642,492.0
171.643,554.0
171.644,610.0
171.645,624.0
171.646,591.0
171.647,530.0
171.648,477.0
171.649,438.0
171.65,460.0
171.651,538.0
171.652,601.0
171.653,623.0
171.654,600.0
171.655,530.0
171.656,461.0
171.657,435.0
171.658,463.0
171.659,527.0
171.66,601.0
171.661,627.0
171.662,594.0
171.663,520.0
171.664,453.0
171.665,427.0
171.666,455.0
171.667,522.0
171.668,593.0
171.669,620.0
171.67,590.0
171.671,516.0
171.672,447.0
171.673,418.0
171.674,451.0
171.675,521.0
171.676,592.0
171.677,617.0
171.678,581.0
171.679,509.0
171.68,449.0
171.681,427.0
171.682,459.0
171.683,531.0
171.684,599.0
171.685,618.0
171.686,587.0
171.687,516.0
171.688,450.0
171.689,423.0
171.69,457.0
171.691,537.0
171.692,593.0
171.693,618.0
171.694,598.0
171.695,531.0
171.696,465.0
171.697,442.0
171.698,468.0
171.699,526.0
171.7,588.0
171.701,619.0
171.702,586.0
171.703,517.0
171.704,445.0
171.705,422.0
171.706,453.0
171.707,517.0
171.708,585.0
171.709,612.0
171.71,581.0
171.711,510.0
171.712,438.0
171.713,403.0
171.714,432.0
171.715,499.0
171.716,562.0
171.717,588.0
171.718,558.0
171.719,486.0
171.72,418.0
171.721,396.0
171.722,428.0
171.723,495.0
171.724,563.0
171.725,587.0
171.726,558.0
171.727,490.0
171.728,426.0
171.729,398.0
171.73,428.0
171.731,498.0
171.732,563.0
171.733,595.0
171.734,573.0
171.735,504.0
171.736,444.0
171.737,411.0
171.738,433.0
171.739,511.0
171.74,570.0
171.741,599.0
171.742,576.0
171.743,503.0
171.744,437.0
171.745,408.0
171.746,434.0
171.747,503.0
171.748,574.0
171.749,600.0
171.75,573.0
171.751,502.0
171.752,423.0
171.753,401.0
171.754,435.0
171.755,501.0
171.756,572.0
171.757,603.0
171.758,573.0
171.759,502.0
171.76,436.0
171.761,413.0
171.762,445.0
171.763,512.0
171.764,581.0
171.765,610.0
171.766,574.0
171.767,507.0
171.768,438.0
171.769,410.0
171.77,440.0
171.771,511.0
171.772,577.0
171.773,605.0
171.774,581.0
171.775,506.0
171.776,435.0
171.777,416.0
171.778,445.0
171.779,502.0
171.78,578.0
171.781,621.0
171.782,587.0
171.783,513.0
171.784,442.0
171.785,412.0
171.786,432.0
171.787,509.0
171.788,580.0
171.789,605.0
171.79,580.0
171.791,505.0
171.792,438.0
171.793,410.0
171.794,437.0
171.795,510.0
171.796,574.0
171.797,593.0
171.798,552.0
171.799,456.0
171.8,383.0
171.801,355.0
171.802,391.0
171.803,468.0
171.804,549.0
171.805,594.0
171.806,581.0
171.807,514.0
171.808,455.0
171.809,422.0
171.81,446.0
171.811,517.0
171.812,585.0
171.813,605.0
171.814,585.0
171.815,525.0
171.816,460.0
171.817,422.0
171.818,450.0
171.819,514.0
171.82,585.0
171.821,615.0
171.822,591.0
171.823,522.0
171.824,454.0
171.825,427.0
171.826,452.0
171.827,516.0
171.828,587.0
171.829,612.0
171.83,594.0
171.831,525.0
171.832,469.0
171.833,432.0
171.834,458.0
171.835,524.0
171.836,594.0
171.837,622.0
171.838,593.0
171.839,520.0
171.84,451.0
171.841,418.0
171.842,446.0
171.843,520.0
171.844,588.0
171.845,614.0
171.846,588.0
171.847,513.0
171.848,453.0
171.849,421.0
171.85,446.0
171.851,515.0
171.852,583.0
171.853,611.0
171.854,586.0
171.855,520.0
171.856,457.0
171.857,430.0
171.858,464.0
171.859,537.0
171.86,615.0
171.861,659.0
171.862,646.0
171.863,571.0
171.864,500.0
171.865,458.0
171.866,455.0
171.867,489.0
171.868,536.0
171.869,546.0
171.87,498.0
171.871,411.0
171.872,337.0
171.873,311.0
171.874,350.0
171.875,437.0
171.876,525.0
171.877,562.0
171.878,552.0
171.879,496.0
171.88,440.0
171.881,422.0
171.882,459.0
171.883,536.0
171.884,614.0
171.885,654.0
171.886,629.0
171.887,572.0
171.888,504.0
171.889,465.0
171.89,485.0
171.891,553.0
171.892,630.0
171.893,668.0
171.894,651.0
171.895,574.0
171.896,492.0
171.897,441.0
171.898,448.0
171.899,512.0
171.9,580.0
171.901,617.0
171.902,586.0
171.903,515.0
171.904,448.0
171.905,414.0
171.906,441.0
171.907,497.0
171.908,572.0
171.909,603.0
171.91,583.0
171.911,518.0
171.912,451.0
171.913,413.0
171.914,431.0
171.915,509.0
171.916,581.0
171.917,616.0
171.918,594.0
171.919,525.0
171.92,441.0
171.921,413.0
171.922,442.0
171.923,514.0
171.924,587.0
171.925,623.0
171.926,593.0
171.927,515.0
171.928,451.0
171.929,424.0
171.93,447.0
171.931,513.0
171.932,590.0
171.933,616.0
171.934,587.0
171.935,532.0
171.936,462.0
171.937,422.0
171.938,445.0
171.939,517.0
171.94,579.0
171.941,609.0
171.942,599.0
171.943,532.0
171.944,468.0
171.945,434.0
171.946,456.0
171.947,511.0
171.948,583.0
171.949,613.0
171.95,586.0
171.951,527.0
171.952,457.0
171.953,414.0
171.954,433.0
171.955,509.0
171.956,576.0
171.957,606.0
171.958,584.0
171.959,516.0
171.96,437.0
171.961,400.0
171.962,426.0
171.963,487.0
171.964,556.0
171.965,593.0
171.966,567.0
171.967,492.0
171.968,429.0
171.969,401.0
171.97,418.0
171.971,486.0
171.972,556.0
171.973,581.0
171.974,562.0
171.975,501.0
171.976,438.0
171.977,401.0
171.978,423.0
171.979,490.0
171.98,556.0
171.981,588.0
171.982,578.0
171.983,511.0
171.984,445.0
171.985,408.0
171.986,430.0
171.987,485.0
171.988,565.0
171.989,601.0
171.99,576.0
171.991,504.0
171.992,439.0
171.993,411.0
171.994,420.0
171.995,501.0
171.996,574.0
171.997,613.0
171.998,593.0
171.999,526.0
172.0,444.0
172.001,409.0
172.002,440.0
172.003,503.0
172.004,566.0
172.005,596.0
172.006,582.0
172.007,514.0
172.008,461.0
172.009,426.0
172.01,447.0
172.011,512.0
172.012,581.0
172.013,615.0
172.014,585.0
172.015,524.0
172.016,458.0
172.017,424.0
172.018,442.0
172.019,502.0
172.02,571.0
172.021,610.0
172.022,602.0
172.023,530.0
172.024,455.0
172.025,428.0
172.026,443.0
172.027,500.0
172.028,576.0
172.029,621.0
172.03,598.0
172.031,533.0
172.032,466.0
172.033,423.0
172.034,432.0
172.035,504.0
172.036,579.0
172.037,614.0
172.038,601.0
172.039,535.0
172.04,457.0
172.041,412.0
172.042,439.0
172.043,500.0
172.044,573.0
172.045,615.0
172.046,603.0
172.047,527.0
172.048,451.0
172.049,426.0
172.05,446.0
172.051,512.0
172.052,580.0
172.053,618.0
172.054,589.0
172.055,527.0
172.056,467.0
172.057,426.0
172.058,439.0
172.059,507.0
172.06,580.0
172.061,610.0
172.062,597.0
172.063,529.0
172.064,452.0
172.065,420.0
172.066,440.0
172.067,508.0
172.068,569.0
172.069,616.0
172.07,599.0
172.071,532.0
172.072,453.0
172.073,411.0
172.074,427.0
172.075,498.0
172.076,573.0
172.077,617.0
172.078,601.0
172.079,533.0
172.08,467.0
172.081,413.0
172.082,432.0
172.083,503.0
172.084,576.0
172.085,607.0
172.086,585.0
172.087,524.0
172.088,450.0
172.089,421.0
172.09,443.0
172.091,498.0
172.092,569.0
172.093,609.0
172.094,584.0
172.095,518.0
172.096,455.0
172.097,420.0
172.098,436.0
172.099,495.0
172.1,565.0
172.101,596.0
172.102,584.0
172.103,527.0
172.104,465.0
172.105,431.0
172.106,438.0
172.107,502.0
172.108,571.0
172.109,629.0
172.11,618.0
172.111,564.0
172.112,502.0
172.113,470.0
172.114,476.0
172.115,536.0
172.116,605.0
172.117,622.0
172.118,576.0
172.119,489.0
172.12,397.0
172.121,329.0
172.122,340.0
172.123,407.0
172.124,482.0
172.125,531.0
172.126,530.0
172.127,490.0
172.128,419.0
172.129,398.0
172.13,423.0
172.131,493.0
172.132,577.0
172.133,617.0
172.134,604.0
172.135,546.0
172.136,492.0
172.137,453.0
172.138,464.0
172.139,522.0
172.14,591.0
172.141,617.0
172.142,606.0
172.143,550.0
172.144,470.0
172.145,436.0
172.146,451.0
172.147,514.0
172.148,577.0
172.149,625.0
172.15,616.0
172.151,550.0
172.152,478.0
172.153,437.0
172.154,444.0
172.155,502.0
172.156,585.0
172.157,626.0
172.158,612.0
172.159,548.0
172.16,474.0
172.161,430.0
172.162,443.0
172.163,510.0
172.164,583.0
172.165,626.0
172.166,610.0
172.167,546.0
172.168,464.0
172.169,424.0
172.17,439.0
172.171,505.0
172.172,585.0
172.173,625.0
172.174,608.0
172.175,539.0
172.176,480.0
172.177,441.0
172.178,454.0
172.179,507.0
172.18,583.0
172.181,615.0
172.182,599.0
172.183,552.0
172.184,486.0
172.185,447.0
172.186,454.0
172.187,509.0
172.188,576.0
172.189,622.0
172.19,613.0
172.191,552.0
172.192,481.0
172.193,433.0
172.194,448.0
172.195,496.0
172.196,576.0
172.197,615.0
172.198,594.0
172.199,534.0
172.2,461.0
172.201,418.0
172.202,429.0
172.203,490.0
172.204,556.0
172.205,588.0
172.206,559.0
172.207,485.0
172.208,404.0
172.209,365.0
172.21,395.0
172.211,459.0
172.212,549.0
172.213,602.0
172.214,587.0
172.215,514.0
172.216,441.0
172.217,405.0
172.218,420.0
172.219,481.0
172.22,551.0
172.221,589.0
172.222,577.0
172.223,521.0
172.224,445.0
172.225,414.0
172.226,426.0
172.227,490.0
172.228,554.0
172.229,600.0
172.23,600.0
172.231,534.0
172.232,462.0
172.233,422.0
172.234,438.0
172.235,498.0
172.236,572.0
172.237,612.0
172.238,598.0
172.239,540.0
172.24,470.0
172.241,425.0
172.242,436.0
172.243,498.0
172.244,572.0
172.245,616.0
172.246,605.0
172.247,545.0
172.248,478.0
172.249,434.0
172.25,444.0
172.251,515.0
172.252,584.0
172.253,618.0
172.254,607.0
172.255,543.0
172.256,469.0
172.257,438.0
172.258,444.0
172.259,498.0
172.26,570.0
172.261,620.0
172.262,608.0
172.263,543.0
172.264,473.0
172.265,433.0
172.266,447.0
172.267,509.0
172.268,575.0
172.269,615.0
172.27,598.0
172.271,542.0
172.272,470.0
172.273,429.0
172.274,446.0
172.275,497.0
172.276,564.0
172.277,618.0
172.278,596.0
172.279,534.0
172.28,462.0
172.281,418.0
172.282,436.0
172.283,496.0
172.284,573.0
172.285,615.0
172.286,601.0
172.287,546.0
172.288,469.0
172.289,429.0
172.29,438.0
172.291,500.0
172.292,574.0
172.293,617.0
172.294,608.0
172.295,543.0
172.296,473.0
172.297,440.0
172.298,453.0
172.299,517.0
172.3,591.0
172.301,639.0
172.302,625.0
172.303,557.0
172.304,492.0
172.305,450.0
172.306,462.0
172.307,521.0
172.308,593.0
172.309,635.0
172.31,628.0
172.311,571.0
172.312,497.0
172.313,454.0
172.314,463.0
172.315,514.0
172.316,585.0
172.317,625.0
172.318,620.0
172.319,557.0
172.32,481.0
172.321,435.0
172.322,441.0
172.323,501.0
172.324,585.0
172.325,626.0
172.326,616.0
172.327,550.0
172.328,474.0
172.329,421.0
172.33,423.0
172.331,489.0
172.332,561.0
172.333,599.0
172.334,589.0
172.335,526.0
172.336,455.0
172.337,411.0
172.338,431.0
172.339,496.0
172.34,569.0
172.341,611.0
172.342,596.0
172.343,544.0
172.344,484.0
172.345,439.0
172.346,445.0
172.347,498.0
172.348,568.0
172.349,598.0
172.35,588.0
172.351,541.0
172.352,482.0
172.353,445.0
172.354,460.0
172.355,521.0
172.356,591.0
172.357,622.0
172.358,598.0
172.359,514.0
172.36,418.0
172.361,360.0
172.362,352.0
172.363,390.0
172.364,464.0
172.365,513.0
172.366,517.0
172.367,468.0
172.368,413.0
172.369,382.0
172.37,399.0
172.371,457.0
172.372,538.0
172.373,587.0
172.374,582.0
172.375,533.0
172.376,467.0
172.377,432.0
172.378,446.0
172.379,498.0
172.38,566.0
172.381,611.0
172.382,589.0
172.383,531.0
172.384,463.0
172.385,420.0
172.386,426.0
172.387,481.0
172.388,557.0
172.389,606.0
172.39,599.0
172.391,541.0
172.392,469.0
172.393,418.0
172.394,426.0
172.395,482.0
172.396,554.0
172.397,604.0
172.398,598.0
172.399,549.0
172.4,468.0
172.401,424.0
172.402,430.0
172.403,483.0
172.404,561.0
172.405,608.0
172.406,602.0
172.407,540.0
172.408,473.0
172.409,426.0
172.41,436.0
172.411,493.0
172.412,559.0
172.413,605.0
172.414,598.0
172.415,534.0
172.416,461.0
172.417,426.0
172.418,440.0
172.419,494.0
172.42,565.0
172.421,607.0
172.422,599.0
172.423,548.0
172.424,482.0
172.425,451.0
172.426,455.0
172.427,510.0
172.428,574.0
172.429,616.0
172.43,605.0
172.431,555.0
172.432,477.0
172.433,431.0
172.434,447.0
172.435,502.0
172.436,573.0
172.437,613.0
172.438,615.0
172.439,556.0
172.44,484.0
172.441,432.0
172.442,437.0
172.443,492.0
172.444,566.0
172.445,616.0
172.446,605.0
172.447,545.0
172.448,474.0
172.449,422.0
172.45,422.0
172.451,480.0
172.452,558.0
172.453,603.0
172.454,591.0
172.455,536.0
172.456,459.0
172.457,412.0
172.458,427.0
172.459,477.0
172.46,541.0
172.461,588.0
172.462,586.0
172.463,522.0
172.464,460.0
172.465,417.0
172.466,421.0
172.467,475.0
172.468,542.0
172.469,584.0
172.47,576.0
172.471,532.0
172.472,462.0
172.473,417.0
172.474,425.0
172.475,467.0
172.476,537.0
172.477,584.0
172.478,585.0
172.479,534.0
172.48,463.0
172.481,414.0
172.482,423.0
172.483,465.0
172.484,547.0
172.485,600.0
172.486,590.0
172.487,540.0
172.488,468.0
172.489,415.0
172.49,414.0
172.491,472.0
172.492,543.0
172.493,595.0
172.494,591.0
172.495,535.0
172.496,462.0
172.497,415.0
172.498,425.0
172.499,477.0
172.5,550.0
172.501,603.0
172.502,595.0
172.503,531.0
172.504,461.0
172.505,421.0
172.506,428.0
172.507,477.0
172.508,554.0
172.509,598.0
172.51,592.0
172.511,536.0
172.512,468.0
172.513,421.0
172.514,430.0
172.515,473.0
172.516,552.0
172.517,603.0
172.518,601.0
172.519,545.0
172.52,474.0
172.521,428.0
172.522,432.0
172.523,480.0
172.524,553.0
172.525,607.0
172.526,601.0
172.527,543.0
172.528,470.0
172.529,422.0
172.53,428.0
172.531,485.0
172.532,561.0
172.533,604.0
172.534,601.0
172.535,545.0
172.536,480.0
172.537,422.0
172.538,426.0
172.539,484.0
172.54,555.0
172.541,608.0
172.542,600.0
172.543,548.0
172.544,470.0
172.545,425.0
172.546,432.0
172.547,481.0
172.548,554.0
172.549,606.0
172.55,599.0
172.551,548.0
172.552,475.0
172.553,425.0
172.554,431.0
172.555,484.0
172.556,558.0
172.557,605.0
172.558,604.0
172.559,553.0
172.56,479.0
172.561,437.0
172.562,443.0
172.563,491.0
172.564,559.0
172.565,617.0
172.566,613.0
172.567,552.0
172.568,481.0
172.569,431.0
172.57,432.0
172.571,477.0
172.572,560.0
172.573,611.0
172.574,599.0
172.575,545.0
172.576,472.0
172.577,421.0
172.578,421.0
172.579,481.0
172.58,548.0
172.581,590.0
172.582,585.0
172.583,532.0
172.584,463.0
172.585,419.0
172.586,426.0
172.587,478.0
172.588,551.0
172.589,601.0
172.59,597.0
172.591,555.0
172.592,501.0
172.593,462.0
172.594,469.0
172.595,517.0
172.596,590.0
172.597,640.0
172.598,630.0
172.599,568.0
172.6,474.0
172.601,400.0
172.602,387.0
172.603,407.0
172.604,455.0
172.605,499.0
172.606,503.0
172.607,457.0
172.608,399.0
172.609,357.0
172.61,370.0
172.611,430.0
172.612,523.0
172.613,581.0
172.614,586.0
172.615,543.0
172.616,482.0
172.617,429.0
172.618,441.0
172.619,495.0
172.62,571.0
172.621,621.0
172.622,618.0
172.623,556.0
172.624,480.0
172.625,430.0
172.626,432.0
172.627,485.0
172.628,557.0
172.629,601.0
172.63,596.0
172.631,553.0
172.632,482.0
172.633,428.0
172.634,429.0
172.635,481.0
172.636,560.0
172.637,609.0
172.638,604.0
172.639,554.0
172.64,476.0
172.641,424.0
172.642,419.0
