0.0025, 3915
0.005, 3815
0.0075, 3748
0.01, 3786
0.0125, 3814
0.015, 3872
0.0175, 4027
0.02, 3964
0.0225, 3802
0.025, 3597
0.0275, 3442
0.03, 3466
0.0325, 3446
0.035, 3297
0.0375, 3220
0.04, 3135
0.0425, 3118
0.045, 3064
0.0475, 2896
0.05, 2809
0.0525, 2747
0.055, 2643
0.0575, 2703
0.06, 2612
0.0625, 2654
0.065, 2500
0.0675, 2330
0.07, 2329
0.0725, 2344
0.075, 2279
0.0775, 2261
0.08, 2283
0.0825, 2282
0.085, 2495
0.0875, 2394
0.09, 2432
0.0925, 2670
0.095, 2789
0.0975, 2747
0.1, 2887
0.1025, 3018
0.105, 3134
0.1075, 3030
0.11, 3018
0.1125, 3142
0.115, 3318
0.1175, 3255
0.12, 3204
0.1225, 3131
0.125, 2968
0.1275, 2877
0.13, 2840
0.1325, 2879
0.135, 2833
0.1375, 2962
0.14, 2891
0.1425, 2799
0.145, 3072
0.1475, 3162
0.15, 3132
0.1525, 3168
0.155, 3135
0.1575, 3294
0.16, 3354
0.1625, 3143
0.165, 2980
0.1675, 3041
0.17, 3255
0.1725, 2923
0.175, 2707
0.1775, 2760
0.18, 2554
0.1825, 2577
0.185, 2668
0.1875, 2785
0.19, 2721
0.1925, 2663
0.195, 2475
0.1975, 2480
0.2, 2820
0.2025, 2852
0.205, 2765
0.2075, 2636
0.21, 2569
0.2125, 2478
0.215, 2353
0.2175, 2300
0.22, 2138
0.2225, 1952
0.225, 1854
0.2275, 1836
0.23, 1956
0.2325, 2258
0.235, 2512
0.2375, 2525
0.24, 2542
0.2425, 2548
0.245, 2427
0.2475, 2449
0.25, 2448
0.2525, 2445
0.255, 2582
0.2575, 2641
0.26, 2552
0.2625, 2505
0.265, 2509
0.2675, 2518
0.27, 2482
0.2725, 2481
0.275, 2527
0.2775, 2497
0.28, 2497
0.2825, 2476
0.285, 2496
0.2875, 2572
0.29, 2621
0.2925, 2677
0.295, 2667
0.2975, 2706
0.3, 2797
0.3025, 2844
0.305, 2866
0.3075, 2915
0.31, 2934
0.3125, 2790
0.315, 2907
0.3175, 2872
0.32, 2883
0.3225, 2804
0.325, 2799
0.3275, 2833
0.33, 2683
0.3325, 2567
0.335, 2420
0.3375, 2261
0.34, 2230
0.3425, 2133
0.345, 2013
0.3475, 1895
0.35, 1849
0.3525, 1920
0.355, 1942
0.3575, 1898
0.36, 1969
0.3625, 2043
0.365, 1953
0.3675, 2048
0.37, 2159
0.3725, 2164
0.375, 2268
0.3775, 2277
0.38, 2328
0.3825, 2446
0.385, 2323
0.3875, 2295
0.39, 2286
0.3925, 2372
0.395, 2460
0.3975, 2596
0.4, 2683
0.4025, 2613
0.405, 2506
0.4075, 2558
0.41, 2755
0.4125, 2799
0.415, 3131
0.4175, 3275
0.42, 3188
0.4225, 3156
0.425, 3212
0.4275, 3185
0.43, 3111
0.4325, 3162
0.435, 3206
0.4375, 3258
0.44, 3311
0.4425, 3233
0.445, 3153
0.4475, 3093
0.45, 3059
0.4525, 2907
0.455, 2745
0.4575, 2567
0.46, 2629
0.4625, 2667
0.465, 2736
0.4675, 2723
0.47, 2936
0.4725, 2817
0.475, 2907
0.4775, 2918
0.48, 2968
0.4825, 2986
0.485, 2980
0.4875, 2984
0.49, 3218
0.4925, 3310
0.495, 3377
0.4975, 3318
0.5, 3165
0.5025, 3102
0.505, 2922
0.5075, 2921
0.51, 2849
0.5125, 2834
0.515, 2608
0.5175, 2453
0.52, 2279
0.5225, 2201
0.525, 2217
0.5275, 2267
0.53, 2595
0.5325, 2578
0.535, 2644
0.5375, 2790
0.54, 3028
0.5425, 2923
0.545, 2858
0.5475, 2843
0.55, 2688
0.5525, 2654
0.555, 2693
0.5575, 2602
0.56, 2681
0.5625, 2643
0.565, 2534
0.5675, 2495
0.57, 2470
0.5725, 2340
0.575, 2327
0.5775, 2409
0.58, 2522
0.5825, 2576
0.585, 2533
0.5875, 2570
0.59, 2650
0.5925, 2646
0.595, 2569
0.5975, 2571
0.6, 2511
0.6025, 2560
0.605, 2508
0.6075, 2406
0.61, 2524
0.6125, 2556
0.615, 2521
0.6175, 2499
0.62, 2602
0.6225, 2746
0.625, 2550
0.6275, 2592
0.63, 2768
0.6325, 2890
0.635, 2908
0.6375, 2854
0.64, 2872
0.6425, 2786
0.645, 2935
0.6475, 3162
0.65, 3227
0.6525, 3355
0.655, 2944
0.6575, 2972
0.66, 2889
0.6625, 2798
0.665, 2611
0.6675, 2517
0.67, 2502
0.6725, 2434
0.675, 2434
0.6775, 2391
0.68, 2335
0.6825, 2173
0.685, 2060
0.6875, 1940
0.69, 1917
0.6925, 2066
0.695, 2049
0.6975, 1939
0.7, 2067
0.7025, 2444
0.705, 2505
0.7075, 2555
0.71, 2499
0.7125, 2657
0.715, 2599
0.7175, 2603
0.72, 2597
0.7225, 2533
0.725, 2460
0.7275, 2441
0.73, 2546
0.7325, 2572
0.735, 2681
0.7375, 2681
0.74, 2843
0.7425, 2626
0.745, 2589
0.7475, 2511
0.75, 2344
0.7525, 2344
0.755, 2173
0.7575, 2028
0.76, 1891
0.7625, 1916
0.765, 1904
0.7675, 1843
0.77, 2031
0.7725, 1935
0.775, 1973
0.7775, 1855
0.78, 1720
0.7825, 1709
0.785, 1760
0.7875, 1773
0.79, 1844
0.7925, 1962
0.795, 1949
0.7975, 1826
0.8, 1897
0.8025, 1955
0.805, 1928
0.8075, 2029
0.81, 2213
0.8125, 2197
0.815, 2170
0.8175, 2258
0.82, 2396
0.8225, 2347
0.825, 2199
0.8275, 2155
0.83, 2290
0.8325, 2499
0.835, 2562
0.8375, 2551
0.84, 2701
0.8425, 2916
0.845, 2807
0.8475, 2756
0.85, 2687
0.8525, 2692
0.855, 2729
0.8575, 2717
0.86, 2640
0.8625, 2716
0.865, 2925
0.8675, 2977
0.87, 2964
0.8725, 2966
0.875, 2898
0.8775, 2911
0.88, 2731
0.8825, 2597
0.885, 2629
0.8875, 2658
0.89, 2607
0.8925, 2605
0.895, 2876
0.8975, 3072
0.9, 3185
0.9025, 3399
0.905, 3380
0.9075, 3342
0.91, 3504
0.9125, 3451
0.915, 3509
0.9175, 3414
0.92, 3348
0.9225, 3326
0.925, 3504
0.9275, 3519
0.93, 3340
0.9325, 3472
0.935, 3326
0.9375, 3120
0.94, 3387
0.9425, 3981
0.945, 4397
0.9475, 4159
0.95, 4092
0.9525, 4140
0.955, 4054
0.9575, 3776
0.96, 3744
0.9625, 3769
0.965, 3916
0.9675, 3893
0.97, 3716
0.9725, 4136
0.975, 4264
0.9775, 4018
0.98, 3739
0.9825, 3979
0.985, 3753
0.9875, 3373
0.99, 3455
0.9925, 3458
0.995, 3764
0.9975, 3748
1.0, 3750
1.0025, 3758
1.005, 3811
1.0075, 3712
1.01, 3805
1.0125, 3868
1.015, 3872
1.0175, 3794
1.02, 3915
1.0225, 3554
1.025, 3437
1.0275, 3458
1.03, 4049
1.0325, 3871
1.035, 3735
1.0375, 3899
1.04, 3732
1.0425, 3805
1.045, 3824
1.0475, 3672
1.05, 3758
1.0525, 3663
1.055, 3646
1.0575, 3527
1.06, 3607
1.0625, 3590
1.065, 3393
1.0675, 3557
1.07, 3525
1.0725, 3230
1.075, 3060
1.0775, 3349
1.08, 3774
1.0825, 3324
1.085, 3052
1.0875, 3230
1.09, 3464
1.0925, 3385
1.095, 3158
1.0975, 3124
1.1, 3207
1.1025, 3245
1.105, 3063
1.1075, 3240
1.11, 3085
1.1125, 3020
1.115, 3150
1.1175, 3329
1.12, 3307
1.1225, 3203
1.125, 3507
1.1275, 3380
1.13, 3209
1.1325, 3074
1.135, 2799
1.1375, 2693
1.14, 2799
1.1425, 2637
1.145, 2455
1.1475, 2422
1.15, 2459
1.1525, 2365
1.155, 2175
1.1575, 2002
1.16, 2113
1.1625, 2330
1.165, 2263
1.1675, 2119
1.17, 2195
1.1725, 2306
1.175, 2418
1.1775, 2349
1.18, 2296
1.1825, 2162
1.185, 2052
1.1875, 2015
1.19, 2323
1.1925, 2255
1.195, 2317
1.1975, 2368
1.2, 2173
1.2025, 2082
1.205, 1935
1.2075, 2042
1.21, 2211
1.2125, 2135
1.215, 2377
1.2175, 2265
1.22, 2448
1.2225, 2496
1.225, 2419
1.2275, 2379
1.23, 2440
1.2325, 2397
1.235, 2388
1.2375, 2341
1.24, 2192
1.2425, 2234
1.245, 2441
1.2475, 2392
1.25, 2562
1.2525, 2589
1.255, 2606
1.2575, 2619
1.26, 2735
1.2625, 2837
1.265, 2964
1.2675, 2907
1.27, 3080
1.2725, 3101
1.275, 3042
1.2775, 2915
1.28, 2969
1.2825, 3032
1.285, 3011
1.2875, 3021
1.29, 3004
1.2925, 2982
1.295, 2982
1.2975, 2950
1.3, 2892
1.3025, 2847
1.305, 2936
1.3075, 2932
1.31, 2935
1.3125, 2974
1.315, 3022
1.3175, 3025
1.32, 3038
1.3225, 2987
1.325, 2997
1.3275, 2864
1.33, 2758
1.3325, 2670
1.335, 2596
1.3375, 2538
1.34, 2526
1.3425, 2523
1.345, 2489
1.3475, 2485
1.35, 2441
1.3525, 2412
1.355, 2341
1.3575, 2263
1.36, 2110
1.3625, 2115
1.365, 2043
1.3675, 2068
1.37, 2080
1.3725, 2034
1.375, 2131
1.3775, 2131
1.38, 2162
1.3825, 2187
1.385, 2207
1.3875, 2298
1.39, 2359
1.3925, 2581
1.395, 2614
1.3975, 2660
1.4, 2573
1.4025, 2635
1.405, 2600
1.4075, 2519
1.41, 2469
1.4125, 2449
1.415, 2432
1.4175, 2467
1.42, 2281
1.4225, 2370
1.425, 2373
1.4275, 2533
1.43, 2427
1.4325, 2639
1.435, 2714
1.4375, 2712
1.44, 2771
1.4425, 2678
1.445, 2485
1.4475, 2590
1.45, 2549
1.4525, 2756
1.455, 2674
1.4575, 2758
1.46, 2680
1.4625, 2569
1.465, 3234
1.4675, 3732
1.47, 3581
1.4725, 3393
1.475, 3355
1.4775, 3170
1.48, 2905
1.4825, 2999
1.485, 2975
1.4875, 3203
1.49, 3114
1.4925, 3080
1.495, 3142
1.4975, 3052
1.5, 3108
1.5025, 2993
1.505, 3391
1.5075, 3389
1.51, 3191
1.5125, 3165
1.515, 3059
1.5175, 2978
1.52, 3073
1.5225, 3255
1.525, 3249
1.5275, 3777
1.53, 3455
1.5325, 3262
1.535, 3171
1.5375, 3176
1.54, 3142
1.5425, 3423
1.545, 3421
1.5475, 3519
1.55, 3630
1.5525, 3507
1.555, 3359
1.5575, 3628
1.56, 3587
1.5625, 3631
1.565, 3827
1.5675, 3894
1.57, 3877
1.5725, 3882
1.575, 3874
1.5775, 3707
1.58, 3582
1.5825, 3825
1.585, 3588
1.5875, 3431
1.59, 3237
1.5925, 3485
1.595, 3445
1.5975, 3349
1.6, 3449
1.6025, 3414
1.605, 3524
1.6075, 3698
1.61, 3661
1.6125, 3617
1.615, 3712
1.6175, 3705
1.62, 3584
1.6225, 3532
1.625, 3297
1.6275, 3494
1.63, 3531
1.6325, 3431
1.635, 3326
1.6375, 3421
1.64, 3251
1.6425, 3125
1.645, 3018
1.6475, 2805
1.65, 2709
1.6525, 3059
1.655, 3112
1.6575, 3084
1.66, 2898
1.6625, 2906
1.665, 2895
1.6675, 3003
1.67, 3015
1.6725, 2942
1.675, 2895
1.6775, 2748
1.68, 3645
1.6825, 3859
1.685, 3829
1.6875, 3546
1.69, 3156
1.6925, 2555
1.695, 2654
1.6975, 3013
1.7, 3343
1.7025, 3605
1.705, 4006
1.7075, 3753
1.71, 3456
1.7125, 3788
1.715, 4031
1.7175, 3966
1.72, 3834
1.7225, 3602
1.725, 3376
1.7275, 3146
1.73, 2755
1.7325, 2696
1.735, 3020
1.7375, 2991
1.74, 2894
1.7425, 2659
1.745, 2463
1.7475, 3138
1.75, 3010
1.7525, 2637
1.755, 2985
1.7575, 3076
1.76, 2846
1.7625, 2552
1.765, 2232
1.7675, 1929
1.77, 1565
1.7725, 1822
1.775, 1986
1.7775, 1887
1.78, 1757
1.7825, 1632
1.785, 1429
1.7875, 1198
1.79, 1188
1.7925, 2054
1.795, 2028
1.7975, 1878
1.8, 1829
1.8025, 1527
1.805, 1311
1.8075, 1061
1.81, 810
1.8125, 873
1.815, 1557
1.8175, 1435
1.82, 1309
1.8225, 1447
1.825, 1226
1.8275, 2089
1.83, 2625
1.8325, 2591
1.835, 2191
1.8375, 1937
1.84, 1799
1.8425, 1768
1.845, 1842
1.8475, 2311
1.85, 2788
1.8525, 2758
1.855, 2793
1.8575, 2731
1.86, 2591
1.8625, 2466
1.865, 2384
1.8675, 2544
1.87, 2466
1.8725, 2284
1.875, 2095
1.8775, 2100
1.88, 2067
1.8825, 2112
1.885, 2109
1.8875, 2152
1.89, 2260
1.8925, 2347
1.895, 2381
1.8975, 2437
1.9, 2483
1.9025, 2379
1.905, 3075
1.9075, 2886
1.91, 2687
1.9125, 2614
1.915, 2544
1.9175, 2388
1.92, 2250
1.9225, 2100
1.925, 1974
1.9275, 1931
1.93, 1925
1.9325, 3012
1.935, 3614
1.9375, 3567
1.94, 3393
1.9425, 3183
1.945, 2990
1.9475, 3007
1.95, 2712
1.9525, 2650
1.955, 2564
1.9575, 2432
1.96, 2298
1.9625, 2215
1.965, 2113
1.9675, 1971
1.97, 1881
1.9725, 1776
1.975, 1686
1.9775, 2821
1.98, 3755
1.9825, 3893
1.985, 3914
1.9875, 3831
1.99, 3759
1.9925, 3615
1.995, 3504
1.9975, 3316
2.0, 3192
2.0025, 3118
2.005, 3060
2.0075, 2959
2.01, 2807
2.0125, 2682
2.015, 2520
2.0175, 2376
2.02, 2806
2.0225, 3546
2.025, 3433
2.0275, 3197
2.03, 2952
2.0325, 2713
2.035, 2502
2.0375, 2293
2.04, 2187
2.0425, 2055
2.045, 1845
2.0475, 1541
2.05, 1575
2.0525, 3204
2.055, 4119
2.0575, 4288
2.06, 4362
2.0625, 4362
2.065, 4347
2.0675, 4287
2.07, 4313
2.0725, 4222
2.075, 4106
2.0775, 4070
2.08, 3923
2.0825, 3824
2.085, 3728
2.0875, 3588
2.09, 3447
2.0925, 3316
2.095, 3265
2.0975, 3151
2.1, 3006
2.1025, 2888
2.105, 2786
2.1075, 2666
2.11, 2644
2.1125, 2608
2.115, 2536
2.1175, 2493
2.12, 2362
2.1225, 2242
2.125, 2145
2.1275, 2051
2.13, 1983
2.1325, 1892
2.135, 1767
2.1375, 1774
2.14, 1626
2.1425, 1541
2.145, 1467
2.1475, 1430
2.15, 1422
2.1525, 1380
2.155, 1285
2.1575, 1206
2.16, 1136
2.1625, 1111
2.165, 1101
2.1675, 1114
2.17, 1123
2.1725, 1708
2.175, 2746
2.1775, 2911
2.18, 2899
2.1825, 2805
2.185, 2735
2.1875, 2574
2.19, 2398
2.1925, 2198
2.195, 2047
2.1975, 1871
2.2, 1708
2.2025, 1541
2.205, 1561
2.2075, 1615
2.21, 1550
2.2125, 1392
2.215, 1298
2.2175, 1256
2.22, 1193
2.2225, 1174
2.225, 1249
2.2275, 2267
2.23, 3191
2.2325, 3388
2.235, 3441
2.2375, 3473
2.24, 3416
2.2425, 3341
2.245, 3299
2.2475, 3282
2.25, 3244
2.2525, 3179
2.255, 3045
2.2575, 2940
2.26, 2845
2.2625, 2800
2.265, 2776
2.2675, 2763
2.27, 2737
2.2725, 2642
2.275, 2604
2.2775, 2537
2.28, 2528
2.2825, 2508
2.285, 2521
2.2875, 2631
2.29, 2657
2.2925, 2659
2.295, 2652
2.2975, 2624
2.3, 2612
2.3025, 2620
2.305, 2603
2.3075, 2601
2.31, 2510
2.3125, 2388
2.315, 2361
2.3175, 2377
2.32, 2512
2.3225, 2585
2.325, 2634
2.3275, 2589
2.33, 2590
2.3325, 2597
2.335, 2564
2.3375, 2500
2.34, 2515
2.3425, 2663
2.345, 2641
2.3475, 2572
2.35, 2571
2.3525, 2658
2.355, 2674
2.3575, 2599
2.36, 2422
2.3625, 2291
2.365, 2240
2.3675, 2268
2.37, 2242
2.3725, 2209
2.375, 2151
2.3775, 2148
2.38, 2213
2.3825, 2285
2.385, 2380
2.3875, 2428
2.39, 2458
2.3925, 2491
2.395, 2557
2.3975, 4078
2.4, 4710
2.4025, 4815
2.405, 4779
2.4075, 4729
2.41, 4650
2.4125, 4458
2.415, 4464
2.4175, 4370
2.42, 4204
2.4225, 3989
2.425, 3748
2.4275, 3503
2.43, 3277
2.4325, 3040
2.435, 2901
2.4375, 4023
2.44, 4629
2.4425, 4693
2.445, 4598
2.4475, 4419
2.45, 4262
2.4525, 4145
2.455, 4004
2.4575, 3806
2.46, 3616
2.4625, 3533
2.465, 3475
2.4675, 3382
2.47, 3205
2.4725, 3016
2.475, 2792
2.4775, 2651
2.48, 3185
2.4825, 4404
2.485, 4760
2.4875, 4802
2.49, 4708
2.4925, 4540
2.495, 4451
2.4975, 4299
2.5, 4118
2.5025, 3937
2.505, 3820
2.5075, 3705
2.51, 3594
2.5125, 3477
2.515, 3378
2.5175, 3314
2.52, 3274
2.5225, 3118
2.525, 3018
2.5275, 2953
2.53, 2840
2.5325, 2719
2.535, 2673
2.5375, 2621
2.54, 2583
2.5425, 2512
2.545, 2463
2.5475, 2421
2.55, 2406
2.5525, 2386
2.555, 2352
2.5575, 2273
2.56, 2182
2.5625, 2165
2.565, 2164
2.5675, 2345
2.57, 2502
2.5725, 2753
2.575, 3770
2.5775, 4743
2.58, 5025
2.5825, 5027
2.585, 4917
2.5875, 4707
2.59, 4468
2.5925, 4230
2.595, 4143
2.5975, 3757
2.6, 3538
2.6025, 3345
2.605, 3133
2.6075, 2921
2.61, 2765
2.6125, 2598
2.615, 2456
2.6175, 2238
2.62, 2129
2.6225, 1994
2.625, 1883
2.6275, 1758
2.63, 1612
2.6325, 2089
2.635, 3491
2.6375, 3958
2.64, 4099
2.6425, 4079
2.645, 4037
2.6475, 3952
2.65, 3926
2.6525, 3862
2.655, 3757
2.6575, 3623
2.66, 3550
2.6625, 3492
2.665, 3429
2.6675, 3380
2.67, 3421
2.6725, 3470
2.675, 3510
2.6775, 3512
2.68, 3471
2.6825, 3615
2.685, 3453
2.6875, 3569
2.69, 3596
2.6925, 3378
2.695, 3091
2.6975, 2994
2.7, 3135
2.7025, 3329
2.705, 3454
2.7075, 3438
2.71, 3404
2.7125, 3351
2.715, 3392
2.7175, 3352
2.72, 3254
2.7225, 3244
2.725, 3101
2.7275, 2900
2.73, 2910
2.7325, 2900
2.735, 2752
2.7375, 2600
2.74, 2504
2.7425, 2373
2.745, 2173
2.7475, 2308
2.75, 2567
2.7525, 2907
2.755, 3195
2.7575, 3205
2.76, 3201
2.7625, 3109
2.765, 3156
2.7675, 3308
2.77, 3425
2.7725, 3738
2.775, 3775
2.7775, 3598
2.78, 3413
2.7825, 3223
2.785, 2973
2.7875, 2907
2.79, 2726
2.7925, 2555
2.795, 2409
2.7975, 2226
2.8, 2260
2.8025, 2766
2.805, 2981
2.8075, 3149
2.81, 3203
2.8125, 3411
2.815, 3619
2.8175, 3548
2.82, 3457
2.8225, 3480
2.825, 3232
2.8275, 3170
2.83, 3810
2.8325, 3930
2.835, 3754
2.8375, 3649
2.84, 3542
2.8425, 3421
2.845, 3252
2.8475, 3063
2.85, 3061
2.8525, 2951
2.855, 2824
2.8575, 2625
2.86, 2385
2.8625, 2142
2.865, 2049
2.8675, 2352
2.87, 2527
2.8725, 2713
2.875, 2790
2.8775, 2616
2.88, 2617
2.8825, 2557
2.885, 2597
2.8875, 2610
2.89, 2533
2.8925, 2451
2.895, 2458
2.8975, 2632
2.9, 2610
2.9025, 2681
2.905, 2861
2.9075, 2876
2.91, 3164
2.9125, 2938
2.915, 3037
2.9175, 3271
2.92, 3295
2.9225, 3314
2.925, 3376
2.9275, 3372
2.93, 3286
2.9325, 2995
2.935, 2724
2.9375, 2604
2.94, 2810
2.9425, 3013
2.945, 3325
2.9475, 3492
2.95, 3659
2.9525, 3313
2.955, 3118
2.9575, 3320
2.96, 3286
2.9625, 3610
2.965, 3276
2.9675, 3430
2.97, 3739
2.9725, 3921
2.975, 3929
2.9775, 3809
2.98, 3675
2.9825, 3593
2.985, 3534
2.9875, 3461
2.99, 3232
2.9925, 3106
2.995, 3169
2.9975, 3094
3.0, 2896
3.0025, 2788
3.005, 2630
3.0075, 2565
3.01, 2422
3.0125, 2453
3.015, 2359
3.0175, 2286
3.02, 2341
3.0225, 2380
3.025, 2368
3.0275, 2337
3.03, 2340
3.0325, 2338
3.035, 2383
3.0375, 2413
3.04, 2503
3.0425, 2619
3.045, 2752
3.0475, 2784
3.05, 2764
3.0525, 2709
3.055, 2711
3.0575, 2707
3.06, 2818
3.0625, 2787
3.065, 2812
3.0675, 2858
3.07, 2896
3.0725, 2943
3.075, 3040
3.0775, 3094
3.08, 3116
3.0825, 3131
3.085, 3101
3.0875, 3115
3.09, 3099
3.0925, 3040
3.095, 3426
3.0975, 4515
3.1, 5276
3.1025, 6661
3.105, 6287
3.1075, 6282
3.11, 6301
3.1125, 6285
3.115, 6279
3.1175, 6102
3.12, 5994
3.1225, 5901
3.125, 5781
3.1275, 5634
3.13, 5520
3.1325, 5424
3.135, 5266
3.1375, 5162
3.14, 5020
3.1425, 4909
3.145, 4788
3.1475, 4645
3.15, 4447
3.1525, 4275
3.155, 4072
3.1575, 3941
3.16, 3794
3.1625, 3646
3.165, 3491
3.1675, 3278
3.17, 3060
3.1725, 2901
3.175, 2754
3.1775, 2666
3.18, 2571
3.1825, 2514
3.185, 2464
3.1875, 2435
3.19, 2564
3.1925, 3577
3.195, 3654
3.1975, 3647
3.2, 3558
3.2025, 3443
3.205, 3350
3.2075, 3249
3.21, 3355
3.2125, 3524
3.215, 3663
3.2175, 3610
3.22, 3462
3.2225, 3522
3.225, 3375
3.2275, 3203
3.23, 2999
3.2325, 2791
3.235, 2883
3.2375, 3098
3.24, 3043
3.2425, 2917
3.245, 2774
3.2475, 2649
3.25, 2487
3.2525, 2384
3.255, 2444
3.2575, 2703
3.26, 2678
3.2625, 2595
3.265, 2488
3.2675, 2382
3.27, 2290
3.2725, 2251
3.275, 2751
3.2775, 3014
3.28, 3047
3.2825, 2998
3.285, 2943
3.2875, 2845
3.29, 2723
3.2925, 2630
3.295, 2518
3.2975, 2404
3.3, 2264
3.3025, 2171
3.305, 2058
3.3075, 2533
3.31, 2603
3.3125, 2579
3.315, 2543
3.3175, 2512
3.32, 2456
3.3225, 2371
3.325, 2294
3.3275, 2164
3.33, 2176
3.3325, 1903
3.335, 1780
3.3375, 1689
3.34, 1678
3.3425, 2061
3.345, 1895
3.3475, 2494
3.35, 2935
3.3525, 3130
3.355, 3256
3.3575, 3337
3.36, 3150
3.3625, 3206
3.365, 3007
3.3675, 2892
3.37, 2914
3.3725, 2580
3.375, 2403
3.3775, 2692
3.38, 2826
3.3825, 2864
3.385, 2623
3.3875, 2394
3.39, 2283
3.3925, 2520
3.395, 2679
3.3975, 2633
3.4, 2570
3.4025, 2481
3.405, 2336
3.4075, 2147
3.41, 2095
3.4125, 2138
3.415, 2110
3.4175, 2101
3.42, 2092
3.4225, 2030
3.425, 1922
3.4275, 1864
3.43, 1766
3.4325, 1729
3.435, 1696
3.4375, 1789
3.44, 2168
3.4425, 2252
3.445, 2548
3.4475, 3209
3.45, 3278
3.4525, 3234
3.455, 3068
3.4575, 3122
3.46, 2969
3.4625, 2827
3.465, 2687
3.4675, 2498
3.47, 2741
3.4725, 2520
3.475, 2398
3.4775, 2378
3.48, 2326
3.4825, 2129
3.485, 2294
3.4875, 2418
3.49, 2469
3.4925, 2907
3.495, 3261
3.4975, 3408
3.5, 3568
3.5025, 3590
3.505, 3606
3.5075, 3570
3.51, 3553
3.5125, 3531
3.515, 3491
3.5175, 3484
3.52, 3491
3.5225, 3509
3.525, 3462
3.5275, 3391
3.53, 3269
3.5325, 3211
3.535, 3130
3.5375, 2960
3.54, 2828
3.5425, 2795
3.545, 2727
3.5475, 2694
3.55, 2670
3.5525, 2652
3.555, 2678
3.5575, 2793
3.56, 2566
3.5625, 2458
3.565, 2370
3.5675, 2257
3.57, 2184
3.5725, 2109
3.575, 2035
3.5775, 1980
3.58, 2047
3.5825, 2085
3.585, 2100
3.5875, 2045
3.59, 2026
3.5925, 2049
3.595, 2000
3.5975, 1969
3.6, 2016
3.6025, 2083
3.605, 2047
3.6075, 1970
3.61, 2056
3.6125, 2049
3.615, 2205
3.6175, 2397
3.62, 2467
3.6225, 2643
3.625, 2821
3.6275, 2950
3.63, 3033
3.6325, 3049
3.635, 3011
3.6375, 2991
3.64, 2985
3.6425, 2876
3.645, 2781
3.6475, 2764
3.65, 2697
3.6525, 2798
3.655, 3119
3.6575, 3229
3.66, 3262
3.6625, 3274
3.665, 3231
3.6675, 3131
3.67, 3013
3.6725, 2939
3.675, 2843
3.6775, 2733
3.68, 2688
3.6825, 2606
3.685, 2526
3.6875, 2419
3.69, 2387
3.6925, 2339
3.695, 2226
3.6975, 2242
3.7, 2122
3.7025, 2085
3.705, 1878
3.7075, 1143
3.71, 532
3.7125, 215
3.715, 150
3.7175, 587
3.72, 780
3.7225, 750
3.725, 679
3.7275, 705
3.73, 835
3.7325, 817
3.735, 742
3.7375, 717
3.74, 703
3.7425, 641
3.745, 573
3.7475, 509
3.75, 453
3.7525, 379
3.755, 303
3.7575, 272
3.76, 856
3.7625, 927
3.765, 807
3.7675, 692
3.77, 611
3.7725, 631
3.775, 768
3.7775, 993
3.78, 1304
3.7825, 1460
3.785, 1540
3.7875, 1766
3.79, 2697
3.7925, 2819
3.795, 2711
3.7975, 2475
3.8, 2543
3.8025, 3282
3.805, 3415
3.8075, 3402
3.81, 3422
3.8125, 3400
3.815, 3339
3.8175, 3251
3.82, 3200
3.8225, 3195
3.825, 3153
3.8275, 3086
3.83, 2989
3.8325, 2911
3.835, 2845
3.8375, 2796
3.84, 2704
3.8425, 2754
3.845, 2790
3.8475, 2730
3.85, 2863
3.8525, 3036
3.855, 2945
3.8575, 2960
3.86, 2978
3.8625, 3036
3.865, 3338
3.8675, 2992
3.87, 3002
3.8725, 3026
3.875, 3007
3.8775, 2921
3.88, 2808
3.8825, 2738
3.885, 3025
3.8875, 3844
3.89, 4300
3.8925, 4731
3.895, 5001
3.8975, 5288
3.9, 5246
3.9025, 5424
3.905, 5567
3.9075, 5223
3.91, 5474
3.9125, 5665
3.915, 5470
3.9175, 5618
3.92, 5288
3.9225, 5519
3.925, 5292
3.9275, 5560
3.93, 5406
3.9325, 5420
3.935, 5133
3.9375, 5125
3.94, 5193
3.9425, 5349
3.945, 5521
3.9475, 5630
3.95, 5717
3.9525, 5714
3.955, 5525
3.9575, 5343
3.96, 5202
3.9625, 5168
3.965, 5054
3.9675, 4845
3.97, 4655
3.9725, 4499
3.975, 4439
3.9775, 4930
3.98, 5259
3.9825, 5463
3.985, 5263
3.9875, 5017
3.99, 4786
3.9925, 4560
3.995, 4738
3.9975, 4861
4.0, 4851
4.0025, 4989
4.005, 4954
4.0075, 4933
4.01, 4831
4.0125, 4949
4.015, 5392
4.0175, 5812
4.02, 5847
4.0225, 5415
4.025, 4725
4.0275, 4545
4.03, 4473
4.0325, 4554
4.035, 4565
4.0375, 4290
4.04, 3925
4.0425, 3921
4.045, 3860
4.0475, 3682
4.05, 3664
4.0525, 3594
4.055, 3498
4.0575, 2909
4.06, 2639
4.0625, 2413
4.065, 2050
4.0675, 1933
4.07, 1969
4.0725, 1874
4.075, 1763
4.0775, 1939
4.08, 1939
4.0825, 2018
4.085, 2107
4.0875, 2323
4.09, 2385
4.0925, 2199
4.095, 2770
4.0975, 3174
4.1, 2944
4.1025, 3650
4.105, 3677
4.1075, 3454
4.11, 3370
4.1125, 3546
4.115, 3580
4.1175, 3568
4.12, 3706
4.1225, 4006
4.125, 4566
4.1275, 4495
4.13, 4275
4.1325, 4185
4.135, 3953
4.1375, 3352
4.14, 3085
4.1425, 3345
4.145, 3416
4.1475, 3811
4.15, 4244
4.1525, 5364
4.155, 5448
4.1575, 5356
4.16, 5099
4.1625, 5069
4.165, 4965
4.1675, 5032
4.17, 5243
4.1725, 5603
4.175, 6276
4.1775, 6293
4.18, 6283
4.1825, 6281
4.185, 6049
4.1875, 5807
4.19, 5614
4.1925, 5903
4.195, 5836
4.1975, 5433
4.2, 4916
4.2025, 4600
4.205, 5335
4.2075, 5554
4.21, 6029
4.2125, 5954
4.215, 5699
4.2175, 5271
4.22, 5260
4.2225, 5579
4.225, 5463
4.2275, 5087
4.23, 4724
4.2325, 4308
4.235, 3857
4.2375, 3984
4.24, 3865
4.2425, 3578
4.245, 3270
4.2475, 2968
4.25, 2247
4.2525, 1958
4.255, 1696
4.2575, 1482
4.26, 1380
4.2625, 1660
4.265, 2306
4.2675, 2809
4.27, 2976
4.2725, 3036
4.275, 3046
4.2775, 2977
4.28, 2784
4.2825, 2614
4.285, 2367
4.2875, 2719
4.29, 3163
4.2925, 3219
4.295, 3158
4.2975, 2891
4.3, 2701
4.3025, 2393
4.305, 2033
4.3075, 1701
4.31, 1738
4.3125, 1462
4.315, 1221
4.3175, 1406
4.32, 1890
4.3225, 1998
4.325, 2541
4.3275, 2964
4.33, 2990
4.3325, 2784
4.335, 2724
4.3375, 2518
4.34, 2273
4.3425, 2187
4.345, 3127
4.3475, 3429
4.35, 3427
4.3525, 3359
4.355, 3399
4.3575, 3476
4.36, 3507
4.3625, 3725
4.365, 3800
4.3675, 3747
4.37, 3652
4.3725, 3293
4.375, 3166
4.3775, 3215
4.38, 3477
4.3825, 3614
4.385, 3623
4.3875, 3544
4.39, 3461
4.3925, 3201
4.395, 3036
4.3975, 2914
4.4, 2721
4.4025, 2578
4.405, 2387
4.4075, 2225
4.41, 2061
4.4125, 1964
4.415, 1928
4.4175, 1924
4.42, 1903
4.4225, 2429
4.425, 3038
4.4275, 3238
4.43, 3114
4.4325, 2979
4.435, 2775
4.4375, 2663
4.44, 2526
4.4425, 2352
4.445, 2202
4.4475, 2045
4.45, 1858
4.4525, 1657
4.455, 1663
4.4575, 1959
4.46, 2069
4.4625, 2108
4.465, 2020
4.4675, 1940
4.47, 1864
4.4725, 1751
4.475, 1666
4.4775, 1611
4.48, 1577
4.4825, 1504
4.485, 1356
4.4875, 935
4.49, 655
4.4925, 490
4.495, 485
4.4975, 498
4.5, 495
4.5025, 470
4.505, 395
4.5075, 517
4.51, 449
4.5125, 400
4.515, 462
4.5175, 546
4.52, 759
4.5225, 1080
4.525, 1188
4.5275, 1222
4.53, 1292
4.5325, 1453
4.535, 1620
4.5375, 1933
4.54, 1714
4.5425, 2216
4.545, 2512
4.5475, 2369
4.55, 2601
4.5525, 3900
4.555, 4071
4.5575, 3591
4.56, 3540
4.5625, 3464
4.565, 3107
4.5675, 2906
4.57, 2906
4.5725, 2569
4.575, 3273
4.5775, 4321
4.58, 4466
4.5825, 4384
4.585, 4196
4.5875, 3956
4.59, 3659
4.5925, 3413
4.595, 3073
4.5975, 2485
4.6, 2861
4.6025, 3219
4.605, 3258
4.6075, 3458
4.61, 3733
4.6125, 3778
4.615, 3759
4.6175, 3680
4.62, 3537
4.6225, 3440
4.625, 3297
4.6275, 3215
4.63, 3301
4.6325, 3558
4.635, 4005
4.6375, 4323
4.64, 4495
4.6425, 4546
4.645, 4512
4.6475, 4409
4.65, 4330
4.6525, 4226
4.655, 4191
4.6575, 4124
4.66, 4136
4.6625, 4088
4.665, 4039
4.6675, 3985
4.67, 3877
4.6725, 3798
4.675, 3679
4.6775, 3523
4.68, 3567
4.6825, 4566
4.685, 4809
4.6875, 4755
4.69, 4584
4.6925, 4382
4.695, 4231
4.6975, 4251
4.7, 4904
4.7025, 4895
4.705, 4620
4.7075, 4305
4.71, 4020
4.7125, 4174
4.715, 3872
4.7175, 3540
4.72, 3263
4.7225, 2955
4.725, 2687
4.7275, 2754
4.73, 3521
4.7325, 3438
4.735, 3589
4.7375, 3877
4.74, 3652
4.7425, 4179
4.745, 4718
4.7475, 4695
4.75, 4431
4.7525, 4135
4.755, 3867
4.7575, 3582
4.76, 3226
4.7625, 3078
4.765, 3678
4.7675, 3373
4.77, 3131
4.7725, 2927
4.775, 2740
4.7775, 2462
4.78, 2215
4.7825, 3538
4.785, 4773
4.7875, 5060
4.79, 5498
4.7925, 6286
4.795, 6282
4.7975, 6138
4.8, 5621
4.8025, 5227
4.805, 4847
4.8075, 4526
4.81, 4285
4.8125, 4073
4.815, 3924
4.8175, 4266
4.82, 3969
4.8225, 3767
4.825, 3554
4.8275, 3565
4.83, 3884
4.8325, 3605
4.835, 3304
4.8375, 3042
4.84, 2783
4.8425, 2578
4.845, 2445
4.8475, 2255
4.85, 2088
4.8525, 1923
4.855, 1777
4.8575, 1964
4.86, 1864
4.8625, 1534
4.865, 1229
4.8675, 1255
4.87, 2055
4.8725, 2714
4.875, 2917
4.8775, 2606
4.88, 2243
4.8825, 1946
4.885, 1719
4.8875, 1506
4.89, 1355
4.8925, 1225
4.895, 1107
4.8975, 978
4.9, 871
4.9025, 839
4.905, 955
4.9075, 1878
4.91, 2953
4.9125, 3189
4.915, 3136
4.9175, 3086
4.92, 3064
4.9225, 3588
4.925, 3476
4.9275, 3233
4.93, 2955
4.9325, 2741
4.935, 2487
4.9375, 2365
4.94, 2252
4.9425, 2104
4.945, 1879
4.9475, 1631
4.95, 1438
4.9525, 1247
4.955, 992
4.9575, 1473
4.96, 1662
4.9625, 1534
4.965, 1377
4.9675, 1332
4.97, 1260
4.9725, 1161
4.975, 1524
4.9775, 2239
4.98, 2084
4.9825, 1860
4.985, 1626
4.9875, 1399
4.99, 1208
4.9925, 1137
4.995, 1523
4.9975, 1807
5.0, 1637
5.0025, 1551
5.005, 1386
5.0075, 1321
5.01, 1302
5.0125, 1073
5.015, 734
5.0175, 232
5.02, -2
5.0225, 629
5.025, 613
5.0275, 411
5.03, 939
5.0325, 738
5.035, 422
5.0375, 596
5.04, 397
5.0425, 43
5.045, 1
5.0475, 459
5.05, 2199
5.0525, 2360
5.055, 2070
5.0575, 2098
5.06, 1858
5.0625, 2420
5.065, 3183
5.0675, 3540
5.07, 3424
5.0725, 3499
5.075, 3132
5.0775, 3309
5.08, 3119
5.0825, 2922
5.085, 2746
5.0875, 2828
5.09, 2991
5.0925, 2895
5.095, 2704
5.0975, 2688
5.1, 2849
5.1025, 2824
5.105, 2772
5.1075, 2369
5.11, 2512
5.1125, 2344
5.115, 2055
5.1175, 1859
5.12, 1736
5.1225, 2194
5.125, 2155
5.1275, 2020
5.13, 1874
5.1325, 2456
5.135, 2208
5.1375, 1852
5.14, 1833
5.1425, 1613
5.145, 1666
5.1475, 1553
5.15, 2461
5.1525, 2999
5.155, 3146
5.1575, 3270
5.16, 3348
5.1625, 4059
5.165, 4483
5.1675, 4583
5.17, 4487
5.1725, 4548
5.175, 4515
5.1775, 4864
5.18, 5809
5.1825, 6190
5.185, 6162
5.1875, 6020
5.19, 6007
5.1925, 5705
5.195, 5792
5.1975, 5378
5.2, 4852
5.2025, 4582
5.205, 5183
5.2075, 4907
5.21, 4403
5.2125, 4049
5.215, 3618
5.2175, 3095
5.22, 3400
5.2225, 3339
5.225, 3373
5.2275, 3528
5.23, 3387
5.2325, 3188
5.235, 3108
5.2375, 3946
5.24, 3867
5.2425, 3831
5.245, 3703
5.2475, 3906
5.25, 3893
5.2525, 3850
5.255, 3851
5.2575, 3868
5.26, 3828
5.2625, 3548
5.265, 3227
5.2675, 3412
5.27, 3167
5.2725, 2939
5.275, 3380
5.2775, 3807
5.28, 3950
5.2825, 3740
5.285, 3697
5.2875, 3837
5.29, 4025
5.2925, 3761
5.295, 3854
5.2975, 3792
5.3, 3662
5.3025, 3585
5.305, 3926
5.3075, 4246
5.31, 4044
5.3125, 3607
5.315, 3269
5.3175, 3114
5.32, 2991
5.3225, 2990
5.325, 3065
5.3275, 3109
5.33, 3229
5.3325, 3751
5.335, 3697
5.3375, 3093
5.34, 2894
5.3425, 2766
5.345, 2521
5.3475, 2408
5.35, 2233
5.3525, 2164
5.355, 2230
5.3575, 2202
5.36, 2436
5.3625, 2549
5.365, 2775
5.3675, 2566
5.37, 2699
5.3725, 2558
5.375, 2282
5.3775, 2032
5.38, 2168
5.3825, 2458
5.385, 2441
5.3875, 2558
5.39, 2649
5.3925, 2570
5.395, 2451
5.3975, 3123
5.4, 3242
5.4025, 3181
5.405, 2843
5.4075, 2714
5.41, 2811
5.4125, 3154
5.415, 2698
5.4175, 2298
5.42, 2034
5.4225, 1828
5.425, 1823
5.4275, 2472
5.43, 2834
5.4325, 3066
5.435, 3023
5.4375, 2736
5.44, 2468
5.4425, 2383
5.445, 2333
5.4475, 2411
5.45, 2336
5.4525, 2256
5.455, 2170
5.4575, 2320
5.46, 2763
5.4625, 2945
5.465, 2545
5.4675, 2468
5.47, 2980
5.4725, 2824
5.475, 2724
5.4775, 2484
5.48, 2332
5.4825, 2373
5.485, 2514
5.4875, 3198
5.49, 3341
5.4925, 3098
5.495, 2814
5.4975, 2586
5.5, 2404
5.5025, 2380
5.505, 2243
5.5075, 2134
5.51, 2007
5.5125, 2001
5.515, 1897
5.5175, 1904
5.52, 1810
5.5225, 1663
5.525, 1593
5.5275, 1550
5.53, 1544
5.5325, 1637
5.535, 1903
5.5375, 3048
5.54, 3699
5.5425, 4111
5.545, 3998
5.5475, 3638
5.55, 4506
5.5525, 4840
5.555, 4686
5.5575, 4322
5.56, 3722
5.5625, 3792
5.565, 3598
5.5675, 3436
5.57, 3403
5.5725, 3107
5.575, 3200
5.5775, 3187
5.58, 3228
5.5825, 3347
5.585, 3921
5.5875, 3840
5.59, 3564
5.5925, 3325
5.595, 3164
5.5975, 3032
5.6, 2988
5.6025, 2966
5.605, 2849
5.6075, 2528
5.61, 2425
5.6125, 2225
5.615, 2070
5.6175, 2238
5.62, 2362
5.6225, 2670
5.625, 3125
5.6275, 3452
5.63, 3593
5.6325, 3337
5.635, 2947
5.6375, 2452
5.64, 2035
5.6425, 1656
5.645, 1375
5.6475, 1506
5.65, 1586
5.6525, 2444
5.655, 2668
5.6575, 2467
5.66, 2233
5.6625, 2126
5.665, 1973
5.6675, 2681
5.67, 3113
5.6725, 3197
5.675, 3189
5.6775, 3266
5.68, 3242
5.6825, 3074
5.685, 2830
5.6875, 2668
5.69, 2489
5.6925, 2391
5.695, 2359
5.6975, 2368
5.7, 2322
5.7025, 2263
5.705, 2271
5.7075, 2304
5.71, 2355
5.7125, 2310
5.715, 2218
5.7175, 2117
5.72, 1992
5.7225, 2132
5.725, 2284
5.7275, 2292
5.73, 2312
5.7325, 2330
5.735, 2332
5.7375, 2267
5.74, 2207
5.7425, 2198
5.745, 2204
5.7475, 2227
5.75, 2232
5.7525, 2166
5.755, 2114
5.7575, 2099
5.76, 2035
5.7625, 2021
5.765, 1990
5.7675, 2009
5.77, 2003
5.7725, 1951
5.775, 1890
5.7775, 1735
5.78, 1615
5.7825, 1646
5.785, 1753
5.7875, 1696
5.79, 1621
5.7925, 1565
5.795, 1455
5.7975, 1440
5.8, 1536
5.8025, 1528
5.805, 1417
5.8075, 1394
5.81, 1449
5.8125, 1416
5.815, 1402
5.8175, 1378
5.82, 1336
5.8225, 1329
5.825, 1326
5.8275, 1255
5.83, 1230
5.8325, 1297
5.835, 1211
5.8375, 1173
5.84, 1156
5.8425, 1125
5.845, 1102
5.8475, 1136
5.85, 1193
5.8525, 1233
5.855, 1262
5.8575, 1085
5.86, 913
5.8625, 898
5.865, 900
5.8675, 1017
5.87, 1176
5.8725, 1118
5.875, 1176
5.8775, 1217
5.88, 1261
5.8825, 1338
5.885, 1379
5.8875, 1447
5.89, 1565
5.8925, 1710
5.895, 1868
5.8975, 4703
5.9, 6067
5.9025, 6290
5.905, 6283
5.9075, 6184
5.91, 5947
5.9125, 5763
5.915, 5717
5.9175, 5689
5.92, 5596
5.9225, 5540
5.925, 5444
5.9275, 5344
5.93, 5268
5.9325, 5147
5.935, 5085
5.9375, 5038
5.94, 4948
5.9425, 4989
5.945, 4924
5.9475, 4799
5.95, 4694
5.9525, 4626
5.955, 4660
5.9575, 4567
5.96, 4897
5.9625, 5068
5.965, 5243
5.9675, 5141
5.97, 5479
5.9725, 5284
5.975, 4993
5.9775, 4754
5.98, 4634
5.9825, 4784
5.985, 4907
5.9875, 4850
5.99, 4791
5.9925, 4696
5.995, 4955
5.9975, 5193
6.0, 5206
6.0025, 5001
6.005, 4956
6.0075, 4937
6.01, 4772
6.0125, 4932
6.015, 4650
6.0175, 4824
6.02, 4636
6.0225, 4438
6.025, 4287
6.0275, 4134
6.03, 3989
6.0325, 3727
6.035, 3843
6.0375, 3810
6.04, 3606
6.0425, 3410
6.045, 3252
6.0475, 3145
6.05, 3074
6.0525, 3130
6.055, 3511
6.0575, 3677
6.06, 3512
6.0625, 3299
6.065, 3229
6.0675, 3454
6.07, 3461
6.0725, 3341
6.075, 3149
6.0775, 2992
6.08, 2804
6.0825, 2625
6.085, 2435
6.0875, 2326
6.09, 2614
6.0925, 2704
6.095, 2628
6.0975, 2965
6.1, 3192
6.1025, 3242
6.105, 3229
6.1075, 3301
6.11, 3352
6.1125, 3309
6.115, 3260
6.1175, 3167
6.12, 3145
6.1225, 3110
6.125, 3144
6.1275, 3132
6.13, 3261
6.1325, 3186
6.135, 3030
6.1375, 2903
6.14, 2801
6.1425, 2835
6.145, 2926
6.1475, 3065
6.15, 3103
6.1525, 3095
6.155, 3014
6.1575, 3140
6.16, 3286
6.1625, 3307
6.165, 3301
6.1675, 3214
6.17, 3099
6.1725, 2876
6.175, 2873
6.1775, 3054
6.18, 2883
6.1825, 2704
6.185, 2435
6.1875, 2062
6.19, 1656
6.1925, 1454
6.195, 1580
6.1975, 1863
6.2, 1911
6.2025, 1826
6.205, 1621
6.2075, 1751
6.21, 1902
6.2125, 1947
6.215, 1910
6.2175, 1783
6.22, 2042
6.2225, 2324
6.225, 2287
6.2275, 2290
6.23, 2319
6.2325, 2279
6.235, 2486
6.2375, 2446
6.24, 2459
6.2425, 2381
6.245, 2302
6.2475, 2351
6.25, 2419
6.2525, 2736
6.255, 2781
6.2575, 2752
6.26, 2665
6.2625, 2644
6.265, 2570
6.2675, 2481
6.27, 2356
6.2725, 2256
6.275, 2340
6.2775, 2416
6.28, 2889
6.2825, 2907
6.285, 3239
6.2875, 3261
6.29, 3109
6.2925, 2912
6.295, 2718
6.2975, 3480
6.3, 3943
6.3025, 4722
6.305, 5238
6.3075, 4943
6.31, 4509
6.3125, 5101
6.315, 5372
6.3175, 5447
6.32, 5468
6.3225, 5493
6.325, 6207
6.3275, 6151
6.33, 5822
6.3325, 5716
6.335, 5270
6.3375, 5424
6.34, 5604
6.3425, 5628
6.345, 6281
6.3475, 6141
6.35, 5665
6.3525, 5342
6.355, 5025
6.3575, 4784
6.36, 4668
6.3625, 5296
6.365, 5669
6.3675, 5868
6.37, 5661
6.3725, 5356
6.375, 5091
6.3775, 4763
6.38, 4696
6.3825, 5071
6.385, 5136
6.3875, 4838
6.39, 4746
6.3925, 4459
6.395, 4093
6.3975, 4097
6.4, 4947
6.4025, 5054
6.405, 4802
6.4075, 4655
6.41, 4390
6.4125, 4550
6.415, 5647
6.4175, 5975
6.42, 5644
6.4225, 5162
6.425, 4865
6.4275, 4740
6.43, 4079
6.4325, 3734
6.435, 3770
6.4375, 4261
6.44, 4228
6.4425, 4018
6.445, 3920
6.4475, 3761
6.45, 3568
6.4525, 3579
6.455, 3454
6.4575, 3197
6.46, 3004
6.4625, 3241
6.465, 3141
6.4675, 3093
6.47, 2929
6.4725, 2942
6.475, 3885
6.4775, 3841
6.48, 3599
6.4825, 3612
6.485, 3637
6.4875, 3226
6.49, 2806
6.4925, 2479
6.495, 3169
6.4975, 3941
6.5, 4023
6.5025, 3856
6.505, 3583
6.5075, 3151
6.51, 2696
6.5125, 2339
6.515, 2984
6.5175, 2863
6.52, 2592
6.5225, 2304
6.525, 2077
6.5275, 1837
6.53, 1739
6.5325, 2361
6.535, 2686
6.5375, 2930
6.54, 2844
6.5425, 2591
6.545, 2293
6.5475, 2019
6.55, 1741
6.5525, 1458
6.555, 1274
6.5575, 1080
6.56, 951
6.5625, 705
6.565, 647
6.5675, 602
6.57, 688
6.5725, 589
6.575, 383
6.5775, 185
6.58, 254
6.5825, 642
6.585, 1438
6.5875, 2605
6.59, 2318
6.5925, 1975
6.595, 1739
6.5975, 1559
6.6, 1387
6.6025, 1163
6.605, 1007
6.6075, 915
6.61, 677
6.6125, 817
6.615, 1950
6.6175, 2352
6.62, 2493
6.6225, 2678
6.625, 2538
6.6275, 2205
6.63, 1942
6.6325, 1758
6.635, 1533
6.6375, 1390
6.64, 1690
6.6425, 1657
6.645, 1899
6.6475, 2214
6.65, 2728
6.6525, 2804
6.655, 2576
6.6575, 2283
6.66, 2020
6.6625, 2018
6.665, 2281
6.6675, 2172
6.67, 2667
6.6725, 2569
6.675, 2528
6.6775, 2521
6.68, 3415
6.6825, 3863
6.685, 3661
6.6875, 3389
6.69, 3475
6.6925, 3215
6.695, 3019
6.6975, 2670
6.7, 3367
6.7025, 3437
6.705, 3360
6.7075, 3278
6.71, 2888
6.7125, 2952
6.715, 3735
6.7175, 4034
6.72, 4063
6.7225, 3960
6.725, 3741
6.7275, 3440
6.73, 3262
6.7325, 3205
6.735, 3026
6.7375, 2802
6.74, 2632
6.7425, 2679
6.745, 2533
6.7475, 2466
6.75, 2746
6.7525, 2564
6.755, 2971
6.7575, 3306
6.76, 3647
6.7625, 3556
6.765, 3279
6.7675, 2965
6.77, 2715
6.7725, 2635
6.775, 2703
6.7775, 2868
6.78, 3090
6.7825, 3187
6.785, 3002
6.7875, 2730
6.79, 2899
6.7925, 2662
6.795, 2260
6.7975, 1820
6.8, 1668
6.8025, 1388
6.805, 850
6.8075, 679
6.81, 476
6.8125, 265
6.815, 1487
6.8175, 1861
6.82, 2076
6.8225, 2076
6.825, 1977
6.8275, 1812
6.83, 1786
6.8325, 1665
6.835, 1530
6.8375, 1395
6.84, 1324
6.8425, 1331
6.845, 1204
6.8475, 1173
6.85, 763
6.8525, 476
6.855, 247
6.8575, 71
6.86, 506
6.8625, 1301
6.865, 1812
6.8675, 2289
6.87, 2680
6.8725, 2743
6.875, 3065
6.8775, 2943
6.88, 2730
6.8825, 2775
6.885, 2593
6.8875, 2587
6.89, 2865
6.8925, 2962
6.895, 2778
6.8975, 2654
6.9, 2507
6.9025, 2335
6.905, 2442
6.9075, 2509
6.91, 2332
6.9125, 2327
6.915, 2537
6.9175, 2403
6.92, 2238
6.9225, 2112
6.925, 1930
6.9275, 1634
6.93, 1445
6.9325, 1260
6.935, 1166
6.9375, 1020
6.94, 1184
6.9425, 1233
6.945, 1073
6.9475, 1419
6.95, 2004
6.9525, 2047
6.955, 2104
6.9575, 1887
6.96, 1925
6.9625, 1687
6.965, 1582
6.9675, 1956
6.97, 1826
6.9725, 1895
6.975, 1840
6.9775, 2117
6.98, 1992
6.9825, 1985
6.985, 1926
6.9875, 1988
6.99, 1738
6.9925, 1557
6.995, 1526
6.9975, 1522
7.0, 1545
7.0025, 1586
7.005, 1803
7.0075, 2199
7.01, 2259
7.0125, 2040
7.015, 1946
7.0175, 1792
7.02, 2207
7.0225, 2303
7.025, 2617
7.0275, 2370
7.03, 2194
7.0325, 1883
7.035, 1792
7.0375, 2509
7.04, 2211
7.0425, 1998
7.045, 2366
7.0475, 2127
7.05, 2396
7.0525, 2535
7.055, 2290
7.0575, 2136
7.06, 1943
7.0625, 1727
7.065, 2457
7.0675, 2682
7.07, 2690
7.0725, 2486
7.075, 2750
7.0775, 2735
7.08, 2735
7.0825, 2472
7.085, 2864
7.0875, 2812
7.09, 2566
7.0925, 2442
7.095, 2226
7.0975, 1781
7.1, 2223
7.1025, 2767
7.105, 2939
7.1075, 2782
7.11, 2593
7.1125, 2509
7.115, 2170
7.1175, 2222
7.12, 2477
7.1225, 2398
7.125, 2527
7.1275, 3189
7.13, 3392
7.1325, 3725
7.135, 3690
7.1375, 3442
7.14, 3064
7.1425, 2746
7.145, 2535
7.1475, 2449
7.15, 2936
7.1525, 3372
7.155, 3312
7.1575, 3116
7.16, 2959
7.1625, 2748
7.165, 2557
7.1675, 2551
7.17, 2485
7.1725, 2643
7.175, 3270
7.1775, 3577
7.18, 3547
7.1825, 3381
7.185, 3204
7.1875, 3191
7.19, 3159
7.1925, 3049
7.195, 2760
7.1975, 2542
7.2, 2396
7.2025, 2108
7.205, 2092
7.2075, 2124
7.21, 2009
7.2125, 1947
7.215, 2120
7.2175, 2095
7.22, 1998
7.2225, 1958
7.225, 2138
7.2275, 2320
7.23, 2714
7.2325, 3099
7.235, 3258
7.2375, 3334
7.24, 3548
7.2425, 3608
7.245, 3472
7.2475, 3368
7.25, 3325
7.2525, 3315
7.255, 3308
7.2575, 3191
7.26, 3146
7.2625, 3115
7.265, 3176
7.2675, 3152
7.27, 3221
7.2725, 3211
7.275, 3260
7.2775, 3337
7.28, 3378
7.2825, 3372
7.285, 3344
7.2875, 3363
7.29, 3342
7.2925, 3484
7.295, 3720
7.2975, 3869
7.3, 3910
7.3025, 3927
7.305, 3932
7.3075, 3968
7.31, 4047
7.3125, 4114
7.315, 4199
7.3175, 4214
7.32, 4287
7.3225, 4294
7.325, 4221
7.3275, 4152
7.33, 4070
7.3325, 4061
7.335, 4003
7.3375, 3938
7.34, 3876
7.3425, 3783
7.345, 3682
7.3475, 3611
7.35, 3567
7.3525, 3656
7.355, 3709
7.3575, 3821
7.36, 3760
7.3625, 3788
7.365, 3688
7.3675, 3640
7.37, 3450
7.3725, 3420
7.375, 3484
7.3775, 3415
7.38, 3307
7.3825, 3270
7.385, 3207
7.3875, 3185
7.39, 3378
7.3925, 3364
7.395, 3257
7.3975, 3241
7.4, 3145
7.4025, 2962
7.405, 2991
7.4075, 2790
7.41, 2689
7.4125, 2677
7.415, 2706
7.4175, 2628
7.42, 2523
7.4225, 2467
7.425, 2475
7.4275, 2480
7.43, 2611
7.4325, 2741
7.435, 2635
7.4375, 2772
7.44, 2691
7.4425, 2799
7.445, 2687
7.4475, 2832
7.45, 2811
7.4525, 2833
7.455, 2781
7.4575, 2782
7.46, 3113
7.4625, 2911
7.465, 2909
7.4675, 2925
7.47, 3023
7.4725, 2731
7.475, 2478
7.4775, 2706
7.48, 2910
7.4825, 3489
7.485, 3691
7.4875, 3664
7.49, 3611
7.4925, 4422
7.495, 5425
7.4975, 5405
7.5, 5697
7.5025, 6038
7.505, 5822
7.5075, 5422
7.51, 5098
7.5125, 4591
7.515, 4552
7.5175, 4077
7.52, 3471
7.5225, 3219
7.525, 2997
7.5275, 2645
7.53, 2319
7.5325, 2114
7.535, 1914
7.5375, 2015
7.54, 2206
7.5425, 2562
7.545, 2896
7.5475, 3447
7.55, 3863
7.5525, 4003
7.555, 4085
7.5575, 4053
7.56, 4043
7.5625, 3968
7.565, 3880
7.5675, 3883
7.57, 3794
7.5725, 3685
7.575, 3580
7.5775, 3442
7.58, 3323
7.5825, 3463
7.585, 3290
7.5875, 3308
7.59, 3312
7.5925, 3323
7.595, 3288
7.5975, 3238
7.6, 3268
7.6025, 3432
7.605, 3686
7.6075, 4036
7.61, 4068
7.6125, 3913
7.615, 3748
7.6175, 3629
7.62, 3519
7.6225, 3396
7.625, 3244
7.6275, 3023
7.63, 2949
7.6325, 2886
7.635, 2951
7.6375, 2706
7.64, 2744
7.6425, 2784
7.645, 2847
7.6475, 2894
7.65, 2861
7.6525, 2660
7.655, 2373
7.6575, 2348
7.66, 2289
7.6625, 2122
7.665, 2027
7.6675, 2070
7.67, 2215
7.6725, 2207
7.675, 2290
7.6775, 2410
7.68, 2283
7.6825, 2363
7.685, 2137
7.6875, 2110
7.69, 2038
7.6925, 1774
7.695, 1942
7.6975, 1784
7.7, 2093
7.7025, 1863
7.705, 1557
7.7075, 1612
7.71, 1648
7.7125, 1483
7.715, 1300
7.7175, 1534
7.72, 2044
7.7225, 2226
7.725, 2739
7.7275, 3353
7.73, 3324
7.7325, 3858
7.735, 4325
7.7375, 4769
7.74, 5017
7.7425, 5122
7.745, 5430
7.7475, 5141
7.75, 4565
7.7525, 4835
7.755, 4742
7.7575, 4432
7.76, 4127
7.7625, 3932
7.765, 4024
7.7675, 4292
7.77, 3999
7.7725, 4163
7.775, 4415
7.7775, 4029
7.78, 4463
7.7825, 4549
7.785, 4557
7.7875, 4733
7.79, 4938
7.7925, 5041
7.795, 5104
7.7975, 4845
7.8, 4762
7.8025, 5169
7.805, 5311
7.8075, 4863
7.81, 4443
7.8125, 4220
7.815, 4037
7.8175, 3915
7.82, 4393
7.8225, 4330
7.825, 4240
7.8275, 4442
7.83, 5163
7.8325, 5852
7.835, 6285
7.8375, 6289
7.84, 6282
7.8425, 6028
7.845, 5612
7.8475, 5338
7.85, 5521
7.8525, 5294
7.855, 4867
7.8575, 4963
7.86, 5533
7.8625, 5817
7.865, 5461
7.8675, 5196
7.87, 5519
7.8725, 5849
7.875, 6283
7.8775, 6282
7.88, 6294
7.8825, 6287
7.885, 6282
7.8875, 6284
7.89, 6289
7.8925, 6285
7.895, 6282
7.8975, 6295
7.9, 6285
7.9025, 6271
7.905, 5994
7.9075, 5753
7.91, 6153
7.9125, 6132
7.915, 5900
7.9175, 5625
7.92, 5404
7.9225, 5214
7.925, 5088
7.9275, 4946
7.93, 5682
7.9325, 5614
7.935, 5261
7.9375, 4983
7.94, 4698
7.9425, 4432
7.945, 3908
7.9475, 3557
7.95, 3328
7.9525, 3104
7.955, 2938
7.9575, 2742
7.96, 2779
7.9625, 3134
7.965, 4125
7.9675, 4292
7.97, 4128
7.9725, 3834
7.975, 3657
7.9775, 3551
7.98, 4798
7.9825, 6283
7.985, 6293
7.9875, 6284
7.99, 5790
7.9925, 5741
7.995, 5808
7.9975, 5649
8.0, 5190
8.0025, 4191
8.005, 4328
8.0075, 3716
8.01, 3822
8.0125, 4050
8.015, 3920
8.0175, 3660
8.02, 3431
8.0225, 2944
8.025, 2780
8.0275, 2116
8.03, 1816
8.0325, 1653
8.035, 1715
8.0375, 1365
8.04, 903
8.0425, 256
8.045, 59
8.0475, 445
8.05, 447
8.0525, 331
8.055, 475
8.0575, 1661
8.06, 2708
8.0625, 2849
8.065, 2812
8.0675, 3293
8.07, 3245
8.0725, 3296
8.075, 3435
8.0775, 2690
8.08, 2780
8.0825, 1498
8.085, 2993
8.0875, 3634
8.09, 3437
8.0925, 3114
8.095, 2626
8.0975, 2455
8.1, 2017
8.1025, 1486
8.105, 866
8.1075, 479
8.11, -1
8.1125, 10
8.115, 1596
8.1175, 2344
8.12, 2121
8.1225, 1706
8.125, 1511
8.1275, 1250
8.13, 793
8.1325, 291
8.135, -1
8.1375, -1
8.14, -2
8.1425, -1
8.145, -2
8.1475, -2
8.15, -1
8.1525, -2
8.155, -1
8.1575, -1
8.16, -1
8.1625, -1
8.165, -1
8.1675, 0
8.17, -2
8.1725, -1
8.175, -1
8.1775, -1
8.18, -1
8.1825, -1
8.185, -1
8.1875, -1
8.19, -1
8.1925, -1
8.195, -1
8.1975, 840
8.2, 2018
8.2025, 1773
8.205, 1278
8.2075, 337
8.21, -1
8.2125, -1
8.215, -1
8.2175, -1
8.22, -1
8.2225, -1
8.225, -1
8.2275, -2
8.23, -1
8.2325, -1
8.235, -1
8.2375, 570
8.24, 2501
8.2425, 2880
8.245, 4369
8.2475, 3873
8.25, 3995
8.2525, 3808
8.255, 2974
8.2575, 4518
8.26, 4445
8.2625, 3983
8.265, 3508
8.2675, 5671
8.27, 6284
8.2725, 6285
8.275, 6284
8.2775, 6279
8.28, 6283
8.2825, 6292
8.285, 6287
8.2875, 6283
8.29, 6284
8.2925, 6288
8.295, 6108
8.2975, 5644
8.3, 6293
8.3025, 6286
8.305, 6282
8.3075, 6282
8.31, 6288
8.3125, 6285
8.315, 6282
8.3175, 6294
8.32, 6286
8.3225, 6282
8.325, 6283
8.3275, 6283
8.33, 6282
8.3325, 6280
8.335, 6292
8.3375, 6282
8.34, 6283
8.3425, 6278
8.345, 6125
8.3475, 5954
8.35, 5624
8.3525, 5522
8.355, 5321
8.3575, 4964
8.36, 4590
8.3625, 4203
8.365, 3806
8.3675, 3474
8.37, 3282
8.3725, 2762
8.375, 2419
8.3775, 2060
8.38, 1758
8.3825, 1541
8.385, 1291
8.3875, 1094
8.39, 871
8.3925, 666
8.395, 500
8.3975, 318
8.4, 80
8.4025, -2
8.405, -1
8.4075, -1
8.41, -1
8.4125, -1
8.415, -1
8.4175, -1
8.42, -1
8.4225, -1
8.425, -1
8.4275, -1
8.43, -2
8.4325, -1
8.435, -1
8.4375, -1
8.44, -1
8.4425, -1
8.445, 0
8.4475, -1
8.45, -2
8.4525, -1
8.455, -2
8.4575, -1
8.46, -1
8.4625, -1
8.465, -1
8.4675, -1
8.47, -2
8.4725, -1
8.475, -1
8.4775, 0
8.48, -2
8.4825, -1
8.485, -1
8.4875, -1
8.49, -1
8.4925, -1
8.495, -2
8.4975, -1
8.5, -1
8.5025, -1
8.505, -1
8.5075, -2
8.51, -1
8.5125, -1
8.515, -2
8.5175, -1
8.52, -1
8.5225, -1
8.525, -1
8.5275, -1
8.53, -1
8.5325, -1
8.535, -1
8.5375, -1
8.54, 70
8.5425, 187
8.545, 323
8.5475, 365
8.55, 427
8.5525, 495
8.555, 576
8.5575, 694
8.56, 800
8.5625, 906
8.565, 1020
8.5675, 1084
8.57, 1116
8.5725, 1211
8.575, 1255
8.5775, 1283
8.58, 1345
8.5825, 1446
8.585, 1475
8.5875, 1510
8.59, 1563
8.5925, 1666
8.595, 1800
8.5975, 1943
8.6, 2085
8.6025, 2201
8.605, 2320
8.6075, 2369
8.61, 2423
8.6125, 2546
8.615, 2632
8.6175, 2683
8.62, 2729
8.6225, 2816
8.625, 2866
8.6275, 2847
8.63, 2856
8.6325, 2878
8.635, 2872
8.6375, 2818
8.64, 2779
8.6425, 2781
8.645, 2804
8.6475, 2916
8.65, 3237
8.6525, 3134
8.655, 3115
8.6575, 3011
8.66, 3031
8.6625, 3053
8.665, 3068
8.6675, 3186
8.67, 3270
8.6725, 3438
8.675, 3784
8.6775, 4029
8.68, 4310
8.6825, 4599
8.685, 4873
8.6875, 5168
8.69, 5443
8.6925, 5656
8.695, 5782
8.6975, 5906
8.7, 6010
8.7025, 6043
8.705, 6004
8.7075, 5971
8.71, 5946
8.7125, 5918
8.715, 5909
8.7175, 5878
8.72, 5865
8.7225, 5914
8.725, 5861
8.7275, 5861
8.73, 5860
8.7325, 5847
8.735, 5875
8.7375, 5973
8.74, 6043
8.7425, 6061
8.745, 6046
8.7475, 6059
8.75, 6036
8.7525, 6045
8.755, 6082
8.7575, 6081
8.76, 6074
8.7625, 6064
8.765, 6038
8.7675, 6025
8.77, 5984
8.7725, 5964
8.775, 5881
8.7775, 5860
8.78, 5836
8.7825, 5817
8.785, 5850
8.7875, 5792
8.79, 6129
8.7925, 5801
8.795, 5826
8.7975, 5832
8.8, 5858
8.8025, 5873
8.805, 5927
8.8075, 5979
8.81, 6035
8.8125, 6066
8.815, 6084
8.8175, 6156
8.82, 6231
8.8225, 6279
8.825, 6293
8.8275, 6287
8.83, 6284
8.8325, 6285
8.835, 6288
8.8375, 6286
8.84, 6283
8.8425, 6293
8.845, 6286
8.8475, 6277
8.85, 6248
8.8525, 6213
8.855, 6208
8.8575, 6141
8.86, 6084
8.8625, 5911
8.865, 5753
8.8675, 5639
8.87, 5495
8.8725, 5348
8.875, 5240
8.8775, 5157
8.88, 5047
8.8825, 4975
8.885, 4938
8.8875, 4938
8.89, 4878
8.8925, 4859
8.895, 4860
8.8975, 4829
8.9, 4790
8.9025, 4748
8.905, 4701
8.9075, 4653
8.91, 4570
8.9125, 4534
8.915, 4497
8.9175, 4457
8.92, 4418
8.9225, 4405
8.925, 4393
8.9275, 4378
8.93, 4345
8.9325, 4303
8.935, 4276
8.9375, 4229
8.94, 4206
8.9425, 4188
8.945, 4170
8.9475, 4152
8.95, 4108
8.9525, 4101
8.955, 4080
8.9575, 4057
8.96, 4070
8.9625, 4034
8.965, 4010
8.9675, 3985
8.97, 3996
8.9725, 3969
8.975, 3951
8.9775, 3948
8.98, 3909
8.9825, 3932
8.985, 3870
8.9875, 3871
8.99, 3850
8.9925, 3846
8.995, 3816
8.9975, 3805
9.0, 3822
9.0025, 3809
9.005, 3775
9.0075, 3751
9.01, 3732
9.0125, 3712
9.015, 3694
9.0175, 3676
9.02, 3649
9.0225, 3624
9.025, 3637
9.0275, 3639
9.03, 3608
9.0325, 3608
9.035, 3609
9.0375, 3614
9.04, 3595
9.0425, 3571
9.045, 3563
9.0475, 3532
9.05, 3530
9.0525, 3563
9.055, 3618
9.0575, 3690
9.06, 3850
9.0625, 4010
9.065, 4332
9.0675, 4713
9.07, 5411
9.0725, 6296
9.075, 6290
9.0775, 6287
9.08, 6292
9.0825, 6287
9.085, 6286
9.0875, 6297
9.09, 6288
9.0925, 6285
9.095, 6284
9.0975, 6289
9.1, 6287
9.1025, 6284
9.105, 6285
9.1075, 6282
9.11, 6283
9.1125, 6282
9.115, 6288
9.1175, 6284
9.12, 6283
9.1225, 6295
9.125, 6288
9.1275, 6286
9.13, 6283
9.1325, 6291
9.135, 6285
9.1375, 6285
9.14, 6295
9.1425, 6289
9.145, 5723
9.1475, 3153
9.15, 249
9.1525, -1
9.155, 355
9.1575, 1043
9.16, 510
9.1625, 1323
9.165, 390
9.1675, 11
9.17, 156
9.1725, 1372
9.175, 3397
9.1775, 6286
9.18, 6283
9.1825, 6284
9.185, 6287
9.1875, 6286
9.19, 6282
9.1925, 6295
9.195, 6286
9.1975, 6285
9.2, 6281
9.2025, 6034
9.205, 5654
9.2075, 5285
9.21, 5300
9.2125, 4676
9.215, 4412
9.2175, 4013
9.22, 3888
9.2225, 4104
9.225, 4318
9.2275, 4505
9.23, 4345
9.2325, 4501
9.235, 4798
9.2375, 5010
9.24, 5153
9.2425, 5329
9.245, 5527
9.2475, 5887
9.25, 6278
9.2525, 6282
9.255, 6289
9.2575, 5814
9.26, 5115
9.2625, 4872
9.265, 4201
9.2675, 2849
9.27, 2014
9.2725, 1918
9.275, 1903
9.2775, 1790
9.28, 1826
9.2825, 1393
9.285, 769
9.2875, -1
9.29, -2
9.2925, -1
9.295, -1
9.2975, 0
9.3, -1
9.3025, -1
9.305, -1
9.3075, -1
9.31, -1
9.3125, -1
9.315, -1
9.3175, -1
9.32, -1
9.3225, -1
9.325, -2
9.3275, -1
9.33, -1
9.3325, -1
9.335, -1
9.3375, -1
9.34, -1
9.3425, -1
9.345, -1
9.3475, -1
9.35, -1
9.3525, -1
9.355, -1
9.3575, -2
9.36, -2
9.3625, -1
9.365, -1
9.3675, -1
9.37, -1
9.3725, -1
9.375, -1
9.3775, -1
9.38, -1
9.3825, -1
9.385, -1
9.3875, -1
9.39, -1
9.3925, -1
9.395, -1
9.3975, -1
9.4, -1
9.4025, -1
9.405, -1
9.4075, 0
9.41, -2
9.4125, -1
9.415, -2
9.4175, -1
9.42, -1
9.4225, -1
9.425, -1
9.4275, -1
9.43, -1
9.4325, -1
9.435, -2
9.4375, -1
9.44, -1
9.4425, -1
9.445, -1
9.4475, -1
9.45, -1
9.4525, -1
9.455, -1
9.4575, -1
9.46, -1
9.4625, -1
9.465, -1
9.4675, -1
9.47, -1
9.4725, -1
9.475, -1
9.4775, -2
9.48, -1
9.4825, -1
9.485, -1
9.4875, -2
9.49, -1
9.4925, -1
9.495, -1
9.4975, -1
9.5, -1
9.5025, -1
9.505, -1
9.5075, -1
9.51, -1
9.5125, -2
9.515, -2
9.5175, -1
9.52, -1
9.5225, -1
9.525, -2
9.5275, -1
9.53, 0
9.5325, -1
9.535, -1
9.5375, -1
9.54, -1
9.5425, -1
9.545, -1
9.5475, -1
9.55, -1
9.5525, 0
9.555, -2
9.5575, -1
9.56, -1
9.5625, -1
9.565, -2
9.5675, -2
9.57, -1
9.5725, -1
9.575, -1
9.5775, -1
9.58, -1
9.5825, -1
9.585, -1
9.5875, -1
9.59, -1
9.5925, -2
9.595, -1
9.5975, -1
9.6, -2
9.6025, -1
9.605, -1
9.6075, 0
9.61, -1
9.6125, -1
9.615, -1
9.6175, -1
9.62, -1
9.6225, -1
9.625, -1
9.6275, -1
9.63, -1
9.6325, -2
9.635, -1
9.6375, -1
9.64, 0
9.6425, -2
9.645, -1
9.6475, -1
9.65, -1
9.6525, -1
9.655, -1
9.6575, -1
9.66, -1
9.6625, -1
9.665, -1
9.6675, -1
9.67, -2
9.6725, 1910
9.675, 2429
9.6775, 2489
9.68, 2515
9.6825, 2536
9.685, 2545
9.6875, 2555
9.69, 2563
9.6925, 2575
9.695, 2580
9.6975, 2588
9.7, 2596
9.7025, 2602
9.705, 2608
9.7075, 2613
9.71, 2621
9.7125, 2624
9.715, 2627
9.7175, 2635
9.72, 2636
9.7225, 2636
9.725, 2642
9.7275, 2808
9.73, 2655
9.7325, 2655
9.735, 2667
9.7375, 2663
9.74, 2666
9.7425, 2669
9.745, 2675
9.7475, 2674
9.75, 2676
9.7525, 2679
9.755, 2681
9.7575, 2684
9.76, 2684
9.7625, 2854
9.765, 2704
9.7675, 2700
9.77, 2866
9.7725, 2708
9.775, 2709
9.7775, 2709
9.78, 2715
9.7825, 2714
9.785, 2712
9.7875, 2718
9.79, 2716
9.7925, 2718
9.795, 2721
9.7975, 2725
9.8, 2729
9.8025, 2729
9.805, 2893
9.8075, 2742
9.81, 2736
9.8125, 2738
9.815, 2743
9.8175, 2742
9.82, 2742
9.8225, 2749
9.825, 2755
9.8275, 2762
9.83, 2762
9.8325, 2766
9.835, 2765
9.8375, 2763
9.84, 2766
9.8425, 2771
9.845, 2774
9.8475, 2782
9.85, 2788
9.8525, 2790
9.855, 2786
9.8575, 2955
9.86, 2798
9.8625, 2787
9.865, 2780
9.8675, 2782
9.87, 2773
9.8725, 2771
9.875, 2775
9.8775, 2775
9.88, 2768
9.8825, 2766
9.885, 2772
9.8875, 2773
9.89, 2773
9.8925, 2781
9.895, 2778
9.8975, 2780
9.9, 2775
9.9025, 2778
9.905, 2779
9.9075, 2782
9.91, 2792
9.9125, 2791
9.915, 2792
9.9175, 2792
9.92, 2793
9.9225, 2798
9.925, 2804
9.9275, 2984
9.93, 2839
9.9325, 2844
9.935, 2847
9.9375, 2850
9.94, 2856
9.9425, 2855
9.945, 3031
9.9475, 2862
9.95, 2863
9.9525, 2855
9.955, 2845
9.9575, 2835
9.96, 2829
9.9625, 2829
9.965, 2815
9.9675, 2797
9.97, 2784
9.9725, 2775
9.975, 2757
9.9775, 2742
9.98, 2736
9.9825, 2723
9.985, 2714
9.9875, 2699
9.99, 2695
9.9925, 2682
9.995, 2654
9.9975, 2605
10.0, 2562
10.0025, 2438
10.005, 2406
10.0075, 2402
10.01, 2384
10.0125, 2277
10.015, 1713
10.0175, 1544
10.02, 1519
10.0225, 1524
10.025, 1528
10.0275, 1534
10.03, 1586
10.0325, 1620
10.035, 1586
10.0375, 1560
10.04, 1524
10.0425, 1487
10.045, 1413
10.0475, 1408
10.05, 1516
10.0525, 1437
10.055, 1413
10.0575, 1382
10.06, 1311
10.0625, 1279
10.065, 1288
10.0675, 1290
10.07, 1305
10.0725, 1323
10.075, 1348
10.0775, 1366
10.08, 1377
10.0825, 1414
10.085, 1552
10.0875, 1521
10.09, 1574
10.0925, 1625
10.095, 1685
10.0975, 1731
10.1, 1806
10.1025, 1866
10.105, 1898
10.1075, 1940
10.11, 1969
10.1125, 2001
10.115, 2045
10.1175, 2089
10.12, 2136
10.1225, 2160
10.125, 2200
10.1275, 2226
10.13, 2275
10.1325, 2309
10.135, 2336
10.1375, 2376
10.14, 2396
10.1425, 2421
10.145, 2453
10.1475, 2492
10.15, 2515
10.1525, 2546
10.155, 2588
10.1575, 2625
10.16, 2650
10.1625, 2676
10.165, 2698
10.1675, 2718
10.17, 2713
10.1725, 2723
10.175, 2718
10.1775, 2730
10.18, 2723
10.1825, 2725
10.185, 2721
10.1875, 2710
10.19, 2705
10.1925, 2680
10.195, 2638
10.1975, 2583
10.2, 2552
10.2025, 2578
10.205, 2602
10.2075, 2650
10.21, 2674
10.2125, 2735
10.215, 2930
10.2175, 2814
10.22, 2967
10.2225, 3359
10.225, 4464
10.2275, 3955
10.23, 4012
10.2325, 3885
10.235, 3287
10.2375, 3030
10.24, 3043
10.2425, 3191
10.245, 3336
10.2475, 3485
10.25, 3638
10.2525, 3969
10.255, 4214
10.2575, 4423
10.26, 4639
10.2625, 4800
10.265, 4762
10.2675, 4472
10.27, 4066
10.2725, 3816
10.275, 3794
10.2775, 3853
10.28, 3881
10.2825, 3854
10.285, 3868
10.2875, 3872
10.29, 4085
10.2925, 4305
10.295, 4380
10.2975, 4499
10.3, 4616
10.3025, 4336
10.305, 4346
10.3075, 4563
10.31, 4786
10.3125, 4807
10.315, 4523
10.3175, 4465
10.32, 4396
10.3225, 3919
10.325, 3350
10.3275, 3137
10.33, 3257
10.3325, 3307
10.335, 3339
10.3375, 3877
10.34, 4774
10.3425, 5367
10.345, 5626
10.3475, 5619
10.35, 5930
10.3525, 6276
10.355, 6284
10.3575, 6283
10.36, 6287
10.3625, 6195
10.365, 5963
10.3675, 5872
10.37, 5980
10.3725, 6252
10.375, 6291
10.3775, 6288
10.38, 6286
10.3825, 6297
10.385, 6289
10.3875, 6285
10.39, 6285
10.3925, 6287
10.395, 6285
10.3975, 6284
10.4, 6128
10.4025, 5330
10.405, 5171
10.4075, 4937
10.41, 4839
10.4125, 4701
10.415, 4636
10.4175, 4939
10.42, 5593
10.4225, 6038
10.425, 6284
10.4275, 5851
10.43, 5920
10.4325, 6189
10.435, 6288
10.4375, 6288
10.44, 6283
10.4425, 6284
10.445, 6312
10.4475, 6298
10.45, 6292
10.4525, 6302
10.455, 6295
10.4575, 6290
10.46, 6288
10.4625, 6295
10.465, 6291
10.4675, 6289
10.47, 6292
10.4725, 6288
10.475, 6287
10.4775, 6285
10.48, 6286
10.4825, 6285
10.485, 6283
10.4875, 6461
10.49, 6298
10.4925, 6291
10.495, 6290
10.4975, 6295
10.5, 6291
10.5025, 6288
10.505, 6666
10.5075, 6296
10.51, 6292
10.5125, 6290
10.515, 6297
10.5175, 6291
10.52, 6288
10.5225, 6301
10.525, 6292
10.5275, 6290
10.53, 6287
10.5325, 6293
10.535, 6290
10.5375, 6289
10.54, 6663
10.5425, 6296
10.545, 6293
10.5475, 6289
10.55, 6296
10.5525, 6291
10.555, 6289
10.5575, 6300
10.56, 6291
10.5625, 6288
10.565, 6285
10.5675, 6294
10.57, 6288
10.5725, 6286
10.575, 6296
10.5775, 6290
10.58, 6285
10.5825, 6266
10.585, 6223
10.5875, 6175
10.59, 6127
10.5925, 6113
10.595, 6057
10.5975, 6011
10.6, 5962
10.6025, 5912
10.605, 5858
10.6075, 5809
10.61, 5775
10.6125, 5734
10.615, 5698
10.6175, 5656
10.62, 5619
10.6225, 5573
10.625, 5527
10.6275, 5493
10.63, 5457
10.6325, 5417
10.635, 5369
10.6375, 5337
10.64, 5280
10.6425, 5225
10.645, 5181
10.6475, 5130
10.65, 5088
10.6525, 5045
10.655, 5010
10.6575, 4969
10.66, 4926
10.6625, 4895
10.665, 4840
10.6675, 4789
10.67, 4747
10.6725, 4710
10.675, 4662
10.6775, 4611
10.68, 4844
10.6825, 4531
10.685, 4495
10.6875, 4454
10.69, 4424
10.6925, 4387
10.695, 4352
10.6975, 4328
10.7, 4296
10.7025, 4264
10.705, 4225
10.7075, 4206
10.71, 4175
10.7125, 4151
10.715, 4124
10.7175, 4098
10.72, 4066
10.7225, 4040
10.725, 4018
10.7275, 3992
10.73, 3969
10.7325, 3950
10.735, 3919
10.7375, 3893
10.74, 3868
10.7425, 3852
10.745, 3825
10.7475, 3806
10.75, 3788
10.7525, 3760
10.755, 3740
10.7575, 3719
10.76, 3699
10.7625, 3672
10.765, 3651
10.7675, 3635
10.77, 3608
10.7725, 3581
10.775, 3559
10.7775, 3545
10.78, 3526
10.7825, 3507
10.785, 3492
10.7875, 3471
10.79, 3453
10.7925, 3431
10.795, 3418
10.7975, 3400
10.8, 3379
10.8025, 3367
10.805, 3345
10.8075, 3326
10.81, 3313
10.8125, 3297
10.815, 3288
10.8175, 3269
10.82, 3448
10.8225, 3243
10.825, 3228
10.8275, 3214
10.83, 3204
10.8325, 3189
10.835, 3175
10.8375, 3171
10.84, 3156
10.8425, 3138
10.845, 3123
10.8475, 3114
10.85, 3099
10.8525, 3087
10.855, 3082
10.8575, 3069
10.86, 3061
10.8625, 3049
10.865, 3041
10.8675, 3032
10.87, 3023
10.8725, 3194
10.875, 3011
10.8775, 2999
10.88, 2987
10.8825, 2977
10.885, 2963
10.8875, 2950
10.89, 2942
10.8925, 2932
10.895, 2922
10.8975, 2910
10.9, 2903
10.9025, 2897
10.905, 2890
10.9075, 2883
10.91, 2879
10.9125, 2877
10.915, 2870
10.9175, 2873
10.92, 2868
10.9225, 2861
10.925, 2865
10.9275, 2852
10.93, 2841
10.9325, 2830
10.935, 2819
10.9375, 2807
10.94, 2795
10.9425, 2791
10.945, 2779
10.9475, 2773
10.95, 2769
10.9525, 2768
10.955, 2767
10.9575, 2764
10.96, 2764
10.9625, 2758
10.965, 2758
10.9675, 2751
10.97, 2751
10.9725, 2748
10.975, 2747
10.9775, 2748
10.98, 2742
10.9825, 2737
10.985, 2729
10.9875, 2723
10.99, 2719
10.9925, 2710
10.995, 2709
10.9975, 2705
11.0, 2703
11.0025, 2702
11.005, 2701
11.0075, 2694
11.01, 2692
11.0125, 2850
11.015, 2690
11.0175, 2685
11.02, 2679
11.0225, 2680
11.025, 2677
11.0275, 2671
11.03, 2678
11.0325, 2671
11.035, 2671
11.0375, 2670
11.04, 2672
11.0425, 2666
11.045, 2667
11.0475, 2666
11.05, 2661
11.0525, 2655
11.055, 2650
11.0575, 2657
11.06, 2655
11.0625, 2651
11.065, 2649
11.0675, 2640
11.07, 2635
11.0725, 2633
11.075, 2630
11.0775, 2629
11.08, 2626
11.0825, 2630
11.085, 2623
11.0875, 2625
11.09, 2620
11.0925, 2617
11.095, 2613
11.0975, 2611
11.1, 2765
11.1025, 2611
11.105, 2605
11.1075, 2602
11.11, 2607
11.1125, 2606
11.115, 2604
11.1175, 2604
11.12, 2601
11.1225, 2602
11.125, 2602
11.1275, 2600
11.13, 2598
11.1325, 2596
11.135, 2601
11.1375, 2598
11.14, 2597
11.1425, 2594
11.145, 2601
11.1475, 2597
11.15, 2596
11.1525, 2601
11.155, 2596
11.1575, 2591
11.16, 2590
11.1625, 2590
11.165, 2591
11.1675, 2585
11.17, 2585
11.1725, 2582
11.175, 2585
11.1775, 2582
11.18, 2585
11.1825, 2582
11.185, 2580
11.1875, 2586
11.19, 2581
11.1925, 2578
11.195, 2577
11.1975, 2580
11.2, 2575
11.2025, 2576
11.205, 2581
11.2075, 2578
11.21, 2576
11.2125, 2578
11.215, 2583
11.2175, 2579
11.22, 2580
11.2225, 2585
11.225, 2580
11.2275, 2579
11.23, 2583
11.2325, 2589
11.235, 2588
11.2375, 2583
11.24, 2587
11.2425, 2587
11.245, 2588
11.2475, 2585
11.25, 2586
11.2525, 2585
11.255, 2585
11.2575, 2590
11.26, 2588
11.2625, 2589
11.265, 2586
11.2675, 2588
11.27, 2583
11.2725, 2583
11.275, 2588
11.2775, 2584
11.28, 2582
11.2825, 2587
11.285, 2591
11.2875, 2591
11.29, 2592
11.2925, 2594
11.295, 2590
11.2975, 2587
11.3, 2589
11.3025, 2593
11.305, 2594
11.3075, 2594
11.31, 2598
11.3125, 2597
11.315, 2598
11.3175, 2599
11.32, 2603
11.3225, 2603
11.325, 2600
11.3275, 2607
11.33, 2602
11.3325, 2600
11.335, 2598
11.3375, 2601
11.34, 2600
11.3425, 2601
11.345, 2606
11.3475, 2605
11.35, 2604
11.3525, 2609
11.355, 2610
11.3575, 2610
11.36, 2610
11.3625, 2614
11.365, 2615
11.3675, 2615
11.37, 2615
11.3725, 2619
11.375, 2618
11.3775, 2618
11.38, 2623
11.3825, 2619
11.385, 2619
11.3875, 2621
11.39, 2625
11.3925, 2622
11.395, 2617
11.3975, 2624
11.4, 2622
11.4025, 2621
11.405, 2624
11.4075, 2626
11.41, 2625
11.4125, 2626
11.415, 2631
11.4175, 2629
11.42, 2630
11.4225, 2628
11.425, 2632
11.4275, 2630
11.43, 2633
11.4325, 2639
11.435, 2636
11.4375, 2634
11.44, 2633
11.4425, 2637
11.445, 2638
11.4475, 2638
11.45, 2643
11.4525, 2638
11.455, 2639
11.4575, 2641
11.46, 2647
11.4625, 2647
11.465, 2647
11.4675, 2655
11.47, 2651
11.4725, 2651
11.475, 2648
11.4775, 2651
11.48, 2651
11.4825, 2650
11.485, 2652
11.4875, 2650
11.49, 2651
11.4925, 2652
11.495, 2653
11.4975, 2654
11.5, 2652
11.5025, 2657
11.505, 2653
11.5075, 2654
11.51, 2655
11.5125, 2659
11.515, 2656
11.5175, 2657
11.52, 2819
11.5225, 2666
11.525, 2664
11.5275, 2666
11.53, 2667
11.5325, 2666
11.535, 2664
11.5375, 2667
11.54, 2664
11.5425, 2664
11.545, 2663
11.5475, 2662
11.55, 2661
11.5525, 2661
11.555, 2663
11.5575, 2662
11.56, 2663
11.5625, 2664
11.565, 2669
11.5675, 2669
11.57, 2669
11.5725, 2676
11.575, 2672
11.5775, 2673
11.58, 2672
11.5825, 2674
11.585, 2673
11.5875, 2671
11.59, 2673
11.5925, 2669
11.595, 2672
11.5975, 2669
11.6, 2672
11.6025, 2670
11.605, 2671
11.6075, 2677
11.61, 2675
11.6125, 2673
11.615, 2673
11.6175, 2674
11.62, 2672
11.6225, 2673
11.625, 2675
11.6275, 2672
11.63, 2671
11.6325, 2672
11.635, 2676
11.6375, 2675
11.64, 2677
11.6425, 2682
11.645, 2678
11.6475, 2676
11.65, 2677
11.6525, 2677
11.655, 2676
11.6575, 2678
11.66, 2681
11.6625, 2676
11.665, 2675
11.6675, 2676
11.67, 2677
11.6725, 2678
11.675, 2678
11.6775, 2685
11.68, 2682
11.6825, 2682
11.685, 2682
11.6875, 2687
11.69, 2689
11.6925, 2693
11.695, 2696
11.6975, 2698
11.7, 2699
11.7025, 2700
11.705, 2704
11.7075, 2696
11.71, 2694
11.7125, 2692
11.715, 2682
11.7175, 2677
11.72, 2674
11.7225, 2674
11.725, 2672
11.7275, 2669
11.73, 2675
11.7325, 2674
11.735, 2676
11.7375, 2674
11.74, 2676
11.7425, 2676
11.745, 2677
11.7475, 2682
11.75, 2681
11.7525, 2678
11.755, 2678
11.7575, 2682
11.76, 2681
11.7625, 2679
11.765, 2685
11.7675, 2681
11.77, 2680
11.7725, 2682
11.775, 2684
11.7775, 2683
11.78, 2682
11.7825, 2685
11.785, 2686
11.7875, 2686
11.79, 2685
11.7925, 2690
11.795, 2687
11.7975, 2686
11.8, 2848
11.8025, 2689
11.805, 2688
11.8075, 2684
11.81, 2687
11.8125, 2686
11.815, 2687
11.8175, 2690
11.82, 2688
11.8225, 2685
11.825, 2683
11.8275, 2689
11.83, 2686
11.8325, 2685
11.835, 2692
11.8375, 2688
11.84, 2688
11.8425, 2686
11.845, 2688
11.8475, 2689
11.85, 2688
11.8525, 2695
11.855, 2694
11.8575, 2695
11.86, 2694
11.8625, 2699
11.865, 2695
11.8675, 2695
11.87, 2700
11.8725, 2698
11.875, 2697
11.8775, 2697
11.88, 2702
11.8825, 2699
11.885, 2698
11.8875, 2860
11.89, 2702
11.8925, 2700
11.895, 2703
11.8975, 2705
11.9, 2705
11.9025, 2703
11.905, 2707
11.9075, 2703
11.91, 2702
11.9125, 2704
11.915, 2706
11.9175, 2703
11.92, 2703
11.9225, 2703
11.925, 2701
11.9275, 2701
11.93, 2701
11.9325, 2711
11.935, 2709
11.9375, 2706
11.94, 2712
11.9425, 2708
11.945, 2707
11.9475, 2707
11.95, 2710
11.9525, 2710
11.955, 2709
11.9575, 2714
11.96, 2712
11.9625, 2711
11.965, 2709
11.9675, 2709
11.97, 2708
11.9725, 2707
11.975, 2707
11.9775, 2705
11.98, 2709
11.9825, 2709
11.985, 2715
11.9875, 2713
11.99, 2713
11.9925, 2717
11.995, 2714
11.9975, 2714
12.0, 2715
12.0025, 2716
12.005, 2716
12.0075, 2717
12.01, 2721
12.0125, 2717
12.015, 2716
12.0175, 2716
12.02, 2715
12.0225, 2714
12.025, 2713
12.0275, 2719
12.03, 2718
12.0325, 2719
12.035, 2719
12.0375, 2720
12.04, 2719
12.0425, 2718
12.045, 2723
12.0475, 2717
12.05, 2718
12.0525, 2716
12.055, 2717
12.0575, 2717
12.06, 2716
12.0625, 2719
12.065, 2719
12.0675, 2718
12.07, 2718
12.0725, 2722
12.075, 2721
12.0775, 2720
12.08, 2723
12.0825, 2721
12.085, 2721
12.0875, 2722
12.09, 2723
12.0925, 2721
12.095, 2722
12.0975, 2726
12.1, 2722
12.1025, 2722
12.105, 2723
12.1075, 2724
12.11, 2721
12.1125, 2723
12.115, 2887
12.1175, 2729
12.12, 2725
12.1225, 2724
12.125, 2727
12.1275, 2729
12.13, 2727
12.1325, 2733
12.135, 2731
12.1375, 2731
12.14, 2729
12.1425, 2732
12.145, 2730
12.1475, 2730
12.15, 2733
12.1525, 2734
12.155, 2734
12.1575, 2733
12.16, 2737
12.1625, 2735
12.165, 2733
12.1675, 2898
12.17, 2744
12.1725, 2741
12.175, 2738
12.1775, 2740
12.18, 2737
12.1825, 2738
12.185, 2744
12.1875, 2741
12.19, 2741
12.1925, 2740
12.195, 2743
12.1975, 2741
12.2, 2741
12.2025, 2743
12.205, 2743
12.2075, 2743
12.21, 2743
12.2125, 2747
12.215, 2745
12.2175, 2742
12.22, 2751
12.2225, 2748
12.225, 2750
12.2275, 2749
12.23, 2754
12.2325, 2751
12.235, 2750
12.2375, 2754
12.24, 2752
12.2425, 2751
12.245, 2752
12.2475, 2755
12.25, 2753
12.2525, 2753
12.255, 2917
12.2575, 2757
12.26, 2755
12.2625, 2755
12.265, 2758
12.2675, 2758
12.27, 2757
12.2725, 2761
12.275, 2758
12.2775, 2759
12.28, 2759
12.2825, 2762
12.285, 2761
12.2875, 2761
12.29, 2766
12.2925, 2764
12.295, 2764
12.2975, 2764
12.3, 2775
12.3025, 2768
12.305, 2763
12.3075, 2770
12.31, 2767
12.3125, 2768
12.315, 2765
12.3175, 2770
12.32, 2769
12.3225, 2767
12.325, 2768
12.3275, 2765
12.33, 2764
12.3325, 2764
12.335, 2766
12.3375, 2766
12.34, 2764
12.3425, 2768
12.345, 2767
12.3475, 2767
12.35, 2764
12.3525, 2767
12.355, 2765
12.3575, 2765
12.36, 2770
12.3625, 2767
12.365, 2765
12.3675, 2766
12.37, 2769
12.3725, 2770
12.375, 2769
12.3775, 2770
12.38, 2770
12.3825, 2769
12.385, 2771
12.3875, 2772
12.39, 2772
12.3925, 2772
12.395, 2937
12.3975, 2776
12.4, 2776
12.4025, 2773
12.405, 2775
12.4075, 2770
12.41, 2771
12.4125, 2778
12.415, 2771
12.4175, 2769
12.42, 2769
12.4225, 2772
12.425, 2775
12.4275, 2776
12.43, 2777
12.4325, 2774
12.435, 2771
12.4375, 2772
12.44, 2773
12.4425, 2772
12.445, 2773
12.4475, 2777
12.45, 2776
12.4525, 2775
12.455, 2773
12.4575, 2779
12.46, 2779
12.4625, 2778
12.465, 2785
12.4675, 2782
12.47, 2782
12.4725, 2782
12.475, 2786
12.4775, 2785
12.48, 2783
12.4825, 2787
12.485, 2784
12.4875, 2784
12.49, 2783
12.4925, 2788
12.495, 2785
12.4975, 2785
12.5, 2786
12.5025, 2786
12.505, 2783
12.5075, 2783
12.51, 2786
12.5125, 2782
12.515, 2782
12.5175, 2789
12.52, 2785
12.5225, 2784
12.525, 2784
12.5275, 2788
12.53, 2786
12.5325, 2785
12.535, 2791
12.5375, 2786
12.54, 2785
12.5425, 2783
12.545, 2786
12.5475, 2787
12.55, 2787
12.5525, 2794
12.555, 2795
12.5575, 2796
12.56, 2801
12.5625, 2807
12.565, 2809
12.5675, 2808
12.57, 2809
12.5725, 2803
12.575, 2804
12.5775, 2796
12.58, 2799
12.5825, 2793
12.585, 2791
12.5875, 2792
12.59, 2788
12.5925, 2787
12.595, 2786
12.5975, 2791
12.6, 2790
12.6025, 2786
12.605, 2790
12.6075, 2788
12.61, 2789
12.6125, 2791
12.615, 2796
12.6175, 2794
12.62, 2793
12.6225, 2799
12.625, 2795
12.6275, 2794
12.63, 2794
12.6325, 2797
12.635, 2797
12.6375, 2796
12.64, 2801
12.6425, 2798
12.645, 2797
12.6475, 2798
12.65, 2801
12.6525, 2801
12.655, 2801
12.6575, 2808
12.66, 2808
12.6625, 2808
12.665, 2808
12.6675, 2811
12.67, 2810
12.6725, 2809
12.675, 2810
12.6775, 2810
12.68, 2811
12.6825, 2809
12.685, 2810
12.6875, 2806
12.69, 2803
12.6925, 2806
12.695, 2803
12.6975, 2801
12.7, 2804
12.7025, 2807
12.705, 2800
12.7075, 2792
12.71, 2792
12.7125, 2782
12.715, 2770
12.7175, 2764
12.72, 2782
12.7225, 2783
12.725, 2782
12.7275, 2785
12.73, 2774
12.7325, 2771
12.735, 2776
12.7375, 2774
12.74, 2771
12.7425, 2768
12.745, 2773
12.7475, 2763
12.75, 2759
12.7525, 2762
12.755, 2765
12.7575, 2762
12.76, 2762
12.7625, 2924
12.765, 2765
12.7675, 2758
12.77, 2745
12.7725, 2730
12.775, 2695
12.7775, 2659
12.78, 2654
12.7825, 2651
12.785, 2645
12.7875, 2643
12.79, 2654
12.7925, 2664
12.795, 2689
12.7975, 2698
12.8, 2711
12.8025, 2714
12.805, 2721
12.8075, 2728
12.81, 2736
12.8125, 2737
12.815, 2906
12.8175, 2754
12.82, 2761
12.8225, 2766
12.825, 2776
12.8275, 2776
12.83, 2778
12.8325, 2787
12.835, 2793
12.8375, 2797
12.84, 2801
12.8425, 2810
12.845, 2814
12.8475, 2821
12.85, 2833
12.8525, 2834
12.855, 2836
12.8575, 2842
12.86, 2850
12.8625, 2853
12.865, 2858
12.8675, 2867
12.87, 2868
12.8725, 2871
12.875, 2875
12.8775, 2881
12.88, 2883
12.8825, 2883
12.885, 2894
12.8875, 2894
12.89, 2896
12.8925, 2898
12.895, 2905
12.8975, 2905
12.9, 2909
12.9025, 3086
12.905, 2923
12.9075, 2923
12.91, 2924
12.9125, 2929
12.915, 2927
12.9175, 2928
12.92, 2931
12.9225, 2930
12.925, 2930
12.9275, 2932
12.93, 2936
12.9325, 2936
12.935, 2937
12.9375, 2944
12.94, 2940
12.9425, 2941
12.945, 2941
12.9475, 2945
12.95, 2943
12.9525, 2944
12.955, 3118
12.9575, 2947
12.96, 2944
12.9625, 2945
12.965, 2945
12.9675, 2944
12.97, 2945
12.9725, 2956
12.975, 2951
12.9775, 2950
12.98, 2949
12.9825, 2949
12.985, 2947
12.9875, 2941
12.99, 2945
12.9925, 2941
12.995, 2982
12.9975, 3024
13.0, 3141
13.0025, 3312
13.005, 3434
13.0075, 3558
13.01, 3754
13.0125, 3837
13.015, 3871
13.0175, 3900
13.02, 3919
13.0225, 3944
13.025, 3965
13.0275, 3941
13.03, 3943
13.0325, 3962
13.035, 3868
13.0375, 3863
13.04, 3155
13.0425, 916
13.045, 217
13.0475, -1
13.05, 0
13.0525, -2
13.055, -1
13.0575, -1
13.06, -1
13.0625, -1
13.065, -1
13.0675, -1
13.07, -1
13.0725, -1
13.075, -1
13.0775, -2
13.08, -1
13.0825, -1
13.085, -1
13.0875, -1
13.09, -1
13.0925, 302
13.095, 617
13.0975, 801
13.1, 883
13.1025, 1042
13.105, 1163
13.1075, 1373
13.11, 1829
13.1125, 2500
13.115, 2964
13.1175, 3065
13.12, 3909
13.1225, 4257
13.125, 4768
13.1275, 5212
13.13, 5654
13.1325, 6144
13.135, 6287
13.1375, 6286
13.14, 6294
13.1425, 6289
13.145, 6288
13.1475, 6298
13.15, 6293
13.1525, 6290
13.155, 6288
13.1575, 6292
13.16, 6290
13.1625, 6288
13.165, 6298
13.1675, 6293
13.17, 6289
13.1725, 6289
13.175, 6294
13.1775, 6290
13.18, 6289
13.1825, 6300
13.185, 6292
13.1875, 6289
13.19, 6288
13.1925, 6293
13.195, 6289
13.1975, 6287
13.2, 6298
13.2025, 6292
13.205, 6287
13.2075, 6288
13.21, 6292
13.2125, 6291
13.215, 6286
13.2175, 6293
13.22, 6288
13.2225, 6289
13.225, 6286
13.2275, 6297
13.23, 6293
13.2325, 6291
13.235, 6302
13.2375, 6292
13.24, 6290
13.2425, 6288
13.245, 6296
13.2475, 6290
13.25, 6291
13.2525, 6300
13.255, 6292
13.2575, 6290
13.26, 6289
13.2625, 6294
13.265, 6291
13.2675, 6287
13.27, 6299
13.2725, 6292
13.275, 6289
13.2775, 6285
13.28, 6294
13.2825, 6289
13.285, 6289
13.2875, 6297
13.29, 6291
13.2925, 6288
13.295, 6288
13.2975, 6292
13.3, 6291
13.3025, 6288
13.305, 6299
13.3075, 6293
13.31, 6290
13.3125, 6289
13.315, 6295
13.3175, 6291
13.32, 6288
13.3225, 6301
13.325, 6292
13.3275, 6291
13.33, 6288
13.3325, 6295
13.335, 6292
13.3375, 6289
13.34, 6294
13.3425, 6290
13.345, 6288
13.3475, 6286
13.35, 6292
13.3525, 6289
13.355, 6287
13.3575, 6299
13.36, 6288
13.3625, 6289
13.365, 6286
13.3675, 6302
13.37, 6291
13.3725, 6292
13.375, 6301
13.3775, 6294
13.38, 6289
13.3825, 6290
13.385, 6295
13.3875, 6292
13.39, 6288
13.3925, 6301
13.395, 6293
13.3975, 6290
13.4, 6291
13.4025, 6290
13.405, 6291
13.4075, 6288
13.41, 6299
13.4125, 6292
13.415, 6289
13.4175, 6287
13.42, 6294
13.4225, 6290
13.425, 6288
13.4275, 6300
13.43, 6291
13.4325, 6289
13.435, 6287
13.4375, 6293
13.44, 6291
13.4425, 6287
13.445, 6301
13.4475, 6290
13.45, 6289
13.4525, 6287
13.455, 6289
13.4575, 6286
13.46, 6287
13.4625, 6298
13.465, 6290
13.4675, 6289
13.47, 6287
13.4725, 6295
13.475, 6289
13.4775, 6289
13.48, 6299
13.4825, 6292
13.485, 6288
13.4875, 6288
13.49, 6294
13.4925, 6288
13.495, 6288
13.4975, 6309
13.5, 6293
13.5025, 6289
13.505, 6287
13.5075, 6303
13.51, 6295
13.5125, 6292
13.515, 6300
13.5175, 6294
13.52, 6289
13.5225, 6289
13.525, 6288
13.5275, 6290
13.53, 6286
13.5325, 6299
13.535, 6290
13.5375, 6290
13.54, 6287
13.5425, 6289
13.545, 6285
13.5475, 6282
13.55, 6655
13.5525, 6293
13.555, 6290
13.5575, 6286
13.56, 6293
13.5625, 6288
13.565, 6285
13.5675, 6298
13.57, 6289
13.5725, 6286
13.575, 6284
13.5775, 6291
13.58, 6288
13.5825, 6286
13.585, 6290
13.5875, 6285
13.59, 5505
13.5925, 2703
13.595, -2
13.5975, -2
13.6, -2
13.6025, -1
13.605, -2
13.6075, -1
13.61, -1
13.6125, -1
13.615, -1
13.6175, -1
13.62, -2
13.6225, -2
13.625, -1
13.6275, -2
13.63, -2
13.6325, -2
13.635, -2
13.6375, -1
13.64, -1
13.6425, -1
13.645, -2
13.6475, -2
13.65, -1
13.6525, -1
13.655, -2
13.6575, -1
13.66, -1
13.6625, -2
13.665, -1
13.6675, -1
13.67, -1
13.6725, -2
13.675, -2
13.6775, -2
13.68, -1
13.6825, -1
13.685, -1
13.6875, -1
13.69, -2
13.6925, -1
13.695, -2
13.6975, -1
13.7, -2
13.7025, -1
13.705, -1
13.7075, -2
13.71, -2
13.7125, -2
13.715, -1
13.7175, -1
13.72, -2
13.7225, -2
13.725, -1
13.7275, -1
13.73, -2
13.7325, -2
13.735, -1
13.7375, -1
13.74, -2
13.7425, -1
13.745, -1
13.7475, -1
13.75, -2
13.7525, -2
13.755, -1
13.7575, -1
13.76, -2
13.7625, -1
13.765, -1
13.7675, -2
13.77, -1
13.7725, -2
13.775, -2
13.7775, -2
13.78, -1
13.7825, -2
13.785, -1
13.7875, -2
13.79, -2
13.7925, -1
13.795, -1
13.7975, -2
13.8, -2
13.8025, -2
13.805, -1
13.8075, -2
13.81, -2
13.8125, -1
13.815, -1
13.8175, -2
13.82, -1
13.8225, -1
13.825, -1
13.8275, -2
13.83, -1
13.8325, -1
13.835, -2
13.8375, -2
13.84, -1
13.8425, -1
13.845, -1
13.8475, -1
13.85, -1
13.8525, -2
13.855, -2
13.8575, -1
13.86, -2
13.8625, -1
13.865, -1
13.8675, -2
13.87, -1
13.8725, -1
13.875, -1
13.8775, -2
13.88, -2
13.8825, -2
13.885, -1
13.8875, -2
13.89, -2
13.8925, -1
13.895, -2
13.8975, -1
13.9, -1
13.9025, -1
13.905, -2
13.9075, -1
13.91, -2
13.9125, -1
13.915, -2
13.9175, -1
13.92, -2
13.9225, -2
13.925, -1
13.9275, -2
13.93, -2
13.9325, -2
13.935, -1
13.9375, -1
13.94, -2
13.9425, -1
13.945, -2
13.9475, -1
13.95, -1
13.9525, -2
13.955, -2
13.9575, -2
13.96, -2
13.9625, -1
13.965, -2
13.9675, -1
13.97, -1
13.9725, -2
13.975, -1
13.9775, -1
13.98, -1
13.9825, -2
13.985, -2
13.9875, -1
13.99, -1
13.9925, -1
13.995, -1
13.9975, -1
14.0, -2
14.0025, -1
14.005, -1
14.0075, -1
14.01, -2
14.0125, -1
14.015, -1
14.0175, -2
14.02, -2
14.0225, -2
14.025, -1
14.0275, -1
14.03, -2
14.0325, -2
14.035, -1
14.0375, -2
14.04, -2
14.0425, -2
14.045, -1
14.0475, -1
14.05, -2
14.0525, -1
14.055, -1
14.0575, -1
14.06, -2
14.0625, -2
14.065, -1
14.0675, -1
14.07, -2
14.0725, -1
14.075, -2
14.0775, -1
14.08, -1
14.0825, -2
14.085, -1
14.0875, -2
14.09, -1
14.0925, -1
14.095, -2
14.0975, -1
14.1, -2
14.1025, -1
14.105, -1
14.1075, -2
14.11, -1
14.1125, -2
14.115, -1
14.1175, -2
14.12, -2
14.1225, -1
14.125, -1
14.1275, -2
14.13, -1
14.1325, -1
14.135, -1
14.1375, -2
14.14, -2
14.1425, -2
14.145, -1
14.1475, -2
14.15, -1
14.1525, -1
14.155, -2
14.1575, -1
14.16, -1
14.1625, -2
14.165, -2
14.1675, -1
14.17, -2
14.1725, -2
14.175, -2
14.1775, -2
14.18, -1
14.1825, -2
14.185, -2
14.1875, -2
14.19, -2
14.1925, -2
14.195, -2
14.1975, -2
14.2, -1
14.2025, -1
14.205, -2
14.2075, -1
14.21, -1
14.2125, -1
14.215, -2
14.2175, -2
14.22, -2
14.2225, -1
14.225, -2
14.2275, -1
14.23, -2
14.2325, -1
14.235, -1
14.2375, -2
14.24, -1
14.2425, -2
14.245, -1
14.2475, -1
14.25, -1
14.2525, -1
14.255, -2
14.2575, -1
14.26, -1
14.2625, -1
14.265, -2
14.2675, -2
14.27, -2
14.2725, -1
14.275, -2
14.2775, -1
14.28, -1
14.2825, -2
14.285, -1
14.2875, -1
14.29, -1
14.2925, -2
14.295, -2
14.2975, -2
14.3, -2
14.3025, -2
14.305, -1
14.3075, -1
14.31, -1
14.3125, -1
14.315, -2
14.3175, -2
14.32, -2
14.3225, -1
14.325, -1
14.3275, -1
14.33, -1
14.3325, -2
14.335, -1
14.3375, -1
14.34, -1
14.3425, -2
14.345, -1
14.3475, -1
14.35, -2
14.3525, -1
14.355, -1
14.3575, -1
14.36, -2
14.3625, -1
14.365, -1
14.3675, -1
14.37, -2
14.3725, -1
14.375, -2
14.3775, -1
14.38, -2
14.3825, -1
14.385, -1
14.3875, -1
14.39, -1
14.3925, -2
14.395, -1
14.3975, -2
14.4, -1
14.4025, -2
14.405, -1
14.4075, -1
14.41, -2
14.4125, -1
14.415, -1
14.4175, -2
14.42, -1
14.4225, -2
14.425, -1
14.4275, -2
14.43, -2
14.4325, -2
14.435, -1
14.4375, -2
14.44, -1
14.4425, -1
14.445, -1
14.4475, -2
14.45, -2
14.4525, -2
14.455, -1
14.4575, -2
14.46, -1
14.4625, -1
14.465, -1
14.4675, -1
14.47, -2
14.4725, -1
14.475, -2
14.4775, -1
14.48, -1
14.4825, -1
14.485, -2
14.4875, -2
14.49, -1
14.4925, -2
14.495, -1
14.4975, -2
14.5, -2
14.5025, -1
14.505, -1
14.5075, -2
14.51, -1
14.5125, -1
14.515, -2
14.5175, -1
14.52, -1
14.5225, -1
14.525, -2
14.5275, -2
14.53, -2
14.5325, -1
14.535, -2
14.5375, -1
14.54, -1
14.5425, -1
14.545, -1
14.5475, -2
14.55, -1
14.5525, -2
14.555, -2
14.5575, -2
14.56, -2
14.5625, -2
14.565, -2
14.5675, -1
14.57, -1
14.5725, -2
14.575, -2
14.5775, -2
14.58, -1
14.5825, -1
14.585, -2
14.5875, -1
14.59, -1
14.5925, -2
14.595, -1
14.5975, -1
14.6, 1271
14.6025, 521
14.605, -2
14.6075, -2
14.61, -1
14.6125, -1
14.615, -1
14.6175, -2
14.62, -1
14.6225, -1
14.625, -1
14.6275, -1
14.63, -2
14.6325, -1
14.635, -1
14.6375, -2
14.64, -2
14.6425, -2
14.645, -1
14.6475, -1
14.65, -2
14.6525, -2
14.655, -2
14.6575, -2
14.66, -1
14.6625, -2
14.665, -1
14.6675, -1
14.67, -2
14.6725, -1
14.675, -1
14.6775, -1
14.68, -2
14.6825, -2
14.685, -2
14.6875, -1
14.69, -2
14.6925, -1
14.695, -2
14.6975, -2
14.7, -1
14.7025, -1
14.705, -2
14.7075, -2
14.71, 2415
14.7125, 2681
14.715, 2795
14.7175, 1550
14.72, -1
14.7225, -1
14.725, -1
14.7275, -1
14.73, -2
14.7325, -2
14.735, -1
14.7375, -2
14.74, -2
14.7425, -1
14.745, -1
14.7475, -2
14.75, -1
14.7525, -1
14.755, -1
14.7575, -2
14.76, -2
14.7625, -2
14.765, -1
14.7675, -2
14.77, -1
14.7725, -1
14.775, -1
14.7775, -1
14.78, -2
14.7825, -1
14.785, -2
14.7875, -1
14.79, -2
14.7925, -1
14.795, -2
14.7975, -2
14.8, -1
14.8025, -1
14.805, -2
14.8075, -2
14.81, -2
14.8125, -1
14.815, -2
14.8175, -1
14.82, -1
14.8225, -1
14.825, -2
14.8275, -1
14.83, -1
14.8325, 151
14.835, 415
14.8375, 188
14.84, 852
14.8425, 136
14.845, -1
14.8475, 310
14.85, 1090
14.8525, 1520
14.855, 2510
14.8575, 2747
14.86, 2349
14.8625, 1991
14.865, 1692
14.8675, 1458
14.87, 1736
14.8725, 1815
14.875, 1808
14.8775, 1609
14.88, 1369
14.8825, 1563
14.885, 1822
14.8875, 2239
14.89, 2375
14.8925, 2591
14.895, 2801
14.8975, 3237
14.9, 3621
14.9025, 4466
14.905, 4895
14.9075, 5013
14.91, 6291
14.9125, 6290
14.915, 6299
14.9175, 6291
14.92, 6289
14.9225, 6290
14.925, 6294
14.9275, 6291
14.93, 6288
14.9325, 4763
14.935, 2872
14.9375, 1192
14.94, -2
14.9425, -1
14.945, -1
14.9475, -1
14.95, -2
14.9525, -2
14.955, -1
14.9575, -2
14.96, -2
14.9625, -1
14.965, -1
14.9675, -1
14.97, -1
14.9725, -2
14.975, -1
14.9775, -1
14.98, -2
14.9825, -1
14.985, -1
14.9875, -1
14.99, -2
14.9925, -2
14.995, -2
14.9975, -1
15.0, -2
15.0025, -1
15.005, -1
15.0075, -1
15.01, -1
15.0125, -2
15.015, -1
15.0175, -2
15.02, -1
15.0225, -1
15.025, -2
15.0275, -2
15.03, -2
15.0325, -1
15.035, -2
15.0375, -2
15.04, -2
15.0425, -2
15.045, -2
15.0475, -2
15.05, -2
15.0525, -1
15.055, -1
15.0575, -2
15.06, -1
15.0625, -1
15.065, -1
15.0675, -2
15.07, -2
15.0725, -2
15.075, -1
15.0775, -2
15.08, -1
15.0825, -1
15.085, -1
15.0875, 0
15.09, 253
15.0925, 558
15.095, 837
15.0975, 1110
15.1, 3521
15.1025, 6291
15.105, 6291
15.1075, 6301
15.11, 6293
15.1125, 6290
15.115, 6288
15.1175, 6294
15.12, 6043
15.1225, 5740
15.125, 5413
15.1275, 5076
15.13, 4902
15.1325, 4821
15.135, 4958
15.1375, 4792
15.14, 4416
15.1425, 4081
15.145, 4150
15.1475, 4516
15.15, 4841
15.1525, 5013
15.155, 5063
15.1575, 5136
15.16, 5439
15.1625, 5498
15.165, 5544
15.1675, 5515
15.17, 5763
15.1725, 6290
15.175, 6290
15.1775, 6300
15.18, 6292
15.1825, 6289
15.185, 6288
15.1875, 6295
15.19, 6291
15.1925, 6287
15.195, 6301
15.1975, 6292
15.2, 6290
15.2025, 6287
15.205, 6291
15.2075, 6289
15.21, 6287
15.2125, 6298
15.215, 6291
15.2175, 6289
15.22, 6286
15.2225, 6293
15.225, 6288
15.2275, 6288
15.23, 6299
15.2325, 6293
15.235, 6288
15.2375, 6289
15.24, 6294
15.2425, 6292
15.245, 6289
15.2475, 6300
15.25, 6293
15.2525, 6291
15.255, 6289
15.2575, 6294
15.26, 6293
15.2625, 6289
15.265, 6302
15.2675, 6293
15.27, 6291
15.2725, 6289
15.275, 6294
15.2775, 6292
15.28, 6290
15.2825, 6300
15.285, 6290
15.2875, 6290
15.29, 6289
15.2925, 6295
15.295, 6289
15.2975, 6288
15.3, 6301
15.3025, 6291
15.305, 6289
15.3075, 6287
15.31, 6304
15.3125, 6295
15.315, 6292
15.3175, 6662
15.32, 6302
15.3225, 6297
15.325, 6293
15.3275, 6297
15.33, 6294
15.3325, 6292
15.335, 6302
15.3375, 6296
15.34, 6293
15.3425, 6291
15.345, 6298
15.3475, 6293
15.35, 6291
15.3525, 6659
15.355, 6300
15.3575, 6296
15.36, 6292
15.3625, 6298
15.365, 6294
15.3675, 6291
15.37, 6302
15.3725, 6295
15.375, 6291
15.3775, 6289
15.38, 6295
15.3825, 6293
15.385, 6289
15.3875, 6296
15.39, 6290
15.3925, 6291
15.395, 6288
15.3975, 6297
15.4, 6292
15.4025, 6290
15.405, 6303
15.4075, 6293
15.41, 6292
15.4125, 6289
15.415, 6297
15.4175, 6291
15.42, 6292
15.4225, 6302
15.425, 6294
15.4275, 6291
15.43, 6290
15.4325, 6297
15.435, 6293
15.4375, 6290
15.44, 6290
15.4425, 6289
15.445, 6287
15.4475, 6286
15.45, 6295
15.4525, 6289
15.455, 6290
15.4575, 6288
15.46, 6287
15.4625, 6285
15.465, 6287
15.4675, 6302
15.47, 6294
15.4725, 6293
15.475, 6662
15.4775, 6307
15.48, 6298
15.4825, 6298
15.485, 6302
15.4875, 6298
15.49, 6293
15.4925, 6662
15.495, 6303
15.4975, 6298
15.5, 6294
15.5025, 6301
15.505, 6297
15.5075, 6294
15.51, 6298
15.5125, 6295
15.515, 6292
15.5175, 6290
15.52, 6297
15.5225, 6292
15.525, 6290
15.5275, 6308
15.53, 6293
15.5325, 6294
15.535, 6288
15.5375, 6293
15.54, 6288
15.5425, 6289
15.545, 6658
15.5475, 6316
15.55, 6303
15.5525, 6299
15.555, 6303
15.5575, 6298
15.56, 6297
15.5625, 6662
15.565, 6305
15.5675, 6297
15.57, 6297
15.5725, 6298
15.575, 6295
15.5775, 6293
15.58, 6294
15.5825, 6291
15.585, 6290
15.5875, 6290
15.59, 6305
15.5925, 6295
15.595, 6294
15.5975, 6304
15.6, 6296
15.6025, 6291
15.605, 6292
15.6075, 6297
15.61, 6295
15.6125, 6288
15.615, 6303
15.6175, 6293
15.62, 6293
15.6225, 6290
15.625, 6290
15.6275, 6290
15.63, 6290
15.6325, 6301
15.635, 6294
15.6375, 6291
15.64, 6291
15.6425, 6297
15.645, 6292
15.6475, 6292
15.65, 6303
15.6525, 6294
15.655, 6290
15.6575, 6290
15.66, 6297
15.6625, 6293
15.665, 6288
15.6675, 6303
15.67, 6295
15.6725, 6291
15.675, 6287
15.6775, 6304
15.68, 6296
15.6825, 6294
15.685, 6297
15.6875, 6294
15.69, 6289
15.6925, 6290
15.695, 6294
15.6975, 6293
15.7, 6289
15.7025, 6303
15.705, 6293
15.7075, 6293
15.71, 6291
15.7125, 6296
15.715, 6293
15.7175, 6293
15.72, 6657
15.7225, 6300
15.725, 6297
15.7275, 6293
15.73, 6309
15.7325, 6300
15.735, 6296
15.7375, 6301
15.74, 6295
15.7425, 4388
15.745, 3864
15.7475, 3815
15.75, 3790
15.7525, 3706
15.755, 3705
15.7575, 3716
15.76, 3712
15.7625, 3728
15.765, 3724
15.7675, 3714
15.77, 3795
15.7725, 4097
15.775, 3946
15.7775, 3943
15.78, 3943
15.7825, 3937
15.785, 3927
15.7875, 3925
15.79, 3954
15.7925, 3938
15.795, 3931
15.7975, 3914
15.8, 3899
15.8025, 3868
15.805, 3843
15.8075, 3821
15.81, 3798
15.8125, 3778
15.815, 3756
15.8175, 3752
15.82, 3723
15.8225, 3697
15.825, 3675
15.8275, 3647
15.83, 3620
15.8325, 3611
15.835, 3604
15.8375, 3574
15.84, 3550
15.8425, 3533
15.845, 3474
15.8475, 3453
15.85, 3425
15.8525, 3384
15.855, 3400
15.8575, 3414
15.86, 3193
15.8625, 3056
15.865, 3164
15.8675, 3302
15.87, 3658
15.8725, 4279
15.875, 4710
15.8775, 5527
15.88, 5913
15.8825, 6299
15.885, 6296
15.8875, 6302
15.89, 6295
15.8925, 6296
15.895, 6306
15.8975, 6296
15.9, 6293
15.9025, 6292
15.905, 6293
15.9075, 6290
15.91, 6290
15.9125, 6291
15.915, 6289
15.9175, 6287
15.92, 6288
15.9225, 6301
15.925, 6297
15.9275, 6292
15.93, 6304
15.9325, 6294
15.935, 6294
15.9375, 6291
15.94, 6298
15.9425, 6294
15.945, 6292
15.9475, 6294
15.95, 6292
15.9525, 6289
15.955, 6289
15.9575, 6305
15.96, 6297
15.9625, 6293
15.965, 6662
15.9675, 6303
15.97, 6298
15.9725, 6293
15.975, 6301
15.9775, 6295
15.98, 6293
15.9825, 6298
15.985, 6293
15.9875, 6292
15.99, 6290
15.9925, 6298
15.995, 6293
15.9975, 6292
16.0, 6290
16.0025, 6291
16.005, 6288
16.0075, 6290
16.01, 6297
16.0125, 6294
16.015, 6291
16.0175, 6658
16.02, 6302
16.0225, 6297
16.025, 6295
16.0275, 6660
16.03, 6320
16.0325, 6309
16.035, 6312
16.0375, 6304
16.04, 6301
16.0425, 6298
16.045, 6296
16.0475, 6296
16.05, 6294
16.0525, 6662
16.055, 6304
16.0575, 6298
16.06, 6296
16.0625, 6323
16.065, 6305
16.0675, 6301
16.07, 6313
16.0725, 6301
16.075, 6298
16.0775, 6295
16.08, 6303
16.0825, 6296
16.085, 6294
16.0875, 6296
16.09, 6296
16.0925, 6293
16.095, 6293
16.0975, 6296
16.1, 6295
16.1025, 6294
16.105, 6305
16.1075, 6298
16.11, 6293
16.1125, 6295
16.115, 6308
16.1175, 6301
16.12, 6297
16.1225, 6309
16.125, 6299
16.1275, 6296
16.13, 6294
16.1325, 6294
16.135, 6293
16.1375, 6289
16.14, 6658
16.1425, 6301
16.145, 6296
16.1475, 6293
16.15, 6308
16.1525, 6301
16.155, 6295
16.1575, 6301
16.16, 6295
16.1625, 6295
16.165, 6291
16.1675, 6302
16.17, 6297
16.1725, 6296
16.175, 6306
16.1775, 6297
16.18, 6296
16.1825, 6294
16.185, 6300
16.1875, 6295
16.19, 6295
16.1925, 6305
16.195, 6297
16.1975, 5983
16.2, 6232
16.2025, 6299
16.205, 6294
16.2075, 6293
16.21, 6304
16.2125, 6296
16.215, 6293
16.2175, 6256
16.22, 6067
16.2225, 6292
16.225, 6291
16.2275, 6301
16.23, 6295
16.2325, 6289
16.235, 6290
16.2375, 6296
16.24, 6293
16.2425, 6291
16.245, 6303
16.2475, 6295
16.25, 6292
16.2525, 6292
16.255, 6297
16.2575, 6295
16.26, 6291
16.2625, 6304
16.265, 6295
16.2675, 6295
16.27, 6290
16.2725, 6295
16.275, 6293
16.2775, 6291
16.28, 6302
16.2825, 6294
16.285, 6293
16.2875, 6291
16.29, 6297
16.2925, 6293
16.295, 6291
16.2975, 6658
16.3, 6299
16.3025, 6297
16.305, 6293
16.3075, 6300
16.31, 6295
16.3125, 6293
16.315, 6303
16.3175, 6297
16.32, 6292
16.3225, 6292
16.325, 6306
16.3275, 6300
16.33, 6296
16.3325, 6307
16.335, 6299
16.3375, 6297
16.34, 6295
16.3425, 6295
16.345, 6295
16.3475, 6293
16.35, 6304
16.3525, 6297
16.355, 6293
16.3575, 6293
16.36, 6298
16.3625, 6293
16.365, 6293
16.3675, 6303
16.37, 6296
16.3725, 6290
16.375, 6291
16.3775, 6296
16.38, 6294
16.3825, 6289
16.385, 6302
16.3875, 6293
16.39, 6293
16.3925, 6289
16.395, 6295
16.3975, 6291
16.4, 6291
16.4025, 6300
16.405, 6295
16.4075, 6293
16.41, 6291
16.4125, 6298
16.415, 6294
16.4175, 6292
16.42, 6658
16.4225, 6301
16.425, 6297
16.4275, 6294
16.43, 3597
16.4325, 364
16.435, -2
16.4375, -1
16.44, -2
16.4425, -1
16.445, -2
16.4475, -2
16.45, -1
16.4525, -2
16.455, -1
16.4575, -1
16.46, -1
16.4625, -2
16.465, -2
16.4675, -1
16.47, -1
16.4725, -1
16.475, -1
16.4775, -1
16.48, -1
16.4825, -1
16.485, -1
16.4875, -1
16.49, 1337
16.4925, 4012
16.495, 5845
16.4975, 6291
16.5, 6298
16.5025, 6293
16.505, 6292
16.5075, 6656
16.51, 6309
16.5125, 6301
16.515, 6296
16.5175, 6303
16.52, 6297
16.5225, 6296
16.525, 6306
16.5275, 6297
16.53, 6294
16.5325, 6292
16.535, 6307
16.5375, 4741
16.54, 1573
16.5425, -2
16.545, -2
16.5475, -1
16.55, -2
16.5525, -1
16.555, -2
16.5575, -1
16.56, -1
16.5625, -2
16.565, -2
16.5675, -2
16.57, -1
16.5725, -1
16.575, -1
16.5775, -2
16.58, -2
16.5825, -1
16.585, -1
16.5875, -2
16.59, -1
16.5925, -2
16.595, -1
16.5975, -1
16.6, -1
16.6025, -1
16.605, -1
16.6075, -2
16.61, -1
16.6125, -1
16.615, -1
16.6175, -2
16.62, -1
16.6225, -1
16.625, -1
16.6275, -2
16.63, -1
16.6325, -1
16.635, -1
16.6375, -1
16.64, -2
16.6425, -1
16.645, -2
16.6475, -1
16.65, -2
16.6525, -1
16.655, -2
16.6575, -2
16.66, -1
16.6625, -1
16.665, -1
16.6675, -2
16.67, -1
16.6725, -1
16.675, -2
16.6775, -2
16.68, -1
16.6825, -1
16.685, -2
16.6875, -1
16.69, -1
16.6925, -1
16.695, -2
16.6975, -2
16.7, -1
16.7025, -1
16.705, -2
16.7075, -1
16.71, -2
16.7125, -1
16.715, -1
16.7175, -2
16.72, -2
16.7225, -2
16.725, -1
16.7275, -2
16.73, -2
16.7325, -1
16.735, -2
16.7375, -1
16.74, -2
16.7425, -2
16.745, -2
16.7475, -2
16.75, -2
16.7525, -1
16.755, -2
16.7575, -2
16.76, -1
16.7625, -2
16.765, -1
16.7675, -1
16.77, -1
16.7725, -2
16.775, -2
16.7775, -2
16.78, -2
16.7825, -2
16.785, -1
16.7875, -2
16.79, -2
16.7925, -1
16.795, -2
16.7975, -2
16.8, -2
16.8025, -1
16.805, -1
16.8075, -2
16.81, -1
16.8125, -2
16.815, -1
16.8175, -1
16.82, -2
16.8225, -2
16.825, -1
16.8275, -2
16.83, -1
16.8325, -2
16.835, -1
16.8375, -1
16.84, -2
16.8425, -1
16.845, -1
16.8475, -1
16.85, -2
16.8525, -2
16.855, -2
16.8575, -2
16.86, -2
16.8625, -1
16.865, -1
16.8675, -1
16.87, -1
16.8725, -1
16.875, -1
16.8775, -2
16.88, -1
16.8825, -1
16.885, -1
16.8875, -2
16.89, -2
16.8925, -1
16.895, -2
16.8975, -1
16.9, 1559
16.9025, 4466
16.905, 6292
16.9075, 6292
16.91, 6303
16.9125, 6295
16.915, 6290
16.9175, 6291
16.92, 6291
16.9225, 6291
16.925, 6286
16.9275, 6654
16.93, 6298
16.9325, 6296
16.935, 6290
16.9375, 6296
16.94, 6291
16.9425, 6292
16.945, 6301
16.9475, 6296
16.95, 6293
16.9525, 6292
16.955, 6299
16.9575, 6295
16.96, 6293
16.9625, 6304
16.965, 6297
16.9675, 6294
16.97, 6292
16.9725, 6299
16.975, 6294
16.9775, 6293
16.98, 6305
16.9825, 6296
16.985, 6293
16.9875, 6289
16.99, 6298
16.9925, 6295
16.995, 6292
16.9975, 6296
17.0, 6294
17.0025, 6290
17.005, 6290
17.0075, 6294
17.01, 6293
17.0125, 6289
17.015, 6302
17.0175, 6291
17.02, 6292
17.0225, 6289
17.025, 6298
17.0275, 6291
17.03, 6290
17.0325, 6302
17.035, 6294
17.0375, 6293
17.04, 6290
17.0425, 6298
17.045, 6294
17.0475, 6291
17.05, 6304
17.0525, 6294
17.055, 6292
17.0575, 6290
17.06, 6291
17.0625, 6291
17.065, 6289
17.0675, 6302
17.07, 6293
17.0725, 6291
17.075, 6289
17.0775, 6297
17.08, 6289
17.0825, 6292
17.085, 6301
17.0875, 6295
17.09, 6289
17.0925, 6291
17.095, 6295
17.0975, 6294
17.1, 6288
17.1025, 6302
17.105, 6295
17.1075, 6292
17.11, 6290
17.1125, 6295
17.115, 6292
17.1175, 6290
17.12, 6302
17.1225, 6293
17.125, 6291
17.1275, 6288
17.13, 6293
17.1325, 6292
17.135, 6290
17.1375, 6303
17.14, 6295
17.1425, 6292
17.145, 6290
17.1475, 6295
17.15, 6291
17.1525, 6290
17.155, 6302
17.1575, 6292
17.16, 6293
17.1625, 6288
17.165, 6307
17.1675, 6297
17.17, 6294
17.1725, 6306
17.175, 6297
17.1775, -1
17.18, -1
17.1825, -1
17.185, -1
17.1875, -2
17.19, -1
17.1925, -1
17.195, -2
17.1975, -2
17.2, -2
17.2025, -1
17.205, -1
17.2075, -2
17.21, -2
17.2125, -2
17.215, -2
17.2175, -1
17.22, 6292
17.2225, -1
17.225, 6302
17.2275, 6295
17.23, 6291
17.2325, 6291
17.235, 6296
17.2375, 6294
17.24, 6289
17.2425, 6293
17.245, 6290
17.2475, 6290
17.25, 6287
17.2525, 6296
17.255, 6292
17.2575, 6291
17.26, 6301
17.2625, 22
17.265, -2
17.2675, -1
17.27, -1
17.2725, -2
17.275, -2
17.2775, -2
17.28, -1
17.2825, -1
17.285, -2
17.2875, -2
17.29, -1
17.2925, -1
17.295, -1
17.2975, -2
17.3, -1
17.3025, -1
17.305, 6296
17.3075, 6292
17.31, -1
17.3125, 6302
17.315, 6296
17.3175, 6291
17.32, 6292
17.3225, 6297
17.325, 6294
17.3275, 6291
17.33, -1
17.3325, -1
17.335, -1
17.3375, -1
17.34, -1
17.3425, -2
17.345, -1
17.3475, -1
17.35, -2
17.3525, -1
17.355, -2
17.3575, -1
17.36, -1
17.3625, -2
17.365, -2
17.3675, -2
17.37, -1
17.3725, -1
17.375, -2
17.3775, -1
17.38, -1
17.3825, -2
17.385, -1
17.3875, -1
17.39, 0
17.3925, -2
17.395, 6294
17.3975, 6294
17.4, -1
17.4025, -2
17.405, -2
17.4075, -1
17.41, 6297
17.4125, -1
17.415, -1
17.4175, 6303
17.42, 6295
17.4225, 6295
17.425, 1235
17.4275, -1
17.43, -1
17.4325, -2
17.435, -1
17.4375, -2
17.44, -2
17.4425, -2
17.445, -2
17.4475, -1
17.45, -1
17.4525, -2
17.455, -2
17.4575, -1
17.46, -2
17.4625, -1
17.465, -1
17.4675, -1
17.47, -2
17.4725, -1
17.475, -2
17.4775, -1
17.48, -1
17.4825, -1
17.485, -1
17.4875, -1
17.49, -1
17.4925, -1
17.495, -2
17.4975, -2
17.5, -1
17.5025, -2
17.505, -1
17.5075, -1
17.51, -2
17.5125, -1
17.515, -2
17.5175, -2
17.52, -2
17.5225, -2
17.525, -2
17.5275, -1
17.53, -2
17.5325, 6306
17.535, 6298
17.5375, 6292
17.54, 6304
17.5425, 6297
17.545, 6293
17.5475, 6292
17.55, 6293
17.5525, 6293
17.555, 6289
17.5575, 6302
17.56, 6293
17.5625, 6293
17.565, 6290
17.5675, 6293
17.57, 6291
17.5725, 6291
17.575, 6653
17.5775, 6300
17.58, 6297
17.5825, 6293
17.585, 6301
17.5875, 6294
17.59, 6294
17.5925, 6306
17.595, 6296
17.5975, 6296
17.6, 6292
17.6025, 6299
17.605, 6294
17.6075, 6292
17.61, 6296
17.6125, 6293
17.615, 6289
17.6175, -1
17.62, -1
17.6225, -1
17.625, -2
17.6275, -2
17.63, -2
17.6325, -1
17.635, -2
17.6375, -1
17.64, -1
17.6425, -1
17.645, -1
17.6475, -2
17.65, -1
17.6525, -2
17.655, -1
17.6575, -1
17.66, -2
17.6625, -2
17.665, -2
17.6675, -1
17.67, -2
17.6725, -1
17.675, -2
17.6775, -1
17.68, -1
17.6825, -1
17.685, -2
17.6875, -2
17.69, -1
17.6925, -2
17.695, -2
17.6975, -1
17.7, -1
17.7025, -2
17.705, -2
17.7075, -1
17.71, -2
17.7125, -2
17.715, -1
17.7175, -2
17.72, -1
17.7225, -1
17.725, -2
17.7275, -2
17.73, -2
17.7325, -1
17.735, -1
17.7375, -2
17.74, -2
17.7425, -2
17.745, -1
17.7475, -2
17.75, -2
17.7525, -2
17.755, -1
17.7575, -2
17.76, -2
17.7625, -2
17.765, -1
17.7675, -1
17.77, -2
17.7725, -1
17.775, -1
17.7775, -1
17.78, -2
17.7825, -1
17.785, -1
17.7875, -1
17.79, -2
17.7925, -1
17.795, -1
17.7975, -1
17.8, -1
17.8025, -1
17.805, -2
17.8075, -2
17.81, -1
17.8125, -1
17.815, -1
17.8175, -1
17.82, -2
17.8225, 0
17.825, -1
17.8275, -2
17.83, 6299
17.8325, 6294
17.835, 6293
17.8375, 6305
17.84, 6296
17.8425, 6293
17.845, 6292
17.8475, 6301
17.85, 6295
17.8525, 6294
17.855, 6303
17.8575, 6297
17.86, 6292
17.8625, 6292
17.865, 6297
17.8675, 6295
17.87, 6291
17.8725, 6304
17.875, 6295
17.8775, 6294
17.88, 6293
17.8825, 6297
17.885, -2
17.8875, -1
17.89, -1
17.8925, -2
17.895, -1
17.8975, -1
17.9, -1
17.9025, -1
17.905, -1
17.9075, -1
17.91, -2
17.9125, -2
17.915, 6292
17.9175, 6293
17.92, 6292
17.9225, 6290
17.925, 6303
17.9275, 6294
17.93, 6293
17.9325, 6289
17.935, 6298
17.9375, 6292
17.94, 6292
17.9425, 6301
17.945, 6296
17.9475, 6291
17.95, 6293
17.9525, 6297
17.955, 6295
17.9575, 6291
17.96, 6302
17.9625, 6296
17.965, 6294
17.9675, 6291
17.97, 6297
17.9725, 6296
17.975, 6291
17.9775, 6297
17.98, 6295
17.9825, 6292
17.985, 6291
17.9875, 6298
17.99, 6294
17.9925, 6291
17.995, 6302
17.9975, 6293
18.0, 6292
18.0025, 6290
18.005, 6296
18.0075, 6294
18.01, 6291
18.0125, 6303
18.015, 6294
18.0175, 6293
18.02, 6290
18.0225, 6298
18.025, 6292
18.0275, -1
18.03, -2
18.0325, -1
18.035, -1
18.0375, -2
18.04, -2
18.0425, -1
18.045, -1
18.0475, -2
18.05, -1
18.0525, -2
18.055, -1
18.0575, -1
18.06, 6292
18.0625, 6292
18.065, 6304
18.0675, 6295
18.07, 6291
18.0725, 6291
18.075, 6292
18.0775, 6290
18.08, 6287
18.0825, 6649
18.085, 532
18.0875, 0
18.09, -2
18.0925, -1
18.095, 6292
18.0975, 6290
18.1, -2
18.1025, -2
18.105, -2
18.1075, -1
18.11, -1
18.1125, -1
18.115, -1
18.1175, -2
18.12, -1
18.1225, -1
18.125, 6291
18.1275, 6308
18.13, 6299
18.1325, 6295
18.135, 6307
18.1375, 6297
18.14, 6297
18.1425, 6294
18.145, 6299
18.1475, -2
18.15, 6293
18.1525, 6303
18.155, 6294
18.1575, 6292
18.16, 6290
18.1625, 6294
18.165, 6290
18.1675, 6292
18.17, 6290
18.1725, 6290
18.175, 6289
18.1775, 5948
18.18, -1
18.1825, -1
18.185, -1
18.1875, -1
18.19, -2
18.1925, -1
18.195, -2
18.1975, 6
18.2, 6296
18.2025, 6290
18.205, 6305
18.2075, 6297
18.21, 6295
18.2125, 6290
18.215, 6301
18.2175, 6297
18.22, 6294
18.2225, 6305
18.225, 6297
18.2275, 6294
18.23, 6291
18.2325, 6298
18.235, 6294
18.2375, 6292
18.24, 6304
18.2425, 6294
18.245, 6294
18.2475, 6288
18.25, 6298
18.2525, 6292
18.255, 6292
18.2575, -1
18.26, -2
18.2625, -2
18.265, -1
18.2675, -1
18.27, -1
18.2725, -2
18.275, -1
18.2775, -1
18.28, -2
18.2825, -2
18.285, -2
18.2875, -1
18.29, -1
18.2925, -1
18.295, -2
18.2975, 3628
18.3, 6291
18.3025, -2
18.305, -1
18.3075, -1
18.31, -1
18.3125, -2
18.315, -1
18.3175, -1
18.32, -1
18.3225, -2
18.325, -1
18.3275, -2
18.33, -2
18.3325, -2
18.335, -1
18.3375, -1
18.34, -1
18.3425, -1
18.345, -1
18.3475, -2
18.35, -2
18.3525, -1
18.355, -2
18.3575, -2
18.36, -2
18.3625, -2
18.365, -1
18.3675, -2
18.37, -1
18.3725, -2
18.375, -2
18.3775, -2
18.38, -1
18.3825, -2
18.385, -1
18.3875, -1
18.39, -2
18.3925, -1
18.395, -1
18.3975, -1
18.4, -2
18.4025, -1
18.405, -2
18.4075, -1
18.41, -2
18.4125, -1
18.415, -1
18.4175, -1
18.42, -1
18.4225, -1
18.425, -2
18.4275, -2
18.43, -1
18.4325, -2
18.435, -2
18.4375, -2
18.44, -2
18.4425, -1
18.445, -2
18.4475, -1
18.45, -2
18.4525, -2
18.455, -2
18.4575, -2
18.46, -2
18.4625, -1
18.465, -1
18.4675, -2
18.47, -1
18.4725, -1
18.475, -1
18.4775, -2
18.48, -2
18.4825, -2
18.485, -2
18.4875, -1
18.49, -1
18.4925, -2
18.495, -2
18.4975, -1
18.5, -2
18.5025, -1
18.505, -2
18.5075, -1
18.51, -2
18.5125, -2
18.515, -2
18.5175, -2
18.52, -1
18.5225, -2
18.525, -1
18.5275, -2
18.53, -2
18.5325, -2
18.535, -1
18.5375, -2
18.54, -1
18.5425, -1
18.545, -2
18.5475, -1
18.55, -1
18.5525, -1
18.555, -2
18.5575, -1
18.56, -2
18.5625, -2
18.565, -2
18.5675, -1
18.57, -2
18.5725, -1
18.575, -1
18.5775, -2
18.58, -2
18.5825, -2
18.585, -1
18.5875, -1
18.59, -1
18.5925, -2
18.595, -1
18.5975, -1
18.6, -1
18.6025, -2
18.605, -2
18.6075, -2
18.61, -2
18.6125, -1
18.615, -2
18.6175, -1
18.62, -1
18.6225, -2
18.625, -1
18.6275, -1
18.63, -1
18.6325, -2
18.635, -1
18.6375, -2
18.64, -1
18.6425, -2
18.645, -1
18.6475, -2
18.65, -1
18.6525, -1
18.655, -2
18.6575, -1
18.66, -2
18.6625, -1
18.665, -1
18.6675, -1
18.67, -2
18.6725, -2
18.675, -1
18.6775, -1
18.68, -2
18.6825, -2
18.685, -1
18.6875, -1
18.69, -2
18.6925, -2
18.695, -1
18.6975, 6295
18.7, 6283
18.7025, 6290
18.705, 6295
18.7075, 6291
18.71, 6292
18.7125, 6300
18.715, 2140
18.7175, 303
18.72, 6156
18.7225, -1
18.725, -2
18.7275, -1
18.73, -1
18.7325, -1
18.735, -2
18.7375, -2
18.74, -1
18.7425, -1
18.745, -1
18.7475, -2
18.75, -2
18.7525, -1
18.755, -2
18.7575, -2
18.76, -2
18.7625, -1
18.765, -2
18.7675, -1
18.77, -2
18.7725, -2
18.775, -1
18.7775, -2
18.78, -2
18.7825, -1
18.785, -1
18.7875, -2
18.79, -1
18.7925, -2
18.795, -2
18.7975, -2
18.8, -1
18.8025, -1
18.805, -1
18.8075, -1
18.81, -2
18.8125, -2
18.815, -2
18.8175, -1
18.82, -1
18.8225, -1
18.825, -2
18.8275, -2
18.83, -1
18.8325, -1
18.835, -1
18.8375, -2
18.84, -2
18.8425, -2
18.845, -1
18.8475, -2
18.85, -1
18.8525, -1
18.855, -2
18.8575, -1
18.86, -1
18.8625, -1
18.865, 6292
18.8675, 6287
18.87, 6302
18.8725, 6293
18.875, 6293
18.8775, 6290
18.88, 6297
18.8825, 6294
18.885, 6292
18.8875, 6303
18.89, 6294
18.8925, 6293
18.895, 6292
18.8975, 6299
18.9, 6294
18.9025, 6294
18.905, 6305
18.9075, 6296
18.91, 6294
18.9125, 6293
18.915, 6309
18.9175, 6300
18.92, 6297
18.9225, 6655
18.925, 6303
18.9275, 6300
18.93, 6297
18.9325, 6297
18.935, 6295
18.9375, 6294
18.94, 6304
18.9425, 6297
18.945, 6292
18.9475, 6293
18.95, 6298
18.9525, 6296
18.955, 6292
18.9575, 6295
18.96, 6292
18.9625, 6291
18.965, 6290
18.9675, 6306
18.97, 6300
18.9725, 6295
18.975, 6305
18.9775, 6296
18.98, 6295
18.9825, 6291
18.985, 6298
18.9875, 6294
18.99, 6294
18.9925, 6299
18.995, 6295
18.9975, 6292
19.0, -1
19.0025, -2
19.005, 6294
19.0075, 6292
19.01, 6652
19.0125, 6300
19.015, 6298
19.0175, -1
19.02, -2
19.0225, -1
19.025, -2
19.0275, -1
19.03, -2
19.0325, -1
19.035, -1
19.0375, -1
19.04, -1
19.0425, -1
19.045, -2
19.0475, -2
19.05, -1
19.0525, -1
19.055, -2
19.0575, -1
19.06, -2
19.0625, -1
19.065, -2
19.0675, -2
19.07, -2
19.0725, -2
19.075, -1
19.0775, -1
19.08, -2
19.0825, -1
19.085, -1
19.0875, -2
19.09, -1
19.0925, -1
19.095, -1
19.0975, -2
19.1, -1
19.1025, -2
19.105, -2
19.1075, -2
19.11, -1
19.1125, -1
19.115, -1
19.1175, -1
19.12, -1
19.1225, -1
19.125, -2
19.1275, -1
19.13, -2
19.1325, -1
19.135, -1
19.1375, -2
19.14, -1
19.1425, -1
19.145, -2
19.1475, -2
19.15, -1
19.1525, -2
19.155, -1
19.1575, -2
19.16, -1
19.1625, -1
19.165, -2
19.1675, -1
19.17, -1
19.1725, -1
19.175, -2
19.1775, -2
19.18, -2
19.1825, -1
19.185, -2
19.1875, -1
19.19, -1
19.1925, -1
19.195, -1
19.1975, -2
19.2, -1
19.2025, -2
19.205, -2
19.2075, -2
19.21, -2
19.2125, -1
19.215, -2
19.2175, -1
19.22, -2
19.2225, -2
19.225, -2
19.2275, -1
19.23, -2
19.2325, -1
19.235, -2
19.2375, -1
19.24, -1
19.2425, -2
19.245, -1
19.2475, -1
19.25, -1
19.2525, -2
19.255, -2
19.2575, -2
19.26, -1
19.2625, -2
19.265, -1
19.2675, -1
19.27, -1
19.2725, -1
19.275, -1
19.2775, -2
19.28, -2
19.2825, -1
19.285, -1
19.2875, -2
19.29, -2
19.2925, -1
19.295, -1
19.2975, -2
19.3, -1
19.3025, -2
19.305, -1
19.3075, -2
19.31, -2
19.3125, -2
19.315, -1
19.3175, -1
19.32, -2
19.3225, -2
19.325, 6294
19.3275, 6291
19.33, 6290
19.3325, 6288
19.335, 6306
19.3375, 6297
19.34, 6293
19.3425, 6304
19.345, 6253
19.3475, -1
19.35, -1
19.3525, -2
19.355, -1
19.3575, -2
19.36, -1
19.3625, -1
19.365, -1
19.3675, -2
19.37, -1
19.3725, -1
19.375, -1
19.3775, -1
19.38, -2
19.3825, -1
19.385, -1
19.3875, -1
19.39, -2
19.3925, -1
19.395, -1
19.3975, -2
19.4, -1
19.4025, -1
19.405, -1
19.4075, -2
19.41, -2
19.4125, -2
19.415, -2
19.4175, -2
19.42, -1
19.4225, -1
19.425, -2
19.4275, -1
19.43, -1
19.4325, -1
19.435, -2
19.4375, -1
19.44, -1
19.4425, -2
19.445, -2
19.4475, -2
19.45, -1
19.4525, -1
19.455, -2
19.4575, -2
19.46, -2
19.4625, -2
19.465, -1
19.4675, -1
19.47, -2
19.4725, -1
19.475, -2
19.4775, -1
19.48, -1
19.4825, -1
19.485, -2
19.4875, -1
19.49, -1
19.4925, -1
19.495, -2
19.4975, -1
19.5, -1
19.5025, -1
19.505, -1
19.5075, -2
19.51, -1
19.5125, -2
19.515, -2
19.5175, -1
19.52, -2
19.5225, -2
19.525, -2
19.5275, -1
19.53, -1
19.5325, -2
19.535, -2
19.5375, -1
19.54, -1
19.5425, -1
19.545, -2
19.5475, -1
19.55, -1
19.5525, -2
19.555, -1
19.5575, -1
19.56, -1
19.5625, -2
19.565, -1
19.5675, -1
19.57, -1
19.5725, -2
19.575, -1
19.5775, -1
19.58, -2
19.5825, -1
19.585, -1
19.5875, -2
19.59, -2
19.5925, -1
19.595, -1
19.5975, -2
19.6, -1
19.6025, -2
19.605, -1
19.6075, -2
19.61, -2
19.6125, -2
19.615, -2
19.6175, -2
19.62, -2
19.6225, -2
19.625, -1
19.6275, -1
19.63, -2
19.6325, -1
19.635, -1
19.6375, -1
19.64, -2
19.6425, -1
19.645, -2
19.6475, -2
19.65, -2
19.6525, -2
19.655, -1
19.6575, -2
19.66, 857
19.6625, 4171
19.665, 6293
19.6675, 6301
19.67, 6297
19.6725, 6296
19.675, 6650
19.6775, 6305
19.68, 6300
19.6825, 6297
19.685, 6303
19.6875, 6299
19.69, 6297
19.6925, 6309
19.695, 6300
19.6975, 6297
19.7, 6295
19.7025, 6309
19.705, 6302
19.7075, 6299
19.71, 6307
19.7125, 6301
19.715, 6296
19.7175, 6296
19.72, 6294
19.7225, 5386
19.725, 2718
19.7275, -2
19.73, -1
19.7325, -1
19.735, -1
19.7375, -1
19.74, -2
19.7425, -1
19.745, -2
19.7475, -1
19.75, -2
19.7525, -2
19.755, -1
19.7575, -2
19.76, -1
19.7625, -1
19.765, -2
19.7675, -2
19.77, -2
19.7725, -1
19.775, -1
19.7775, -2
19.78, -1
19.7825, -1
19.785, -2
19.7875, -1
19.79, -1
19.7925, -1
19.795, -2
19.7975, -2
19.8, -2
19.8025, -2
19.805, -2
19.8075, -1
19.81, -1
19.8125, -2
19.815, -1
19.8175, 6298
19.82, 6296
19.8225, 6295
19.825, 6301
19.8275, 6298
19.83, 6294
19.8325, 6301
19.835, 6296
19.8375, 6295
19.84, 6294
19.8425, 6303
19.845, 6299
19.8475, 6296
19.85, 6306
19.8525, 6297
19.855, 6296
19.8575, 6294
19.86, 6301
19.8625, 6295
19.865, 6294
19.8675, 6306
19.87, 6297
19.8725, 6295
19.875, 6292
19.8775, 6301
19.88, 6295
19.8825, 6293
19.885, 6313
19.8875, 6299
19.89, 6296
19.8925, 6295
19.895, 6309
19.8975, 6302
19.9, 6300
19.9025, 6309
19.905, 6302
19.9075, 6297
19.91, 6297
19.9125, 6302
19.915, 208
19.9175, -2
19.92, -2
19.9225, -1
19.925, -2
19.9275, -1
19.93, -1
19.9325, -2
19.935, -1
19.9375, -1
19.94, -2
19.9425, -2
19.945, -1
19.9475, -1
19.95, -2
19.9525, -1
19.955, -1
19.9575, -1
19.96, -2
19.9625, -1
19.965, -1
19.9675, -1
19.97, -1
19.9725, -1
19.975, -1
19.9775, -2
19.98, -1
19.9825, 2609
19.985, 6301
19.9875, 6298
19.99, 6309
19.9925, 6301
19.995, 6297
19.9975, 6294
20.0, 6310
20.0025, 6304
20.005, 6299
20.0075, 6309
20.01, 6300
20.0125, 6297
20.015, 6296
20.0175, 6294
20.02, 6294
20.0225, 6293
20.025, 6304
20.0275, 6297
20.03, 6293
20.0325, 5379
20.035, -1
20.0375, -2
20.04, -1
20.0425, -1
20.045, -1
20.0475, 4744
20.05, 6293
20.0525, 6300
20.055, 6298
20.0575, 6294
20.06, 6308
20.0625, 6297
20.065, 6296
20.0675, 6292
20.07, 6298
20.0725, 6296
20.075, 6293
20.0775, 6306
20.08, 6297
20.0825, 6295
20.085, 6293
20.0875, 6299
20.09, 6295
20.0925, 6294
20.095, 6305
20.0975, 6296
20.1, 6295
20.1025, 6291
20.105, 6299
20.1075, 6293
20.11, 6294
20.1125, 6293
20.115, 6294
20.1175, 6291
20.12, -2
20.1225, 6306
20.125, -1
20.1275, -1
20.13, -1
20.1325, -2
20.135, -1
20.1375, -1
20.14, -2
20.1425, 6298
20.145, 6294
20.1475, 1391
20.15, -1
20.1525, -1
20.155, -2
20.1575, -2
20.16, -2
20.1625, -1
20.165, -1
20.1675, -1
20.17, -1
20.1725, -2
20.175, -1
20.1775, -1
20.18, -1
20.1825, -2
20.185, -2
20.1875, -1
20.19, -1
20.1925, -2
20.195, -1
20.1975, -1
20.2, -1
20.2025, -1
20.205, -1
20.2075, -1
20.21, -2
20.2125, -1
20.215, -2
20.2175, -2
20.22, -2
20.2225, -2
20.225, -1
20.2275, -1
20.23, -2
20.2325, -1
20.235, -2
20.2375, -1
20.24, -2
20.2425, -2
20.245, -1
20.2475, -1
20.25, -2
20.2525, -1
20.255, -1
20.2575, -1
20.26, -2
20.2625, -1
20.265, -1
20.2675, -2
20.27, -2
20.2725, -1
20.275, -1
20.2775, -1
20.28, -1
20.2825, -1
20.285, -2
20.2875, -2
20.29, -1
20.2925, -1
20.295, -1
20.2975, -1
20.3, -2
20.3025, -1
20.305, -1
20.3075, -2
20.31, -1
20.3125, -1
20.315, -1
20.3175, -1
20.32, -1
20.3225, -1
20.325, -1
20.3275, -2
20.33, -1
20.3325, -1
20.335, -1
20.3375, -2
20.34, -1
20.3425, -1
20.345, -1
20.3475, -1
20.35, -1
20.3525, -1
20.355, -1
20.3575, -1
20.36, -1
20.3625, -1
20.365, -2
20.3675, -1
20.37, -1
20.3725, -1
20.375, -1
20.3775, -1
20.38, 0
20.3825, -1
20.385, -1
20.3875, -1
20.39, -1
20.3925, -1
20.395, -1
20.3975, -2
20.4, -1
20.4025, -1
20.405, -1
20.4075, -1
20.41, -1
20.4125, 0
20.415, -2
20.4175, -1
20.42, -1
20.4225, -1
20.425, -1
20.4275, -1
20.43, 2010
20.4325, -1
20.435, -1
20.4375, -1
20.44, -1
20.4425, -2
20.445, 6014
20.4475, -1
20.45, 1189
20.4525, 2171
20.455, -1
20.4575, 6297
20.46, 6297
20.4625, 6309
20.465, 6299
20.4675, 6295
20.47, 6295
20.4725, 6302
20.475, 6297
20.4775, 6293
20.48, 6297
20.4825, 6294
20.485, 6293
20.4875, 6293
20.49, 6297
20.4925, 6297
20.495, 6173
20.4975, 1073
20.5, 1266
20.5025, -1
20.505, -1
20.5075, -1
20.51, -2
20.5125, -1
20.515, 254
20.5175, 6298
20.52, 6297
20.5225, 6295
20.525, 6302
20.5275, 3725
20.53, 5102
20.5325, 6647
20.535, 4577
20.5375, 45
20.54, 203
20.5425, 293
20.545, 6299
20.5475, 6296
20.55, 6301
20.5525, 6297
20.555, 6295
20.5575, 6293
20.56, 6299
20.5625, 6295
20.565, 6295
20.5675, 6305
20.57, 6299
20.5725, 6294
20.575, 6294
20.5775, 6298
20.58, 6297
20.5825, 6293
20.585, 6307
20.5875, 6298
20.59, 6296
20.5925, 6294
20.595, 6300
20.5975, 6298
20.6, 6296
20.6025, 6307
20.605, 6299
20.6075, 6297
20.61, 6294
20.6125, 6296
20.615, 6296
20.6175, 6294
20.62, 6306
20.6225, 6297
20.625, 6295
20.6275, 6294
20.63, 6309
20.6325, 6300
20.635, 6298
20.6375, 6308
20.64, 6299
20.6425, 6296
20.645, 6294
20.6475, 6302
20.65, 6296
20.6525, 6294
20.655, 6305
20.6575, 6299
20.66, 6295
20.6625, 6293
20.665, 6300
20.6675, 6297
20.67, -1
20.6725, -2
20.675, -1
20.6775, -1
20.68, -1
20.6825, -1
20.685, -1
20.6875, 6296
20.69, 2588
20.6925, 2690
20.695, 6296
20.6975, 6295
20.7, 6302
20.7025, 6298
20.705, -1
20.7075, -2
20.71, -1
20.7125, -1
20.715, -2
20.7175, -1
20.72, -1
20.7225, 0
20.725, -1
20.7275, -1
20.73, -2
20.7325, -1
20.735, -1
20.7375, -1
20.74, -1
20.7425, -1
20.745, -1
20.7475, -1
20.75, -1
20.7525, -1
20.755, -1
20.7575, -1
20.76, -1
20.7625, -1
20.765, -1
20.7675, 0
20.77, -1
20.7725, -1
20.775, -1
20.7775, -2
20.78, -1
20.7825, -2
20.785, -1
20.7875, -1
20.79, -1
20.7925, -2
20.795, -1
20.7975, -1
20.8, 0
20.8025, -2
20.805, -1
20.8075, -1
20.81, -1
20.8125, -1
20.815, -1
20.8175, -2
20.82, -1
20.8225, 6301
20.825, 6297
20.8275, 6295
20.83, 6308
20.8325, 6298
20.835, 6297
20.8375, 6294
20.84, 6301
20.8425, 6297
20.845, 6295
20.8475, 6301
20.85, 6296
20.8525, 6296
20.855, 6294
20.8575, 6299
20.86, 6295
20.8625, 6294
20.865, 6626
20.8675, 6306
20.87, 6302
20.8725, 6297
20.875, 6303
20.8775, 6297
20.88, 6297
20.8825, 6308
20.885, 6300
20.8875, 6294
20.89, 6296
20.8925, 6301
20.895, 6299
20.8975, 6293
20.9, 6307
20.9025, 6299
20.905, 6296
20.9075, 6294
20.91, 6301
20.9125, 6299
20.915, 6295
20.9175, 6300
20.92, 6297
20.9225, 6295
20.925, 6295
20.9275, 3353
20.93, -1
20.9325, -1
20.935, -1
20.9375, -1
20.94, -1
20.9425, -1
20.945, 0
20.9475, -2
20.95, -2
20.9525, -1
20.955, -1
20.9575, -2
20.96, -1
20.9625, -1
20.965, -1
20.9675, -1
20.97, -1
20.9725, -1
20.975, -1
20.9775, -1
20.98, -1
20.9825, -2
20.985, -2
20.9875, 1269
20.99, 6298
20.9925, 6295
20.995, 6297
20.9975, 6310
21.0, 6301
21.0025, 6299
21.005, 6311
21.0075, 6302
21.01, 6296
21.0125, 6296
21.015, 6303
21.0175, 6298
21.02, 6294
21.0225, 6307
21.025, 6300
21.0275, 6295
21.03, 6294
21.0325, 6297
21.035, 6297
21.0375, 6293
21.04, 6306
21.0425, 6297
21.045, 6296
21.0475, 6292
21.05, 6301
21.0525, 6296
21.055, 6295
21.0575, 6306
21.06, 6298
21.0625, 6297
21.065, 6295
21.0675, 6302
21.07, 6297
21.0725, 6298
21.075, 6308
21.0775, 6299
21.08, 6297
21.0825, 6294
21.085, 6301
21.0875, 6297
21.09, 6295
21.0925, 6307
21.095, 6298
21.0975, 6296
21.1, 6295
21.1025, 6302
21.105, 6297
21.1075, 6296
21.11, 6306
21.1125, 6297
21.115, 6294
21.1175, 6294
21.12, 6299
21.1225, 6294
21.125, 5627
21.1275, 6316
21.13, 6299
21.1325, 6298
21.135, 6295
21.1375, -2
21.14, -2
21.1425, -1
21.145, -1
21.1475, -1
21.15, -2
21.1525, -1
21.155, 0
21.1575, -1
21.16, -2
21.1625, -1
21.165, -1
21.1675, -1
21.17, -1
21.1725, -2
21.175, -1
21.1775, -1
21.18, -2
21.1825, -2
21.185, -1
21.1875, -1
21.19, -2
21.1925, -1
21.195, -1
21.1975, -1
21.2, -1
21.2025, -1
21.205, 1142
21.2075, -1
21.21, -1
21.2125, -1
21.215, -2
21.2175, -2
21.22, -1
21.2225, -1
21.225, 4046
21.2275, 4080
21.23, -1
21.2325, 0
21.235, -1
21.2375, -1
21.24, -1
21.2425, -1
21.245, -2
21.2475, -1
21.25, -2
21.2525, -1
21.255, -1
21.2575, -1
21.26, -1
21.2625, -1
21.265, 0
21.2675, -2
21.27, -1
21.2725, -2
21.275, -1
21.2775, -1
21.28, -1
21.2825, -1
21.285, -1
21.2875, -1
21.29, -1
21.2925, -2
21.295, -2
21.2975, -1
21.3, -1
21.3025, -1
21.305, -2
21.3075, -1
21.31, -1
21.3125, -1
21.315, -1
21.3175, -1
21.32, -1
21.3225, -1
21.325, -1
21.3275, -1
21.33, -1
21.3325, -1
21.335, -2
21.3375, -1
21.34, 687
21.3425, 5757
21.345, -2
21.3475, 2464
21.35, 6298
21.3525, 6294
21.355, 6307
21.3575, 6298
21.36, 6298
21.3625, 6294
21.365, 6301
21.3675, 6298
21.37, 6296
21.3725, 6644
21.375, 6306
21.3775, 6302
21.38, 6298
21.3825, 6306
21.385, 6300
21.3875, 6298
21.39, 6303
21.3925, 6298
21.395, 6297
21.3975, 5396
21.4, -1
21.4025, -1
21.405, -2
21.4075, -1
21.41, -1
21.4125, -2
21.415, -1
21.4175, -1
21.42, 0
21.4225, -1
21.425, -1
21.4275, -1
21.43, -1
21.4325, -1
21.435, -1
21.4375, -1
21.44, -1
21.4425, -1
21.445, -1
21.4475, -1
21.45, -2
21.4525, -1
21.455, -1
21.4575, -1
21.46, -1
21.4625, -1
21.465, 0
21.4675, -1
21.47, -1
21.4725, 5220
21.475, -1
21.4775, -2
21.48, -2
21.4825, -2
21.485, -1
21.4875, -1
21.49, 2947
21.4925, 6295
21.495, 6309
21.4975, 6299
21.5, 6298
21.5025, 6292
21.505, 6302
21.5075, 6297
21.51, 6297
21.5125, 6314
21.515, 6300
21.5175, 6297
21.52, 6297
21.5225, 6324
21.525, 6309
21.5275, 6304
21.53, 6314
21.5325, 6305
21.535, 6301
21.5375, 6298
21.54, 6305
21.5425, 6302
21.545, 6299
21.5475, 6311
21.55, 6301
21.5525, 6299
21.555, 6296
21.5575, 6311
21.56, 6303
21.5625, 6300
21.565, 6310
21.5675, 6301
21.57, 6298
21.5725, 6298
21.575, 6298
21.5775, -2
21.58, -1
21.5825, -2
21.585, -2
21.5875, 6294
21.59, 6292
21.5925, 6304
21.595, 6297
21.5975, 6298
21.6, 6644
21.6025, 6314
21.605, 6304
21.6075, 6302
21.61, 6302
21.6125, 6300
21.615, 6298
21.6175, 6643
21.62, 6307
21.6225, 6303
21.625, -2
21.6275, -2
21.63, -2
21.6325, -1
21.635, -1
21.6375, -2
21.64, -1
21.6425, -1
21.645, -2
21.6475, -1
21.65, -1
21.6525, -1
21.655, -2
21.6575, -2
21.66, -2
21.6625, 6309
21.665, 6304
21.6675, 6297
21.67, 6301
21.6725, 6297
21.675, 6297
21.6775, 6295
21.68, 6301
21.6825, 6300
21.685, 6297
21.6875, 6318
21.69, 6302
21.6925, 6299
21.695, 4185
21.6975, 6326
21.7, 6212
21.7025, 6305
21.705, 6305
21.7075, 6302
21.71, 6299
21.7125, 6298
21.715, 6299
21.7175, 6297
21.72, 6293
21.7225, 6317
21.725, 6300
21.7275, 6299
21.73, 6294
21.7325, 6304
21.735, 6298
21.7375, 6299
21.74, 6641
21.7425, 6337
21.745, 6315
21.7475, 6311
21.75, 6306
21.7525, 6306
21.755, 6302
21.7575, 6314
21.76, 6303
21.7625, 6301
21.765, 6300
21.7675, 6306
21.77, 6302
21.7725, 6298
21.775, 6311
21.7775, 6301
21.78, 6298
21.7825, 6297
21.785, 6303
21.7875, 6299
21.79, 6295
21.7925, 6297
21.795, 6295
21.7975, 6293
21.8, 6292
21.8025, 6299
21.805, 6296
21.8075, 6293
21.81, 6297
21.8125, 6292
21.815, 6294
21.8175, 6291
21.82, 6301
21.8225, -1
21.825, -1
21.8275, -1
21.83, -1
21.8325, -1
21.835, -2
21.8375, -2
21.84, -1
21.8425, -1
21.845, -1
21.8475, -1
21.85, -1
21.8525, 0
21.855, -1
21.8575, -2
21.86, -1
21.8625, -1
21.865, -1
21.8675, -1
21.87, -1
21.8725, -1
21.875, -1
21.8775, -2
21.88, -1
21.8825, -1
21.885, -1
21.8875, -2
21.89, -1
21.8925, -2
21.895, -1
21.8975, -1
21.9, -1
21.9025, -1
21.905, -1
21.9075, -1
21.91, -1
21.9125, -1
21.915, -2
21.9175, -1
21.92, -1
21.9225, -1
21.925, -2
21.9275, -2
21.93, -1
21.9325, -1
21.935, -2
21.9375, -2
21.94, -2
21.9425, -2
21.945, -2
21.9475, -2
21.95, -1
21.9525, -1
21.955, -2
21.9575, -2
21.96, -1
21.9625, -1
21.965, -2
21.9675, -2
21.97, -2
21.9725, -1
21.975, -2
21.9775, -1
21.98, -1
21.9825, -1
21.985, -1
21.9875, -2
21.99, -1
21.9925, -2
21.995, -1
21.9975, -1
22.0, -1
22.0025, -2
22.005, -2
22.0075, -1
22.01, -1
22.0125, -1
22.015, -2
22.0175, -2
22.02, -1
22.0225, -1
22.025, -1
22.0275, -1
22.03, -1
22.0325, -2
22.035, -2
22.0375, -1
22.04, -1
22.0425, -2
22.045, -2
22.0475, -2
22.05, -1
22.0525, -2
22.055, -1
22.0575, -1
22.06, -1
22.0625, -1
22.065, -2
22.0675, -2
22.07, -2
22.0725, -1
22.075, -2
22.0775, -1
22.08, -1
22.0825, -2
22.085, -1
22.0875, -2
22.09, -2
22.0925, -2
22.095, -2
22.0975, -2
22.1, -1
22.1025, -2
22.105, -2
22.1075, -1
22.11, -2
22.1125, -1
22.115, -1
22.1175, -1
22.12, -2
22.1225, -2
22.125, -2
22.1275, -1
22.13, -2
22.1325, -1
22.135, -1
22.1375, -2
22.14, -1
22.1425, -1
22.145, -2
22.1475, -1
22.15, -1
22.1525, -1
22.155, -1
22.1575, -1
22.16, -1
22.1625, -1
22.165, -1
22.1675, -1
22.17, -1
22.1725, -2
22.175, -1
22.1775, -1
22.18, -2
22.1825, -1
22.185, -1
22.1875, -2
22.19, -1
22.1925, -1
22.195, 0
22.1975, -2
22.2, -1
22.2025, -1
22.205, -1
22.2075, -1
22.21, -1
22.2125, -1
22.215, -1
22.2175, -1
22.22, -1
22.2225, -2
22.225, 22
22.2275, 15
22.23, -1
22.2325, 2116
22.235, 5112
22.2375, -2
22.24, 148
22.2425, -2
22.245, 2873
22.2475, -1
22.25, -1
22.2525, -1
22.255, -2
22.2575, 6301
22.26, -2
22.2625, -1
22.265, -2
22.2675, -1
22.27, -1
22.2725, -1
22.275, -2
22.2775, -2
22.28, -2
22.2825, -1
22.285, -2
22.2875, -1
22.29, -2
22.2925, -1
22.295, -1
22.2975, -2
22.3, -1
22.3025, -2
22.305, -1
22.3075, -2
22.31, -1
22.3125, -1
22.315, -2
22.3175, -1
22.32, -1
22.3225, -1
22.325, -2
22.3275, -1
22.33, -2
22.3325, -2
22.335, -2
22.3375, -1
22.34, -1
22.3425, -2
22.345, -1
22.3475, -1
22.35, 0
22.3525, -2
22.355, -2
22.3575, -2
22.36, -2
22.3625, -2
22.365, -1
22.3675, -2
22.37, -1
22.3725, -1
22.375, -1
22.3775, -2
22.38, -2
22.3825, -1
22.385, -2
22.3875, -1
22.39, -1
22.3925, -2
22.395, -1
22.3975, -1
22.4, -1
22.4025, -2
22.405, -1
22.4075, -2
22.41, -1
22.4125, -2
22.415, -2
22.4175, -1
22.42, -2
22.4225, -1
22.425, -1
22.4275, -1
22.43, -2
22.4325, -2
22.435, -1
22.4375, -2
22.44, -2
22.4425, 81
22.445, 6299
22.4475, 6296
22.45, 6303
22.4525, 6300
22.455, 6296
22.4575, 6300
22.46, 6297
22.4625, 6297
22.465, 6292
22.4675, 6313
22.47, 6304
22.4725, 6301
22.475, 6312
22.4775, 6303
22.48, 6299
22.4825, 6298
22.485, 6304
22.4875, 6300
22.49, 6297
22.4925, 6310
22.495, 6299
22.4975, 6298
22.5, 6296
22.5025, 6304
22.505, 6296
22.5075, 6299
22.51, 6308
22.5125, 6301
22.515, 6295
22.5175, 6297
22.52, 6301
22.5225, 6300
22.525, -1
22.5275, -1
22.53, -2
22.5325, -2
22.535, -2
22.5375, -1
22.54, -1
22.5425, -1
22.545, -2
22.5475, -2
22.55, -1
22.5525, -2
22.555, -2
22.5575, -2
22.56, -2
22.5625, -1
22.565, -1
22.5675, -2
22.57, -2
22.5725, -1
22.575, -2
22.5775, -2
22.58, 4443
22.5825, 6302
22.585, 6300
22.5875, 6296
22.59, 6314
22.5925, 6304
22.595, 6302
22.5975, 6301
22.6, 6301
22.6025, 6298
22.605, 6298
22.6075, 6301
22.61, 6299
22.6125, 6300
22.615, 6638
22.6175, 6307
22.62, 6303
22.6225, 6301
22.625, 6307
22.6275, 6301
22.63, 6301
22.6325, 6312
22.635, 6303
22.6375, 6301
22.64, 6299
22.6425, 6305
22.645, 6300
22.6475, 6299
22.65, 6311
22.6525, 6302
22.655, 6298
22.6575, 6298
22.66, 6311
22.6625, 6305
22.665, 6299
22.6675, 6313
22.67, 6302
22.6725, 6302
22.675, 6297
22.6775, 6306
22.68, 6299
22.6825, 6299
22.685, 6310
22.6875, 6302
22.69, 6300
22.6925, 6298
22.695, 6305
22.6975, 6300
22.7, 6297
22.7025, 6320
22.705, 6304
22.7075, 6301
22.71, 6297
22.7125, 6328
22.715, 6311
22.7175, 6306
22.72, 6309
22.7225, 6303
22.725, 6302
22.7275, 6299
22.73, 6305
22.7325, 6301
22.735, 6300
22.7375, 6299
22.74, 6299
22.7425, 6295
22.745, 6297
22.7475, 6310
22.75, 6304
22.7525, 6299
22.755, 6312
22.7575, 6302
22.76, 6300
22.7625, 6297
22.765, 6305
22.7675, 6302
22.77, 6299
22.7725, 6313
22.775, 6302
22.7775, 6299
22.78, 6298
22.7825, 6306
22.785, 6301
22.7875, 6298
22.79, 6311
22.7925, 6301
22.795, 6300
22.7975, 6297
22.8, 6305
22.8025, 6302
22.805, 6299
22.8075, 6639
22.81, 6313
22.8125, 6308
22.815, 6303
22.8175, 6310
22.82, 6302
22.8225, 6301
22.825, 6310
22.8275, 6304
22.83, 6300
22.8325, 6301
22.835, 6300
22.8375, 6300
22.84, 6298
22.8425, 6310
22.845, 6302
22.8475, 6299
22.85, 6299
22.8525, 6313
22.855, 6306
22.8575, 6302
22.86, 6314
22.8625, 6304
22.865, 6302
22.8675, 6299
22.87, 6305
22.8725, 6302
22.875, 6299
22.8775, 6311
22.88, 6303
22.8825, 6299
22.885, 6296
22.8875, 6303
22.89, 6301
22.8925, 6298
22.895, 6311
22.8975, 6300
22.9, 6300
22.9025, 6296
22.905, 6302
22.9075, 6299
22.91, 6299
22.9125, 6310
22.915, 6300
22.9175, 6298
22.92, 6296
22.9225, 6304
22.925, 6299
22.9275, 6300
22.93, 6310
22.9325, 6303
22.935, 6299
22.9375, 6298
22.94, 6313
22.9425, 4769
22.945, -2
22.9475, -2
22.95, -1
22.9525, -1
22.955, -2
22.9575, -1
22.96, -1
22.9625, -2
22.965, -1
22.9675, -1
22.97, -1
22.9725, -2
22.975, -2
22.9775, -2
22.98, -1
22.9825, -1
22.985, -1
22.9875, -1
22.99, -2
22.9925, -1
22.995, -1
22.9975, -2
23.0, -2
23.0025, -1
23.005, -1
23.0075, -1
23.01, -2
23.0125, -2
23.015, -1
23.0175, -2
23.02, -2
23.0225, -2
23.025, -1
23.0275, -2
23.03, -1
23.0325, -2
23.035, -1
23.0375, -1
23.04, -2
23.0425, -1
23.045, -1
23.0475, -1
23.05, -2
23.0525, -1
23.055, -2
23.0575, -1
23.06, -2
23.0625, -1
23.065, -1
23.0675, -2
23.07, -1
23.0725, -2
23.075, -2
23.0775, -2
23.08, 4490
23.0825, 6299
23.085, 6297
23.0875, 6310
23.09, 6300
23.0925, 6298
23.095, 6297
23.0975, 6304
23.1, 6299
23.1025, 6298
23.105, 6309
23.1075, 6301
23.11, 6296
23.1125, 6297
23.115, 6303
23.1175, 6299
23.12, 6294
23.1225, 6633
23.125, 6306
23.1275, 6302
23.13, 6296
23.1325, 6306
23.135, 6299
23.1375, 6300
23.14, 6303
23.1425, 6300
23.145, 6297
23.1475, 6297
23.15, 6301
23.1525, 6260
23.155, 442
23.1575, -1
23.16, -2
23.1625, -1
23.165, -2
23.1675, -2
23.17, -1
23.1725, -2
23.175, -2
23.1775, -2
23.18, -2
23.1825, -2
23.185, -1
23.1875, -2
23.19, -1
23.1925, -1
23.195, -2
23.1975, -1
23.2, -1
23.2025, -1
23.205, -2
23.2075, -1
23.21, -2
23.2125, -1
23.215, -2
23.2175, -1
23.22, -1
23.2225, -1
23.225, -1
23.2275, -2
23.23, -2
23.2325, -2
23.235, -1
23.2375, -1
23.24, -2
23.2425, -1
23.245, -2
23.2475, -1
23.25, -2
23.2525, -2
23.255, -2
23.2575, -1
23.26, -1
23.2625, -1
23.265, -2
23.2675, -2
23.27, -1
23.2725, -2
23.275, -1
23.2775, -1
23.28, -1
23.2825, -2
23.285, -1
23.2875, -2
23.29, -2
23.2925, 159
23.295, 6297
23.2975, 6310
23.3, 6301
23.3025, 6299
23.305, 6298
23.3075, 6304
23.31, 6300
23.3125, 6299
23.315, 6635
23.3175, 6308
23.32, 6304
23.3225, 6301
23.325, 6306
23.3275, 6303
23.33, 6300
23.3325, 6312
23.335, 6303
23.3375, 6300
23.34, 6298
23.3425, 6304
23.345, 6301
23.3475, 6298
23.35, 6310
23.3525, 6301
23.355, 6298
23.3575, 6297
23.36, 6304
23.3625, 6298
23.365, 6298
23.3675, 6308
23.37, 6302
23.3725, 6298
23.375, 6297
23.3775, 6299
23.38, 6299
23.3825, 6297
23.385, 6309
23.3875, 6301
23.39, 6299
23.3925, 6299
23.395, 6304
23.3975, 6300
23.4, 6298
23.4025, 6634
23.405, 6308
23.4075, 6304
23.41, 6300
23.4125, 6306
23.415, 6302
23.4175, 6300
23.42, 6311
23.4225, 6303
23.425, 6300
23.4275, 6297
23.43, 6303
23.4325, 6301
23.435, 6298
23.4375, 6303
23.44, 6298
23.4425, 6297
23.445, 6294
23.4475, 6307
23.45, 6301
23.4525, 6300
23.455, 6310
23.4575, 6301
23.46, 6299
23.4625, 6298
23.465, 6305
23.4675, 6299
23.47, 6300
23.4725, 6310
23.475, 6302
23.4775, 6300
23.48, 6298
23.4825, 6306
23.485, 6300
23.4875, 6299
23.49, 6310
23.4925, 6302
23.495, 6299
23.4975, 6297
23.5, 6299
23.5025, 6298
23.505, 6296
23.5075, 6307
23.51, 6299
23.5125, 6297
23.515, 6297
23.5175, 6301
23.52, 6299
23.5225, 6296
23.525, 6310
23.5275, 6300
23.53, 6299
23.5325, 6296
23.535, 6302
23.5375, 6298
23.54, 6295
23.5425, 6633
23.545, 6307
23.5475, 6303
23.55, 6297
23.5525, 6307
23.555, 6302
23.5575, 6299
23.56, 6311
23.5625, 6303
23.565, 6299
23.5675, 6298
23.57, 6302
23.5725, 6300
23.575, 6298
23.5775, 6298
23.58, 6298
23.5825, 6296
23.585, 6295
23.5875, 6303
23.59, 6299
23.5925, 6298
23.595, 6630
23.5975, 6315
23.6, 6305
23.6025, 6304
23.605, 6307
23.6075, 6305
23.61, 6300
23.6125, 6313
23.615, 6303
23.6175, 6301
23.62, 6301
23.6225, 6298
23.625, 6300
23.6275, 6296
23.63, 6310
23.6325, 6299
23.635, 6299
23.6375, 6298
23.64, 6313
23.6425, 6303
23.645, 6302
23.6475, 6312
23.65, 6303
23.6525, 6298
23.655, -2
23.6575, -1
23.66, -2
23.6625, -1
23.665, -1
23.6675, -1
23.67, 6299
23.6725, 2557
23.675, -2
23.6775, -1
23.68, 125
23.6825, 6307
23.685, 6301
23.6875, 6297
23.69, 6296
23.6925, 6303
23.695, 6296
23.6975, -2
23.7, -1
23.7025, -1
23.705, -1
23.7075, -2
23.71, -2
23.7125, -1
23.715, -2
23.7175, -2
23.72, -2
23.7225, -1
23.725, -2
23.7275, -1
23.73, -2
23.7325, -1
23.735, -1
23.7375, -2
23.74, -1
23.7425, -1
23.745, -1
23.7475, -2
23.75, -1
23.7525, -1
23.755, -1
23.7575, -2
23.76, -1
23.7625, -1
23.765, -2
23.7675, -1
23.77, -2
23.7725, -1
23.775, -2
23.7775, -1
23.78, -1
23.7825, -1
23.785, -2
23.7875, -2
23.79, -1
23.7925, -2
23.795, -1
23.7975, -2
23.8, -2
23.8025, -2
23.805, -2
23.8075, -2
23.81, -2
23.8125, -1
23.815, -2
23.8175, -1
23.82, -1
23.8225, -1
23.825, -2
23.8275, -1
23.83, -2
23.8325, 5332
23.835, 130
23.8375, -1
23.84, -1
23.8425, -1
23.845, -1
23.8475, -1
23.85, -1
23.8525, -2
23.855, -1
23.8575, -1
23.86, -1
23.8625, -2
23.865, -2
23.8675, -1
23.87, -1
23.8725, -2
23.875, -2
23.8775, -2
23.88, -2
23.8825, -2
23.885, -2
23.8875, -1
23.89, -1
23.8925, -2
23.895, -1
23.8975, -1
23.9, -1
23.9025, -2
23.905, -1
23.9075, 6301
23.91, -1
23.9125, -2
23.915, -1
23.9175, -1
23.92, -1
23.9225, -1
23.925, -2
23.9275, -1
23.93, -2
23.9325, -1
23.935, -2
23.9375, -1
23.94, -1
23.9425, -2
23.945, -1
23.9475, -2
23.95, -2
23.9525, -2
23.955, -2
23.9575, -2
23.96, -2
23.9625, -2
23.965, -1
23.9675, -1
23.97, -2
23.9725, -1
23.975, -1
23.9775, -1
23.98, -2
23.9825, -1
23.985, -2
23.9875, -1
23.99, -1
23.9925, -1
23.995, -1
23.9975, -1
24.0, -1
24.0025, -2
24.005, -1
24.0075, -2
24.01, -1
24.0125, -1
24.015, -1
24.0175, -2
24.02, -2
24.0225, -1
24.025, -1
24.0275, -2
24.03, -2
24.0325, -2
24.035, -2
24.0375, -1
24.04, -2
24.0425, -1
24.045, -1
24.0475, -2
24.05, -2
24.0525, -1
24.055, -1
24.0575, -2
24.06, -2
24.0625, -2
24.065, -1
24.0675, -1
24.07, -1
24.0725, -1
24.075, -1
24.0775, -1
24.08, -1
24.0825, -2
24.085, -2
24.0875, -1
24.09, -1
24.0925, -2
24.095, -2
24.0975, -1
24.1, -1
24.1025, -1
24.105, -2
24.1075, -2
24.11, -1
24.1125, -2
24.115, -1
24.1175, -2
24.12, -1
24.1225, -1
24.125, -2
24.1275, -1
24.13, -1
24.1325, -1
24.135, -2
24.1375, -1
24.14, -1
24.1425, -2
24.145, -1
24.1475, -1
24.15, -1
24.1525, -1
24.155, -1
24.1575, -1
24.16, -1
24.1625, -2
24.165, -1
24.1675, -1
24.17, -2
24.1725, -1
24.175, -2
24.1775, -1
24.18, -1
24.1825, -2
24.185, -2
24.1875, -2
24.19, -1
24.1925, -2
24.195, -2
24.1975, -1
24.2, -1
24.2025, -2
24.205, -1
24.2075, -1
24.21, -1
24.2125, -2
24.215, -1
24.2175, -2
24.22, -1
24.2225, -2
24.225, -1
24.2275, -1
24.23, -1
24.2325, -1
24.235, -1
24.2375, -1
24.24, -2
24.2425, -1
24.245, -2
24.2475, -1
24.25, -2
24.2525, -2
24.255, -1
24.2575, -2
24.26, -1
24.2625, -2
24.265, -2
24.2675, -2
24.27, -1
24.2725, -2
24.275, -1
24.2775, -1
24.28, -2
24.2825, -2
24.285, -1
24.2875, -1
24.29, -2
24.2925, -2
24.295, -2
24.2975, -1
24.3, -2
24.3025, -1
24.305, -2
24.3075, -2
24.31, -1
24.3125, -2
24.315, -1
24.3175, -2
24.32, -1
24.3225, -1
24.325, -1
24.3275, -2
24.33, -2
24.3325, -1
24.335, -2
24.3375, -1
24.34, -2
24.3425, -2
24.345, -1
24.3475, -1
24.35, -2
24.3525, -1
24.355, -1
24.3575, -2
24.36, -1
24.3625, -1
24.365, -1
24.3675, -2
24.37, -2
24.3725, -2
24.375, -2
24.3775, -2
24.38, -1
24.3825, -1
24.385, -1
24.3875, -1
24.39, -2
24.3925, -1
24.395, -2
24.3975, -1
24.4, -1
24.4025, -1
24.405, -2
24.4075, -2
24.41, -1
24.4125, -1
24.415, -2
24.4175, -2
24.42, -2
24.4225, -2
24.425, -2
24.4275, -2
24.43, -1
24.4325, -1
24.435, -1
24.4375, -1
24.44, -1
24.4425, -1
24.445, -2
24.4475, -2
24.45, -1
24.4525, -1
24.455, -2
24.4575, -1
24.46, -1
24.4625, -1
24.465, -1
24.4675, -2
24.47, -1
24.4725, -2
24.475, -1
24.4775, -1
24.48, -1
24.4825, -2
24.485, -2
24.4875, -1
24.49, -1
24.4925, -1
24.495, -2
24.4975, -1
24.5, -2
24.5025, -2
24.505, -2
24.5075, -1
24.51, -1
24.5125, -2
24.515, -1
24.5175, -1
24.52, -1
24.5225, -2
24.525, -2
24.5275, -2
24.53, -1
24.5325, -2
24.535, -1
24.5375, -2
24.54, -2
24.5425, -1
24.545, -2
24.5475, -2
