0.0025, 2950
0.005, 2951
0.0075, 2952
0.01, 2944
0.0125, 2953
0.015, 2963
0.0175, 3095
0.02, 2965
0.0225, 2965
0.025, 2968
0.0275, 2973
0.03, 2973
0.0325, 2992
0.035, 3126
0.0375, 2992
0.04, 2996
0.0425, 2999
0.045, 2996
0.0475, 2991
0.05, 2985
0.0525, 3112
0.055, 2985
0.0575, 2989
0.06, 2988
0.0625, 2976
0.065, 2973
0.0675, 2966
0.07, 3104
0.0725, 2979
0.075, 2984
0.0775, 2981
0.08, 2998
0.0825, 2992
0.085, 2996
0.0875, 3133
0.09, 2995
0.0925, 2998
0.095, 2993
0.0975, 3000
0.1, 3002
0.1025, 2996
0.105, 3117
0.1075, 2997
0.11, 3001
0.1125, 2992
0.115, 3000
0.1175, 2988
0.12, 2977
0.1225, 3101
0.125, 2968
0.1275, 2957
0.13, 2941
0.1325, 2964
0.135, 2954
0.1375, 2948
0.14, 3086
0.1425, 2963
0.145, 2960
0.1475, 2953
0.15, 2959
0.1525, 2950
0.155, 2941
0.1575, 3066
0.16, 2928
0.1625, 2930
0.165, 2922
0.1675, 2936
0.17, 2935
0.1725, 2928
0.175, 3047
0.1775, 2931
0.18, 2919
0.1825, 2895
0.185, 2890
0.1875, 2880
0.19, 2880
0.1925, 3034
0.195, 2949
0.1975, 3016
0.2, 3105
0.2025, 3230
0.205, 3308
0.2075, 3363
0.21, 3615
0.2125, 3574
0.215, 3600
0.2175, 3580
0.22, 3477
0.2225, 3369
0.225, 3274
0.2275, 3261
0.23, 2985
0.2325, 2919
0.235, 2888
0.2375, 2853
0.24, 2835
0.2425, 2839
0.245, 3004
0.2475, 2921
0.25, 2940
0.2525, 2983
0.255, 3039
0.2575, 3037
0.26, 3034
0.2625, 3157
0.265, 3030
0.2675, 3030
0.27, 3042
0.2725, 3059
0.275, 3055
0.2775, 3053
0.28, 3182
0.2825, 3062
0.285, 3065
0.2875, 3083
0.29, 3130
0.2925, 3130
0.295, 3115
0.2975, 3259
0.3, 3125
0.3025, 3121
0.305, 3126
0.3075, 3134
0.31, 3148
0.3125, 3157
0.315, 3304
0.3175, 3172
0.32, 3167
0.3225, 3162
0.325, 3189
0.3275, 3193
0.33, 3207
0.3325, 3336
0.335, 3205
0.3375, 3199
0.34, 3198
0.3425, 3216
0.345, 3228
0.3475, 3236
0.35, 3384
0.3525, 3264
0.355, 3267
0.3575, 3265
0.36, 3290
0.3625, 3281
0.365, 3284
0.3675, 3448
0.37, 3324
0.3725, 3316
0.375, 3326
0.3775, 3340
0.38, 3340
0.3825, 3336
0.385, 3497
0.3875, 3373
0.39, 3383
0.3925, 3380
0.395, 3385
0.3975, 3388
0.4, 3370
0.4025, 3519
0.405, 3386
0.4075, 3387
0.41, 3382
0.4125, 3406
0.415, 3380
0.4175, 3368
0.42, 3520
0.4225, 3356
0.425, 3340
0.4275, 3348
0.43, 3350
0.4325, 3331
0.435, 3316
0.4375, 3434
0.44, 3289
0.4425, 3266
0.445, 3264
0.4475, 3274
0.45, 3250
0.4525, 3236
0.455, 3338
0.4575, 3187
0.46, 3182
0.4625, 3167
0.465, 3183
0.4675, 3183
0.47, 3173
0.4725, 3304
0.475, 3160
0.4775, 3155
0.48, 3144
0.4825, 3158
0.485, 3159
0.4875, 3166
0.49, 3304
0.4925, 3171
0.495, 3163
0.4975, 3160
0.5, 3191
0.5025, 3192
0.505, 3197
0.5075, 3343
0.51, 3223
0.5125, 3212
0.515, 3214
0.5175, 3223
0.52, 3221
0.5225, 3239
0.525, 3397
0.5275, 3271
0.53, 3276
0.5325, 3271
0.535, 3288
0.5375, 3293
0.54, 3299
0.5425, 3450
0.545, 3318
0.5475, 3316
0.55, 3313
0.5525, 3329
0.555, 3322
0.5575, 3319
0.56, 3464
0.5625, 3337
0.565, 3340
0.5675, 3339
0.57, 3371
0.5725, 3374
0.575, 3359
0.5775, 3496
0.58, 3364
0.5825, 3370
0.585, 3361
0.5875, 3376
0.59, 3374
0.5925, 3368
0.595, 3508
0.5975, 3365
0.6, 3358
0.6025, 3350
0.605, 3361
0.6075, 3346
0.61, 3349
0.6125, 3481
0.615, 3338
0.6175, 3330
0.62, 3336
0.6225, 3352
0.625, 3346
0.6275, 3345
0.63, 3490
0.6325, 3352
0.635, 3363
0.6375, 3384
0.64, 3401
0.6425, 3388
0.645, 3385
0.6475, 3549
0.65, 3400
0.6525, 3389
0.655, 3390
0.6575, 3399
0.66, 3389
0.6625, 3385
0.665, 3531
0.6675, 3394
0.67, 3380
0.6725, 3381
0.675, 3395
0.6775, 3394
0.68, 3389
0.6825, 3536
0.685, 3397
0.6875, 3396
0.69, 3391
0.6925, 3399
0.695, 3395
0.6975, 3390
0.7, 3543
0.7025, 3393
0.705, 3374
0.7075, 3383
0.71, 3391
0.7125, 3390
0.715, 3385
0.7175, 3531
0.72, 3396
0.7225, 3388
0.725, 3387
0.7275, 3406
0.73, 3404
0.7325, 3392
0.735, 3547
0.7375, 3413
0.74, 3416
0.7425, 3413
0.745, 3419
0.7475, 3405
0.75, 3393
0.7525, 3524
0.755, 3387
0.7575, 3377
0.76, 3380
0.7625, 3400
0.765, 3379
0.7675, 3369
0.77, 3524
0.7725, 3371
0.775, 3368
0.7775, 3372
0.78, 3389
0.7825, 3377
0.785, 3365
0.7875, 3513
0.79, 3370
0.7925, 3359
0.795, 3360
0.7975, 3368
0.8, 3356
0.8025, 3353
0.805, 3505
0.8075, 3349
0.81, 3339
0.8125, 3329
0.815, 3340
0.8175, 3333
0.82, 3334
0.8225, 3477
0.825, 3323
0.8275, 3313
0.83, 3298
0.8325, 3308
0.835, 3294
0.8375, 3290
0.84, 3438
0.8425, 3281
0.845, 3264
0.8475, 3271
0.85, 3281
0.8525, 3279
0.855, 3273
0.8575, 3400
0.86, 3250
0.8625, 3249
0.865, 3238
0.8675, 3259
0.87, 3244
0.8725, 3229
0.875, 3370
0.8775, 3234
0.88, 3227
0.8825, 3213
0.885, 3217
0.8875, 3203
0.89, 3200
0.8925, 3343
0.895, 3211
0.8975, 3200
0.9, 3180
0.9025, 3196
0.905, 3173
0.9075, 3162
0.91, 3302
0.9125, 3186
0.915, 3190
0.9175, 3186
0.92, 3183
0.9225, 3172
0.925, 3158
0.9275, 3292
0.93, 3170
0.9325, 3172
0.935, 3161
0.9375, 3169
0.94, 3148
0.9425, 3122
0.945, 3259
0.9475, 3133
0.95, 3142
0.9525, 3146
0.955, 3155
0.9575, 3158
0.96, 3137
0.9625, 3288
0.965, 3149
0.9675, 3151
0.97, 3143
0.9725, 3160
0.975, 3150
0.9775, 3144
0.98, 3274
0.9825, 3133
0.985, 3126
0.9875, 3124
0.99, 3113
0.9925, 3111
0.995, 3110
0.9975, 3244
1.0, 3107
1.0025, 3087
1.005, 3079
1.0075, 3082
1.01, 3074
1.0125, 3082
1.015, 3227
1.0175, 3090
1.02, 3085
1.0225, 3082
1.025, 3089
1.0275, 3087
1.03, 3080
1.0325, 3224
1.035, 3100
1.0375, 3078
1.04, 3072
1.0425, 3089
1.045, 3080
1.0475, 3083
1.05, 3205
1.0525, 3062
1.055, 3045
1.0575, 3028
1.06, 3044
1.0625, 3054
1.065, 3074
1.0675, 3276
1.07, 3234
1.0725, 3346
1.075, 3443
1.0775, 3505
1.08, 3564
1.0825, 3650
1.085, 3870
1.0875, 3728
1.09, 3646
1.0925, 3524
1.095, 3437
1.0975, 3254
1.1, 3086
1.1025, 3108
1.105, 2956
1.1075, 2936
1.11, 2919
1.1125, 2925
1.115, 2952
1.1175, 2969
1.12, 3133
1.1225, 3034
1.125, 3052
1.1275, 3069
1.13, 3095
1.1325, 3085
1.135, 3075
1.1375, 3218
1.14, 3080
1.1425, 3073
1.145, 3081
1.1475, 3100
1.15, 3085
1.1525, 3087
1.155, 3224
1.1575, 3092
1.16, 3096
1.1625, 3083
1.165, 3094
1.1675, 3096
1.17, 3104
1.1725, 3247
1.175, 3123
1.1775, 3109
1.18, 3107
1.1825, 3121
1.185, 3124
1.1875, 3133
1.19, 3274
1.1925, 3137
1.195, 3132
1.1975, 3132
1.2, 3150
1.2025, 3136
1.205, 3149
1.2075, 3292
1.21, 3168
1.2125, 3156
1.215, 3156
1.2175, 3173
1.22, 3169
1.2225, 3170
1.225, 3292
1.2275, 3180
1.23, 3182
1.2325, 3193
1.235, 3220
1.2375, 3202
1.24, 3197
1.2425, 3346
1.245, 3219
1.2475, 3219
1.25, 3225
1.2525, 3235
1.255, 3232
1.2575, 3218
1.26, 3372
1.2625, 3248
1.265, 3240
1.2675, 3231
1.27, 3244
1.2725, 3240
1.275, 3222
1.2775, 3337
1.28, 3203
1.2825, 3194
1.285, 3181
1.2875, 3199
1.29, 3184
1.2925, 3172
1.295, 3299
1.2975, 3146
1.3, 3132
1.3025, 3113
1.305, 3127
1.3075, 3101
1.31, 3074
1.3125, 3194
1.315, 3049
1.3175, 3035
1.32, 3019
1.3225, 3012
1.325, 3002
1.3275, 2986
1.33, 3108
1.3325, 2968
1.335, 2940
1.3375, 2934
1.34, 2938
1.3425, 2918
1.345, 2912
1.3475, 3039
1.35, 2922
1.3525, 2900
1.355, 2897
1.3575, 2907
1.36, 2904
1.3625, 2906
1.365, 3026
1.3675, 2903
1.37, 2905
1.3725, 2911
1.375, 2913
1.3775, 2908
1.38, 2905
1.3825, 3039
1.385, 2927
1.3875, 2915
1.39, 2914
1.3925, 2933
1.395, 2926
1.3975, 2931
1.4, 3057
1.4025, 2946
1.405, 2943
1.4075, 2949
1.41, 2956
1.4125, 2953
1.415, 2964
1.4175, 3100
1.42, 2983
1.4225, 2989
1.425, 2990
1.4275, 2998
1.43, 2985
1.4325, 2987
1.435, 3117
1.4375, 3004
1.44, 3006
1.4425, 3009
1.445, 3020
1.4475, 3006
1.45, 3003
1.4525, 3143
1.455, 3019
1.4575, 3014
1.46, 3023
1.4625, 3029
1.465, 3012
1.4675, 3011
1.47, 3150
1.4725, 3016
1.475, 3006
1.4775, 3016
1.48, 3038
1.4825, 3027
1.485, 3018
1.4875, 3149
1.49, 3035
1.4925, 3028
1.495, 3036
1.4975, 3061
1.5, 3051
1.5025, 3047
1.505, 3170
1.5075, 3042
1.51, 3059
1.5125, 3058
1.515, 3071
1.5175, 3074
1.52, 3072
1.5225, 3193
1.525, 3074
1.5275, 3062
1.53, 3068
1.5325, 3072
1.535, 3079
1.5375, 3068
1.54, 3205
1.5425, 3082
1.545, 3071
1.5475, 3069
1.55, 3076
1.5525, 3076
1.555, 3076
1.5575, 3215
1.56, 3087
1.5625, 3091
1.565, 3079
1.5675, 3080
1.57, 3080
1.5725, 3072
1.575, 3228
1.5775, 3095
1.58, 3092
1.5825, 3086
1.585, 3087
1.5875, 3078
1.59, 3076
1.5925, 3223
1.595, 3092
1.5975, 3097
1.6, 3091
1.6025, 3111
1.605, 3093
1.6075, 3085
1.61, 3224
1.6125, 3089
1.615, 3095
1.6175, 3098
1.62, 3112
1.6225, 3101
1.625, 3088
1.6275, 3211
1.63, 3098
1.6325, 3089
1.635, 3094
1.6375, 3106
1.64, 3103
1.6425, 3092
1.645, 3205
1.6475, 3075
1.65, 3080
1.6525, 3078
1.655, 3104
1.6575, 3093
1.66, 3087
1.6625, 3219
1.665, 3077
1.6675, 3068
1.67, 3070
1.6725, 3094
1.675, 3088
1.6775, 3087
1.68, 3211
1.6825, 3077
1.685, 3065
1.6875, 3062
1.69, 3076
1.6925, 3070
1.695, 3078
1.6975, 3203
1.7, 3063
1.7025, 3054
1.705, 3043
1.7075, 3060
1.71, 3064
1.7125, 3062
1.715, 3200
1.7175, 3071
1.72, 3069
1.7225, 3053
1.725, 3071
1.7275, 3049
1.73, 3064
1.7325, 3201
1.735, 3080
1.7375, 3075
1.74, 3067
1.7425, 3070
1.745, 3059
1.7475, 3048
1.75, 3189
1.7525, 3064
1.755, 3075
1.7575, 3079
1.76, 3068
1.7625, 3060
1.765, 3052
1.7675, 3182
1.77, 3056
1.7725, 3057
1.775, 3050
1.7775, 3059
1.78, 3039
1.7825, 3037
1.785, 3166
1.7875, 3040
1.79, 3040
1.7925, 3042
1.795, 3064
1.7975, 3051
1.8, 3031
1.8025, 3153
1.805, 3028
1.8075, 3025
1.81, 3030
1.8125, 3051
1.815, 3031
1.8175, 3031
1.82, 3156
1.8225, 3036
1.825, 3035
1.8275, 3029
1.83, 3063
1.8325, 3060
1.835, 3048
1.8375, 3175
1.84, 3046
1.8425, 3032
1.845, 3029
1.8475, 3049
1.85, 3039
1.8525, 3044
1.855, 3179
1.8575, 3040
1.86, 3037
1.8625, 3027
1.865, 3052
1.8675, 3043
1.87, 3060
1.8725, 3203
1.875, 3069
1.8775, 3051
1.88, 3053
1.8825, 3062
1.885, 3054
1.8875, 3053
1.89, 3197
1.8925, 3085
1.895, 3071
1.8975, 3075
1.9, 3083
1.9025, 3080
1.905, 3078
1.9075, 3206
1.91, 3096
1.9125, 3100
1.915, 3102
1.9175, 3108
1.92, 3089
1.9225, 3115
1.925, 3251
1.9275, 3124
1.93, 3133
1.9325, 3126
1.935, 3151
1.9375, 3134
1.94, 3139
1.9425, 3290
1.945, 3167
1.9475, 3163
1.95, 3187
1.9525, 3201
1.955, 3198
1.9575, 3208
1.96, 3343
1.9625, 3219
1.965, 3208
1.9675, 3182
1.97, 3192
1.9725, 3167
1.975, 3153
1.9775, 3278
1.98, 3167
1.9825, 3189
1.985, 3247
1.9875, 3348
1.99, 3455
1.9925, 3524
1.995, 3733
1.9975, 3669
2.0, 3742
2.0025, 3784
2.005, 3775
2.0075, 3676
2.01, 3546
2.0125, 3590
2.015, 3289
2.0175, 3116
2.02, 3043
2.0225, 3011
2.025, 2964
2.0275, 2949
2.03, 3085
2.0325, 2987
2.035, 3012
2.0375, 3040
2.04, 3085
2.0425, 3098
2.045, 3090
2.0475, 3230
2.05, 3112
2.0525, 3097
2.055, 3083
2.0575, 3091
2.06, 3081
2.0625, 3087
2.065, 3209
2.0675, 3089
2.07, 3080
2.0725, 3079
2.075, 3089
2.0775, 3065
2.08, 3068
2.0825, 3208
2.085, 3087
2.0875, 3088
2.09, 3081
2.0925, 3088
2.095, 3091
2.0975, 3086
2.1, 3224
2.1025, 3089
2.105, 3073
2.1075, 3078
2.11, 3090
2.1125, 3078
2.115, 3072
2.1175, 3205
2.12, 3077
2.1225, 3079
2.125, 3081
2.1275, 3082
2.13, 3082
2.1325, 3076
2.135, 3203
2.1375, 3075
2.14, 3077
2.1425, 3083
2.145, 3095
2.1475, 3082
2.15, 3091
2.1525, 3217
2.155, 3094
2.1575, 3093
2.16, 3094
2.1625, 3109
2.165, 3109
2.1675, 3116
2.17, 3244
2.1725, 3122
2.175, 3119
2.1775, 3119
2.18, 3133
2.1825, 3130
2.185, 3121
2.1875, 3247
2.19, 3116
2.1925, 3099
2.195, 3105
2.1975, 3129
2.2, 3120
2.2025, 3106
2.205, 3238
2.2075, 3097
2.21, 3079
2.2125, 3064
2.215, 3062
2.2175, 3050
2.22, 3029
2.2225, 3146
2.225, 3008
2.2275, 2987
2.23, 2959
2.2325, 2960
2.235, 2934
2.2375, 2934
2.24, 3054
2.2425, 2925
2.245, 2895
2.2475, 2867
2.25, 2867
2.2525, 2848
2.255, 2848
2.2575, 2959
2.26, 2848
2.2625, 2844
2.265, 2832
2.2675, 2833
2.27, 2820
2.2725, 2813
2.275, 2920
2.2775, 2811
2.28, 2815
2.2825, 2816
2.285, 2818
2.2875, 2802
2.29, 2797
2.2925, 2921
2.295, 2808
2.2975, 2810
2.3, 2826
2.3025, 2829
2.305, 2826
2.3075, 2810
2.31, 2936
2.3125, 2840
2.315, 2846
2.3175, 2849
2.32, 2870
2.3225, 2855
2.325, 2846
2.3275, 2972
2.33, 2860
2.3325, 2860
2.335, 2869
2.3375, 2891
2.34, 2879
2.3425, 2874
2.345, 2992
2.3475, 2878
2.35, 2871
2.3525, 2868
2.355, 2894
2.3575, 2881
2.36, 2878
2.3625, 2997
2.365, 2885
2.3675, 2870
2.37, 2872
2.3725, 2898
2.375, 2897
2.3775, 2912
2.38, 3036
2.3825, 2907
2.385, 2907
2.3875, 2897
2.39, 2916
2.3925, 2908
2.395, 2908
2.3975, 3037
2.4, 2921
2.4025, 2908
2.405, 2901
2.4075, 2913
2.41, 2900
2.4125, 2905
2.415, 3031
2.4175, 2927
2.42, 2919
2.4225, 2917
2.425, 2929
2.4275, 2907
2.43, 2917
2.4325, 3050
2.435, 2940
2.4375, 2930
2.44, 2925
2.4425, 2929
2.445, 2914
2.4475, 2910
2.45, 3039
2.4525, 2944
2.455, 2938
2.4575, 2941
2.46, 2950
2.4625, 2940
2.465, 2933
2.4675, 3060
2.47, 2950
2.4725, 2942
2.475, 2954
2.4775, 2964
2.48, 2960
2.4825, 2951
2.485, 3073
2.4875, 2952
2.49, 2944
2.4925, 2952
2.495, 2976
2.4975, 2962
2.5, 2966
2.5025, 3086
2.505, 2945
2.5075, 2952
2.51, 2960
2.5125, 2973
2.515, 2973
2.5175, 2961
2.52, 3085
2.5225, 2969
2.525, 2950
2.5275, 2950
2.53, 2970
2.5325, 2970
2.535, 2958
2.5375, 3080
2.54, 2970
2.5425, 2961
2.545, 2959
2.5475, 2971
2.55, 2978
2.5525, 2979
2.555, 3102
2.5575, 2985
2.56, 2983
2.5625, 2983
2.565, 2995
2.5675, 2984
2.57, 2980
2.5725, 3117
2.575, 2999
2.5775, 2991
2.58, 2992
2.5825, 2996
2.585, 2987
2.5875, 2988
2.59, 3124
2.5925, 3007
2.595, 2995
2.5975, 2991
2.6, 2988
2.6025, 2987
2.605, 2993
2.6075, 3117
2.61, 3004
2.6125, 3007
2.615, 2994
2.6175, 3016
2.62, 3006
2.6225, 2986
2.625, 3120
2.6275, 3015
2.63, 3011
2.6325, 3016
2.635, 3022
2.6375, 3010
2.64, 2995
2.6425, 3116
2.645, 2996
2.6475, 3000
2.65, 2983
2.6525, 3006
2.655, 3009
2.6575, 3004
2.66, 3122
2.6625, 2993
2.665, 2989
2.6675, 2991
2.67, 3012
2.6725, 2994
2.675, 2976
2.6775, 3101
2.68, 2978
2.6825, 2983
2.685, 2996
2.6875, 3017
2.69, 3009
2.6925, 3006
2.695, 3126
2.6975, 2997
2.7, 3001
2.7025, 2995
2.705, 3000
2.7075, 2995
2.71, 3001
2.7125, 3124
2.715, 2995
2.7175, 2979
2.72, 2988
2.7225, 2995
2.725, 3002
2.7275, 2996
2.73, 3127
2.7325, 3011
2.735, 2993
2.7375, 2986
2.74, 3001
2.7425, 2991
2.745, 2985
2.7475, 3112
2.75, 3003
2.7525, 2995
2.755, 2990
2.7575, 3002
2.76, 2998
2.7625, 2978
2.765, 3111
2.7675, 2988
2.77, 2985
2.7725, 2971
2.775, 2979
2.7775, 2981
2.78, 2980
2.7825, 3099
2.785, 2991
2.7875, 2979
2.79, 2969
2.7925, 2972
2.795, 2969
2.7975, 2960
2.8, 3089
2.8025, 2976
2.805, 2979
2.8075, 2980
2.81, 3009
2.8125, 2992
2.815, 2979
2.8175, 3103
2.82, 2996
2.8225, 2991
2.825, 2991
2.8275, 3007
2.83, 2997
2.8325, 3000
2.835, 3118
2.8375, 3001
2.84, 3005
2.8425, 2987
2.845, 3012
2.8475, 3005
2.85, 2986
2.8525, 3114
2.855, 2972
2.8575, 2980
2.86, 2984
2.8625, 2997
2.865, 2987
2.8675, 2986
2.87, 3108
2.8725, 2975
2.875, 2965
2.8775, 2966
2.88, 2975
2.8825, 2978
2.885, 2966
2.8875, 3095
2.89, 2968
2.8925, 2950
2.895, 2963
2.8975, 2973
2.9, 2967
2.9025, 2955
2.905, 3072
2.9075, 2947
2.91, 2930
2.9125, 2908
2.915, 2900
2.9175, 2912
2.92, 2948
2.9225, 3133
2.925, 3083
2.9275, 3185
2.93, 3295
2.9325, 3359
2.935, 3413
2.9375, 3529
2.94, 3745
2.9425, 3609
2.945, 3529
2.9475, 3395
2.95, 3292
2.9525, 3143
2.955, 2992
2.9575, 3011
2.96, 2863
2.9625, 2825
2.965, 2798
2.9675, 2799
2.97, 2812
2.9725, 2828
2.975, 2989
2.9775, 2911
2.98, 2924
2.9825, 2936
2.985, 2962
2.9875, 2962
2.99, 2944
2.9925, 3079
2.995, 2956
2.9975, 2951
3.0, 2960
3.0025, 2963
3.005, 2957
3.0075, 2952
3.01, 3073
3.0125, 2963
3.015, 2969
3.0175, 2950
3.02, 2976
3.0225, 2975
3.025, 2967
3.0275, 3087
3.03, 2965
3.0325, 2955
3.035, 2968
3.0375, 2978
3.04, 2984
3.0425, 2978
3.045, 3111
3.0475, 2987
3.05, 2980
3.0525, 2971
3.055, 2993
3.0575, 2994
3.06, 3004
3.0625, 3125
3.065, 3015
3.0675, 2996
3.07, 2994
3.0725, 3009
3.075, 3012
3.0775, 3010
3.08, 3156
3.0825, 3040
3.085, 3030
3.0875, 3018
3.09, 3028
3.0925, 3032
3.095, 3039
3.0975, 3187
3.1, 3081
3.1025, 3076
3.105, 3066
3.1075, 3075
3.11, 3059
3.1125, 3059
3.115, 3206
3.1175, 3100
3.12, 3098
3.1225, 3096
3.125, 3085
3.1275, 3069
3.13, 3068
3.1325, 3193
3.135, 3071
3.1375, 3083
3.14, 3077
3.1425, 3072
3.145, 3052
3.1475, 3021
3.15, 3140
3.1525, 3020
3.155, 3004
3.1575, 3001
3.16, 3004
3.1625, 2983
3.165, 2971
3.1675, 3066
3.17, 2935
3.1725, 2925
3.175, 2920
3.1775, 2929
3.18, 2901
3.1825, 2887
3.185, 2984
3.1875, 2856
3.19, 2842
3.1925, 2843
3.195, 2847
3.1975, 2842
3.2, 2836
3.2025, 2950
3.205, 2828
3.2075, 2807
3.21, 2803
3.2125, 2802
3.215, 2805
3.2175, 2806
3.22, 2939
3.2225, 2813
3.225, 2810
3.2275, 2801
3.23, 2821
3.2325, 2823
3.235, 2826
3.2375, 2952
3.24, 2852
3.2425, 2838
3.245, 2838
3.2475, 2851
3.25, 2842
3.2525, 2843
3.255, 2990
3.2575, 2881
3.26, 2867
3.2625, 2866
3.265, 2885
3.2675, 2887
3.27, 2884
3.2725, 3007
3.275, 2900
3.2775, 2909
3.28, 2904
3.2825, 2906
3.285, 2904
3.2875, 2898
3.29, 3025
3.2925, 2917
3.295, 2930
3.2975, 2926
3.3, 2928
3.3025, 2901
3.305, 2901
3.3075, 3011
3.31, 2914
3.3125, 2912
3.315, 2924
3.3175, 2938
3.32, 2942
3.3225, 2918
3.325, 3030
3.3275, 2912
3.33, 2917
3.3325, 2918
3.335, 2934
3.3375, 2922
3.34, 2927
3.3425, 3033
3.345, 2921
3.3475, 2931
3.35, 2922
3.3525, 2935
3.355, 2938
3.3575, 2932
3.36, 3061
3.3625, 2945
3.365, 2930
3.3675, 2933
3.37, 2940
3.3725, 2937
3.375, 2939
3.3775, 3060
3.38, 2945
3.3825, 2943
3.385, 2941
3.3875, 2960
3.39, 2964
3.3925, 2955
3.395, 3081
3.3975, 2971
3.4, 2951
3.4025, 2955
3.405, 2977
3.4075, 2971
3.41, 2966
3.4125, 3085
3.415, 2976
3.4175, 2960
3.42, 2957
3.4225, 2970
3.425, 2970
3.4275, 2964
3.43, 3081
3.4325, 2969
3.435, 2965
3.4375, 2960
3.44, 2973
3.4425, 2963
3.445, 2957
3.4475, 3081
3.45, 2967
3.4525, 2964
3.455, 2963
3.4575, 2979
3.46, 2972
3.4625, 2963
3.465, 3086
3.4675, 2975
3.47, 2969
3.4725, 2963
3.475, 2979
3.4775, 2965
3.48, 2966
3.4825, 3088
3.485, 2977
3.4875, 2968
3.49, 2975
3.4925, 2977
3.495, 2976
3.4975, 2965
3.5, 3096
3.5025, 2989
3.505, 2986
3.5075, 2995
3.51, 2991
3.5125, 2975
3.515, 2961
3.5175, 3090
3.52, 2978
3.5225, 2973
3.525, 2970
3.5275, 2994
3.53, 2987
3.5325, 2968
3.535, 3095
3.5375, 2974
3.54, 2977
3.5425, 2979
3.545, 2989
3.5475, 2992
3.55, 3000
3.5525, 3107
3.555, 2989
3.5575, 2996
3.56, 2987
3.5625, 3009
3.565, 2995
3.5675, 2999
3.57, 3122
3.5725, 2995
3.575, 2985
3.5775, 2976
3.58, 2993
3.5825, 2992
3.585, 2988
3.5875, 3105
3.59, 2991
3.5925, 2977
3.595, 2974
3.5975, 2976
3.6, 2971
3.6025, 2968
3.605, 3085
3.6075, 2973
3.61, 2973
3.6125, 2968
3.615, 2973
3.6175, 2964
3.62, 2966
3.6225, 3083
3.625, 2980
3.6275, 2980
3.63, 2983
3.6325, 2974
3.635, 2975
3.6375, 2971
3.64, 3093
3.6425, 2988
3.645, 2981
3.6475, 2982
3.65, 2990
3.6525, 2968
3.655, 2972
3.6575, 3100
3.66, 2988
3.6625, 2994
3.665, 2998
3.6675, 2999
3.67, 2975
3.6725, 2983
3.675, 3094
3.6775, 2980
3.68, 2980
3.6825, 2978
3.685, 2998
3.6875, 2988
3.69, 2997
3.6925, 3100
3.695, 2983
3.6975, 2976
3.7, 2986
3.7025, 3002
3.705, 2985
3.7075, 2981
3.71, 3105
3.7125, 2984
3.715, 2988
3.7175, 2998
3.72, 3017
3.7225, 3029
3.725, 3015
3.7275, 3117
3.73, 3001
3.7325, 2999
3.735, 3005
3.7375, 3011
3.74, 2998
3.7425, 3008
3.745, 3133
3.7475, 3018
3.75, 3007
3.7525, 2985
3.755, 2994
3.7575, 2991
3.76, 2983
3.7625, 3109
3.765, 2989
3.7675, 2976
3.77, 2968
3.7725, 2969
3.775, 2967
3.7775, 2972
3.78, 3094
3.7825, 2975
3.785, 2966
3.7875, 2961
3.79, 2969
3.7925, 2961
3.795, 2971
3.7975, 3094
3.8, 2970
3.8025, 2979
3.805, 2970
3.8075, 2974
3.81, 2958
3.8125, 2944
3.815, 3067
3.8175, 2944
3.82, 2928
3.8225, 2906
3.825, 2912
3.8275, 2897
3.83, 2898
3.8325, 3051
3.835, 3015
3.8375, 3102
3.84, 3227
3.8425, 3307
3.845, 3334
3.8475, 3421
3.85, 3658
3.8525, 3542
3.855, 3535
3.8575, 3437
3.86, 3312
3.8625, 3195
3.865, 3031
3.8675, 3019
3.87, 2823
3.8725, 2783
3.875, 2764
3.8775, 2762
3.88, 2767
3.8825, 2788
3.885, 2915
3.8875, 2849
3.89, 2861
3.8925, 2879
3.895, 2910
3.8975, 2918
3.9, 2909
3.9025, 3042
3.905, 2910
3.9075, 2902
3.91, 2900
3.9125, 2921
3.915, 2920
3.9175, 2928
3.92, 3045
3.9225, 2937
3.925, 2940
3.9275, 2935
3.93, 2942
3.9325, 2943
3.935, 2940
3.9375, 3077
3.94, 2961
3.9425, 2966
3.945, 2956
3.9475, 2961
3.95, 2954
3.9525, 2953
3.955, 3090
3.9575, 2983
3.96, 2981
3.9625, 2986
3.965, 2985
3.9675, 2984
3.97, 2982
3.9725, 3106
3.975, 3009
3.9775, 3009
3.98, 3003
3.9825, 3014
3.985, 3005
3.9875, 3000
3.99, 3126
3.9925, 3020
3.995, 3012
3.9975, 3021
4.0, 3044
4.0025, 3040
4.005, 3030
4.0075, 3168
4.01, 3061
4.0125, 3059
4.015, 3069
4.0175, 3093
4.02, 3085
4.0225, 3081
4.025, 3206
4.0275, 3081
4.03, 3085
4.0325, 3091
4.035, 3106
4.0375, 3098
4.04, 3100
4.0425, 3209
4.045, 3083
4.0475, 3083
4.05, 3077
4.0525, 3096
4.055, 3096
4.0575, 3072
4.06, 3187
4.0625, 3051
4.065, 3037
4.0675, 3022
4.07, 3026
4.0725, 3009
4.075, 3002
4.0775, 3118
4.08, 2984
4.0825, 2949
4.085, 2932
4.0875, 2920
4.09, 2909
4.0925, 2892
4.095, 2996
4.0975, 2870
4.1, 2866
4.1025, 2855
4.105, 2848
4.1075, 2834
4.11, 2824
4.1125, 2934
4.115, 2828
4.1175, 2816
4.12, 2808
4.1225, 2816
4.125, 2812
4.1275, 2808
4.13, 2915
4.1325, 2824
4.135, 2815
4.1375, 2820
4.14, 2842
4.1425, 2834
4.145, 2836
4.1475, 2961
4.15, 2852
4.1525, 2848
4.155, 2856
4.1575, 2863
4.16, 2866
4.1625, 2859
4.165, 2980
4.1675, 2873
4.17, 2869
4.1725, 2866
4.175, 2880
4.1775, 2874
4.18, 2871
4.1825, 2989
4.185, 2882
4.1875, 2869
4.19, 2867
4.1925, 2881
4.195, 2882
4.1975, 2871
4.2, 2976
4.2025, 2875
4.205, 2877
4.2075, 2872
4.21, 2888
4.2125, 2867
4.215, 2858
4.2175, 2974
4.22, 2861
4.2225, 2855
4.225, 2849
4.2275, 2875
4.23, 2856
4.2325, 2843
4.235, 2951
4.2375, 2849
4.24, 2856
4.2425, 2828
4.245, 2851
4.2475, 2839
4.25, 2842
4.2525, 2943
4.255, 2832
4.2575, 2828
4.26, 2825
4.2625, 2844
4.265, 2839
4.2675, 2842
4.27, 2952
4.2725, 2837
4.275, 2830
4.2775, 2828
4.28, 2837
4.2825, 2834
4.285, 2852
4.2875, 2965
4.29, 2867
4.2925, 2854
4.295, 2854
4.2975, 2864
4.3, 2856
4.3025, 2863
4.305, 2987
4.3075, 2896
4.31, 2889
4.3125, 2886
4.315, 2900
4.3175, 2904
4.32, 2893
4.3225, 3034
4.325, 2938
4.3275, 2944
4.33, 2943
4.3325, 2967
4.335, 2953
4.3375, 2943
4.34, 3068
4.3425, 2958
4.345, 2973
4.3475, 2982
4.35, 2994
4.3525, 2985
4.355, 2987
4.3575, 3110
4.36, 2999
4.3625, 3003
4.365, 3012
4.3675, 3035
4.37, 3024
4.3725, 3029
4.375, 3148
4.3775, 3035
4.38, 3036
4.3825, 3038
4.385, 3057
4.3875, 3060
4.39, 3057
4.3925, 3169
4.395, 3055
4.3975, 3051
4.4, 3053
4.4025, 3070
4.405, 3071
4.4075, 3060
4.41, 3174
4.4125, 3059
4.415, 3038
4.4175, 3030
4.42, 3049
4.4225, 3039
4.425, 3037
4.4275, 3144
4.43, 3031
4.4325, 3027
4.435, 3015
4.4375, 3028
4.44, 3024
4.4425, 3006
4.445, 3141
4.4475, 3016
4.45, 2998
4.4525, 2994
4.455, 3000
4.4575, 2989
4.46, 2983
4.4625, 3100
4.465, 3004
4.4675, 2991
4.47, 2975
4.4725, 2982
4.475, 2967
4.4775, 2956
4.48, 3083
4.4825, 2968
4.485, 2969
4.4875, 2970
4.49, 2978
4.4925, 2947
4.495, 2946
4.4975, 3058
4.5, 2944
4.5025, 2948
4.505, 2940
4.5075, 2949
4.51, 2946
4.5125, 2929
4.515, 3034
4.5175, 2930
4.52, 2924
4.5225, 2929
4.525, 2928
4.5275, 2908
4.53, 2900
4.5325, 2995
4.535, 2890
4.5375, 2888
4.54, 2879
4.5425, 2887
4.545, 2886
4.5475, 2872
4.55, 2981
4.5525, 2856
4.555, 2857
4.5575, 2849
4.56, 2855
4.5625, 2852
4.565, 2854
4.5675, 2953
4.57, 2844
4.5725, 2826
4.575, 2832
4.5775, 2839
4.58, 2848
4.5825, 2829
4.585, 2952
4.5875, 2838
4.59, 2826
4.5925, 2821
4.595, 2827
4.5975, 2830
4.6, 2833
4.6025, 2953
4.605, 2842
4.6075, 2818
4.61, 2810
4.6125, 2831
4.615, 2823
4.6175, 2833
4.62, 2957
4.6225, 2865
4.625, 2864
4.6275, 2862
4.63, 2865
4.6325, 2854
4.635, 2863
4.6375, 2976
4.64, 2880
4.6425, 2877
4.645, 2877
4.6475, 2889
4.65, 2881
4.6525, 2859
4.655, 2966
4.6575, 2869
4.66, 2878
4.6625, 2858
4.665, 2865
4.6675, 2842
4.67, 2838
4.6725, 2954
4.675, 2849
4.6775, 2856
4.68, 2863
4.6825, 2872
4.685, 2866
4.6875, 2850
4.69, 2960
4.6925, 2865
4.695, 2852
4.6975, 2861
4.7, 2880
4.7025, 2888
4.705, 2886
4.7075, 2998
4.71, 2887
4.7125, 2877
4.715, 2876
4.7175, 2887
4.72, 2875
4.7225, 2862
4.725, 2967
4.7275, 2873
4.73, 2899
4.7325, 2952
4.735, 3035
4.7375, 3134
4.74, 3240
4.7425, 3432
4.745, 3388
4.7475, 3474
4.75, 3513
4.7525, 3548
4.755, 3492
4.7575, 3377
4.76, 3393
4.7625, 3153
4.765, 2991
4.7675, 2868
4.77, 2850
4.7725, 2821
4.775, 2798
4.7775, 2915
4.78, 2844
4.7825, 2886
4.785, 2890
4.7875, 2939
4.79, 2978
4.7925, 2996
4.795, 3120
4.7975, 3047
4.8, 3053
4.8025, 3031
4.805, 3034
4.8075, 3026
4.81, 3033
4.8125, 3162
4.815, 3064
4.8175, 3062
4.82, 3067
4.8225, 3089
4.825, 3086
4.8275, 3088
4.83, 3214
4.8325, 3092
4.835, 3099
4.8375, 3099
4.84, 3114
4.8425, 3103
4.845, 3108
4.8475, 3228
4.85, 3118
4.8525, 3118
4.855, 3119
4.8575, 3126
4.86, 3119
4.8625, 3119
4.865, 3241
4.8675, 3117
4.87, 3124
4.8725, 3126
4.875, 3146
4.8775, 3151
4.88, 3146
4.8825, 3264
4.885, 3147
4.8875, 3132
4.89, 3138
4.8925, 3159
4.895, 3163
4.8975, 3165
4.9, 3293
4.9025, 3166
4.905, 3151
4.9075, 3153
4.91, 3168
4.9125, 3176
4.915, 3183
4.9175, 3303
4.92, 3181
4.9225, 3165
4.925, 3176
4.9275, 3190
4.93, 3180
4.9325, 3192
4.935, 3292
4.9375, 3168
4.94, 3163
4.9425, 3145
4.945, 3146
4.9475, 3129
4.95, 3121
4.9525, 3234
4.955, 3112
4.9575, 3094
4.96, 3068
4.9625, 3059
4.965, 3035
4.9675, 3030
4.97, 3144
4.9725, 3017
4.975, 2996
4.9775, 2977
4.98, 2966
4.9825, 2936
4.985, 2919
4.9875, 3014
4.99, 2886
4.9925, 2881
4.995, 2856
4.9975, 2845
5.0, 2817
5.0025, 2800
5.005, 2895
5.0075, 2784
5.01, 2766
5.0125, 2769
5.015, 2769
5.0175, 2756
5.02, 2751
5.0225, 2840
5.025, 2731
5.0275, 2726
5.03, 2728
5.0325, 2741
5.035, 2729
5.0375, 2729
5.04, 2829
5.0425, 2724
5.045, 2716
5.0475, 2714
5.05, 2734
5.0525, 2728
5.055, 2721
5.0575, 2813
5.06, 2729
5.0625, 2719
5.065, 2724
5.0675, 2742
5.07, 2735
5.0725, 2738
5.075, 2845
5.0775, 2746
5.08, 2739
5.0825, 2745
5.085, 2765
5.0875, 2760
5.09, 2764
5.0925, 2877
5.095, 2771
5.0975, 2760
5.1, 2759
5.1025, 2778
5.105, 2788
5.1075, 2796
5.11, 2897
5.1125, 2813
5.115, 2796
5.1175, 2789
5.12, 2810
5.1225, 2802
5.125, 2801
5.1275, 2911
5.13, 2816
5.1325, 2825
5.135, 2821
5.1375, 2832
5.14, 2819
5.1425, 2801
5.145, 2914
5.1475, 2835
5.15, 2834
5.1525, 2832
5.155, 2830
5.1575, 2821
5.16, 2826
5.1625, 2941
5.165, 2847
5.1675, 2848
5.17, 2850
5.1725, 2853
5.175, 2855
5.1775, 2857
5.18, 2967
5.1825, 2864
5.185, 2873
5.1875, 2879
5.19, 2895
5.1925, 2894
5.195, 2886
5.1975, 2993
5.2, 2893
5.2025, 2903
5.205, 2925
5.2075, 2949
5.21, 2929
5.2125, 2930
5.215, 3047
5.2175, 2919
5.22, 2925
5.2225, 2933
5.225, 2951
5.2275, 2951
5.23, 2947
5.2325, 3043
5.235, 2939
5.2375, 2937
5.24, 2939
5.2425, 2952
5.245, 2950
5.2475, 2963
5.25, 3066
5.2525, 2964
5.255, 2948
5.2575, 2955
5.26, 2961
5.2625, 2967
5.265, 2980
5.2675, 3083
5.27, 2972
5.2725, 2961
5.275, 2949
5.2775, 2948
5.28, 2954
5.2825, 2975
5.285, 3090
5.2875, 2979
5.29, 2971
5.2925, 2952
5.295, 2960
5.2975, 2948
5.3, 2948
5.3025, 3068
5.305, 2957
5.3075, 2961
5.31, 2957
5.3125, 2969
5.315, 2957
5.3175, 2960
5.32, 3065
5.3225, 2979
5.325, 2973
5.3275, 2969
5.33, 2978
5.3325, 2964
5.335, 2961
5.3375, 3070
5.34, 2973
5.3425, 2974
5.345, 2969
5.3475, 2994
5.35, 2974
5.3525, 2971
5.355, 3076
5.3575, 2977
5.36, 2981
5.3625, 2983
5.365, 3010
5.3675, 2989
5.37, 2972
5.3725, 3079
5.375, 2976
5.3775, 2974
5.38, 2980
5.3825, 2998
5.385, 2990
5.3875, 2977
5.39, 3074
5.3925, 2966
5.395, 2951
5.3975, 2953
5.4, 2985
5.4025, 2973
5.405, 2970
5.4075, 3078
5.41, 2972
5.4125, 2960
5.415, 2962
5.4175, 2961
5.42, 2970
5.4225, 2973
5.425, 3096
5.4275, 2975
5.43, 2960
5.4325, 2952
5.435, 2971
5.4375, 2949
5.44, 2949
5.4425, 3065
5.445, 2950
5.4475, 2954
5.45, 2942
5.4525, 2947
5.455, 2939
5.4575, 2941
5.46, 3063
5.4625, 2952
5.465, 2948
5.4675, 2946
5.47, 2947
5.4725, 2928
5.475, 2937
5.4775, 3053
5.48, 2943
5.4825, 2933
5.485, 2931
5.4875, 2944
5.49, 2916
5.4925, 2925
5.495, 3034
5.4975, 2947
5.5, 2955
5.5025, 2955
5.505, 2979
5.5075, 2971
5.51, 2963
5.5125, 3070
5.515, 2979
5.5175, 2991
5.52, 2987
5.5225, 3008
5.525, 3002
5.5275, 3002
5.53, 3092
5.5325, 2991
5.535, 2991
5.5375, 2981
5.54, 2996
5.5425, 2989
5.545, 2986
5.5475, 3078
5.55, 2974
5.5525, 2969
5.555, 2970
5.5575, 2975
5.56, 2976
5.5625, 2972
5.565, 3071
5.5675, 2961
5.57, 2960
5.5725, 2965
5.575, 2971
5.5775, 2967
5.58, 2959
5.5825, 3077
5.585, 2958
5.5875, 2951
5.59, 2942
5.5925, 2952
5.595, 2952
5.5975, 2934
5.6, 3046
5.6025, 2917
5.605, 2900
5.6075, 2876
5.61, 2893
5.6125, 2911
5.615, 2938
5.6175, 3117
5.62, 3116
5.6225, 3245
5.625, 3299
5.6275, 3344
5.63, 3410
5.6325, 3499
5.635, 3649
5.6375, 3515
5.64, 3388
5.6425, 3205
5.645, 3103
5.6475, 2970
5.65, 2838
5.6525, 2865
5.655, 2743
5.6575, 2711
5.66, 2696
5.6625, 2730
5.665, 2739
5.6675, 2763
5.67, 2894
5.6725, 2821
5.675, 2842
5.6775, 2849
5.68, 2869
5.6825, 2870
5.685, 2866
5.6875, 2973
5.69, 2882
5.6925, 2878
5.695, 2886
5.6975, 2887
5.7, 2891
5.7025, 2889
5.705, 2999
5.7075, 2905
5.71, 2885
5.7125, 2900
5.715, 2926
5.7175, 2910
5.72, 2905
5.7225, 3023
5.725, 2926
5.7275, 2938
5.73, 2931
5.7325, 2941
5.735, 2947
5.7375, 2943
5.74, 3042
5.7425, 2933
5.745, 2937
5.7475, 2939
5.75, 2965
5.7525, 2960
5.755, 2958
5.7575, 3067
5.76, 2960
5.7625, 2947
5.765, 2952
5.7675, 2961
5.77, 2967
5.7725, 2952
5.775, 3061
5.7775, 2960
5.78, 2954
5.7825, 2947
5.785, 2956
5.7875, 2962
5.79, 2965
5.7925, 3073
5.795, 2969
5.7975, 2962
5.8, 2978
5.8025, 2975
5.805, 2966
5.8075, 2973
5.81, 3091
5.8125, 2987
5.815, 2990
5.8175, 2986
5.82, 2999
5.8225, 3000
5.825, 2995
5.8275, 3101
5.83, 2990
5.8325, 2981
5.835, 2963
5.8375, 2962
5.84, 2948
5.8425, 2934
5.845, 3028
5.8475, 2925
5.85, 2916
5.8525, 2911
5.855, 2910
5.8575, 2879
5.86, 2860
5.8625, 2952
5.865, 2842
5.8675, 2831
5.87, 2823
5.8725, 2823
5.875, 2799
5.8775, 2764
5.88, 2849
5.8825, 2749
5.885, 2735
5.8875, 2744
5.89, 2743
5.8925, 2739
5.895, 2726
5.8975, 2798
5.9, 2706
5.9025, 2700
5.905, 2697
5.9075, 2726
5.91, 2720
5.9125, 2711
5.915, 2808
5.9175, 2704
5.92, 2698
5.9225, 2698
5.925, 2723
5.9275, 2725
5.93, 2733
5.9325, 2824
5.935, 2732
5.9375, 2724
5.94, 2722
5.9425, 2740
5.945, 2741
5.9475, 2751
5.95, 2855
5.9525, 2771
5.955, 2758
5.9575, 2736
5.96, 2757
5.9625, 2766
5.965, 2771
5.9675, 2889
5.97, 2798
5.9725, 2782
5.975, 2792
5.9775, 2787
5.98, 2791
5.9825, 2801
5.985, 2914
5.9875, 2818
5.99, 2816
5.9925, 2820
5.995, 2829
5.9975, 2811
6.0, 2816
6.0025, 2923
6.005, 2837
6.0075, 2847
6.01, 2826
6.0125, 2820
6.015, 2819
6.0175, 2809
6.02, 2924
6.0225, 2826
6.025, 2833
6.0275, 2824
6.03, 2840
6.0325, 2840
6.035, 2834
6.0375, 2921
6.04, 2833
6.0425, 2832
6.045, 2854
6.0475, 2858
6.05, 2852
6.0525, 2863
6.055, 2958
6.0575, 2862
6.06, 2861
6.0625, 2878
6.065, 2885
6.0675, 2884
6.07, 2876
6.0725, 2963
6.075, 2866
6.0775, 2863
6.08, 2863
6.0825, 2884
6.085, 2877
6.0875, 2886
6.09, 2982
6.0925, 2878
6.095, 2869
6.0975, 2866
6.1, 2875
6.1025, 2897
6.105, 2897
6.1075, 2989
6.11, 2893
6.1125, 2880
6.115, 2869
6.1175, 2873
6.12, 2874
6.1225, 2878
6.125, 2976
6.1275, 2885
6.13, 2895
6.1325, 2890
6.135, 2888
6.1375, 2881
6.14, 2883
6.1425, 2993
6.145, 2903
6.1475, 2893
6.15, 2882
6.1525, 2885
6.155, 2880
6.1575, 2878
6.16, 2978
6.1625, 2890
6.165, 2890
6.1675, 2887
6.17, 2902
6.1725, 2884
6.175, 2885
6.1775, 2983
6.18, 2882
6.1825, 2899
6.185, 2891
6.1875, 2899
6.19, 2884
6.1925, 2868
6.195, 2964
6.1975, 2886
6.2, 2892
6.2025, 2881
6.205, 2896
6.2075, 2894
6.21, 2875
6.2125, 2961
6.215, 2857
6.2175, 2861
6.22, 2854
6.2225, 2872
6.225, 2864
6.2275, 2867
6.23, 2971
6.2325, 2873
6.235, 2857
6.2375, 2863
6.24, 2874
6.2425, 2877
6.245, 2860
6.2475, 2965
6.25, 2857
6.2525, 2848
6.255, 2849
6.2575, 2866
6.26, 2867
6.2625, 2862
6.265, 2965
6.2675, 2872
6.27, 2860
6.2725, 2843
6.275, 2844
6.2775, 2833
6.28, 2835
6.2825, 2924
6.285, 2825
6.2875, 2820
6.29, 2804
6.2925, 2816
6.295, 2807
6.2975, 2817
6.3, 2914
6.3025, 2825
6.305, 2818
6.3075, 2810
6.31, 2811
6.3125, 2791
6.315, 2794
6.3175, 2902
6.32, 2808
6.3225, 2807
6.325, 2788
6.3275, 2805
6.33, 2794
6.3325, 2782
6.335, 2882
6.3375, 2791
6.34, 2774
6.3425, 2772
6.345, 2777
6.3475, 2766
6.35, 2757
6.3525, 2850
6.355, 2763
6.3575, 2768
6.36, 2755
6.3625, 2776
6.365, 2756
6.3675, 2763
6.37, 2859
6.3725, 2778
6.375, 2775
6.3775, 2777
6.38, 2783
6.3825, 2782
6.385, 2764
6.3875, 2854
6.39, 2759
6.3925, 2756
6.395, 2751
6.3975, 2744
6.4, 2733
6.4025, 2717
6.405, 2811
6.4075, 2731
6.41, 2776
6.4125, 2872
6.415, 2980
6.4175, 3106
6.42, 3189
6.4225, 3361
6.425, 3330
6.4275, 3404
6.43, 3427
6.4325, 3436
6.435, 3313
6.4375, 3125
6.44, 3070
6.4425, 2868
6.445, 2745
6.4475, 2669
6.45, 2655
6.4525, 2640
6.455, 2632
6.4575, 2739
6.46, 2671
6.4625, 2688
6.465, 2706
6.4675, 2738
6.47, 2760
6.4725, 2795
6.475, 2907
6.4775, 2825
6.48, 2827
6.4825, 2817
6.485, 2822
6.4875, 2827
6.49, 2826
6.4925, 2944
6.495, 2854
6.4975, 2842
6.5, 2835
6.5025, 2852
6.505, 2848
6.5075, 2855
6.51, 2957
6.5125, 2877
6.515, 2887
6.5175, 2893
6.52, 2896
6.5225, 2896
6.525, 2891
6.5275, 2996
6.53, 2913
6.5325, 2915
6.535, 2913
6.5375, 2938
6.54, 2925
6.5425, 2929
6.545, 3038
6.5475, 2962
6.55, 2962
6.5525, 2973
6.555, 2985
6.5575, 2988
6.56, 2977
6.5625, 3087
6.565, 2998
6.5675, 3008
6.57, 3023
6.5725, 3041
6.575, 3041
6.5775, 3032
6.58, 3131
6.5825, 3052
6.585, 3061
6.5875, 3065
6.59, 3084
6.5925, 3085
6.595, 3084
6.5975, 3206
6.6, 3098
6.6025, 3094
6.605, 3103
6.6075, 3123
6.61, 3136
6.6125, 3133
6.615, 3245
6.6175, 3137
6.62, 3123
6.6225, 3115
6.625, 3131
6.6275, 3137
6.63, 3132
6.6325, 3234
6.635, 3111
6.6375, 3095
6.64, 3078
6.6425, 3086
6.645, 3070
6.6475, 3065
6.65, 3165
6.6525, 3054
6.655, 3036
6.6575, 3014
6.66, 3009
6.6625, 2981
6.665, 2963
6.6675, 3051
6.67, 2963
6.6725, 2943
6.675, 2926
6.6775, 2911
6.68, 2891
6.6825, 2881
6.685, 2970
6.6875, 2873
6.69, 2857
6.6925, 2847
6.695, 2848
6.6975, 2833
6.7, 2820
6.7025, 2921
6.705, 2827
6.7075, 2829
6.71, 2832
6.7125, 2834
6.715, 2823
6.7175, 2819
6.72, 2906
6.7225, 2840
6.725, 2840
6.7275, 2838
6.73, 2852
6.7325, 2861
6.735, 2846
6.7375, 2947
6.74, 2858
6.7425, 2857
6.745, 2869
6.7475, 2886
6.75, 2875
6.7525, 2872
6.755, 2968
6.7575, 2872
6.76, 2864
6.7625, 2868
6.765, 2898
6.7675, 2890
6.77, 2906
6.7725, 2995
6.775, 2899
6.7775, 2889
6.78, 2898
6.7825, 2905
6.785, 2903
6.7875, 2906
6.79, 3014
6.7925, 2922
6.795, 2915
6.7975, 2899
6.8, 2909
6.8025, 2900
6.805, 2894
6.8075, 3004
6.81, 2911
6.8125, 2903
6.815, 2904
6.8175, 2905
6.82, 2900
6.8225, 2908
6.825, 3008
6.8275, 2921
6.83, 2918
6.8325, 2916
6.835, 2908
6.8375, 2899
6.84, 2886
6.8425, 3001
6.845, 2913
6.8475, 2901
6.85, 2900
6.8525, 2903
6.855, 2888
6.8575, 2891
6.86, 2974
6.8625, 2898
6.865, 2907
6.8675, 2909
6.87, 2915
6.8725, 2895
6.875, 2888
6.8775, 2980
6.88, 2905
6.8825, 2904
6.885, 2898
6.8875, 2908
6.89, 2894
6.8925, 2894
6.895, 2978
6.8975, 2885
6.9, 2886
6.9025, 2886
6.905, 2890
6.9075, 2892
6.91, 2880
6.9125, 2981
6.915, 2890
6.9175, 2874
6.92, 2882
6.9225, 2897
6.925, 2893
6.9275, 2900
6.93, 2990
6.9325, 2890
6.935, 2883
6.9375, 2885
6.94, 2903
6.9425, 2904
6.945, 2909
6.9475, 2997
6.95, 2909
6.9525, 2900
6.955, 2909
6.9575, 2918
6.96, 2914
6.9625, 2907
6.965, 3014
6.9675, 2923
6.97, 2912
6.9725, 2910
6.975, 2921
6.9775, 2916
6.98, 2926
6.9825, 3020
6.985, 2917
6.9875, 2914
6.99, 2919
6.9925, 2918
6.995, 2918
6.9975, 2927
7.0, 3018
7.0025, 2940
7.005, 2940
7.0075, 2933
7.01, 2930
7.0125, 2934
7.015, 2922
7.0175, 3036
7.02, 2952
7.0225, 2937
7.025, 2938
7.0275, 2936
7.03, 2925
7.0325, 2920
7.035, 3024
7.0375, 2933
7.04, 2944
7.0425, 2948
7.045, 2956
7.0475, 2947
7.05, 2947
7.0525, 3048
7.055, 2955
7.0575, 2958
7.06, 2963
7.0625, 2959
7.065, 2947
7.0675, 2946
7.07, 3047
7.0725, 2948
7.075, 2945
7.0775, 2944
7.08, 2965
7.0825, 2960
7.085, 2965
7.0875, 3057
7.09, 2973
7.0925, 2974
7.095, 2980
7.0975, 2998
7.1, 2997
7.1025, 2993
7.105, 3085
7.1075, 2990
7.11, 2997
7.1125, 2989
7.115, 3002
7.1175, 3008
7.12, 2994
7.1225, 3092
7.125, 2994
7.1275, 2984
7.13, 2977
7.1325, 2988
7.135, 2973
7.1375, 2986
7.14, 3081
7.1425, 2990
7.145, 2979
7.1475, 2974
7.15, 2983
7.1525, 2985
7.155, 2991
7.1575, 3086
7.16, 2996
7.1625, 2989
7.165, 2981
7.1675, 2986
7.17, 2984
7.1725, 2985
7.175, 3085
7.1775, 2992
7.18, 2980
7.1825, 2967
7.185, 2966
7.1875, 2943
7.19, 2931
7.1925, 3013
7.195, 2932
7.1975, 2949
7.2, 2989
7.2025, 3058
7.205, 3135
7.2075, 3244
7.21, 3431
7.2125, 3393
7.215, 3494
7.2175, 3565
7.22, 3606
7.2225, 3578
7.225, 3461
7.2275, 3457
7.23, 3229
7.2325, 3064
7.235, 2936
7.2375, 2864
7.24, 2827
7.2425, 2780
7.245, 2844
7.2475, 2794
7.25, 2818
7.2525, 2841
7.255, 2890
7.2575, 2900
7.26, 2921
7.2625, 3006
7.265, 2929
7.2675, 2920
7.27, 2913
7.2725, 2942
7.275, 2934
7.2775, 2931
7.28, 3017
7.2825, 2917
7.285, 2926
7.2875, 2943
7.29, 2941
7.2925, 2951
7.295, 2949
7.2975, 3037
7.3, 2943
7.3025, 2931
7.305, 2944
7.3075, 2957
7.31, 2957
7.3125, 2947
7.315, 3042
7.3175, 2960
7.32, 2948
7.3225, 2949
7.325, 2957
7.3275, 2960
7.33, 2966
7.3325, 3070
7.335, 2972
7.3375, 2971
7.34, 2970
7.3425, 2971
7.345, 2974
7.3475, 2988
7.35, 3083
7.3525, 3001
7.355, 2992
7.3575, 2989
7.36, 2996
7.3625, 2997
7.365, 2997
7.3675, 3108
7.37, 3035
7.3725, 3034
7.375, 3035
7.3775, 3040
7.38, 3036
7.3825, 3038
7.385, 3136
7.3875, 3062
7.39, 3058
7.3925, 3068
7.395, 3077
7.3975, 3081
7.4, 3073
7.4025, 3175
7.405, 3096
7.4075, 3093
7.41, 3101
7.4125, 3111
7.415, 3103
7.4175, 3095
7.42, 3176
7.4225, 3069
7.425, 3049
7.4275, 3052
7.43, 3068
7.4325, 3063
7.435, 3046
7.4375, 3120
7.44, 3020
7.4425, 2993
7.445, 2977
7.4475, 2993
7.45, 2971
7.4525, 2958
7.455, 3039
7.4575, 2923
7.46, 2906
7.4625, 2888
7.465, 2906
7.4675, 2893
7.47, 2883
7.4725, 2970
7.475, 2865
7.4775, 2847
7.48, 2848
7.4825, 2849
7.485, 2840
7.4875, 2836
7.49, 2936
7.4925, 2850
7.495, 2839
7.4975, 2826
7.5, 2844
7.5025, 2837
7.505, 2840
7.5075, 2945
7.51, 2867
7.5125, 2864
7.515, 2861
7.5175, 2877
7.52, 2874
7.5225, 2876
7.525, 2983
7.5275, 2897
7.53, 2899
7.5325, 2902
7.535, 2903
7.5375, 2906
7.54, 2907
7.5425, 2996
7.545, 2933
7.5475, 2920
7.55, 2923
7.5525, 2936
7.555, 2927
7.5575, 2926
7.56, 3024
7.5625, 2946
7.565, 2944
7.5675, 2944
7.57, 2943
7.5725, 2941
7.575, 2943
7.5775, 3029
7.58, 2942
7.5825, 2945
7.585, 2946
7.5875, 2956
7.59, 2955
7.5925, 2954
7.595, 3021
7.5975, 2943
7.6, 2928
7.6025, 2925
7.605, 2949
7.6075, 2943
7.61, 2945
7.6125, 3023
7.615, 2935
7.6175, 2929
7.62, 2921
7.6225, 2937
7.625, 2929
7.6275, 2924
7.63, 3012
7.6325, 2919
7.635, 2905
7.6375, 2908
7.64, 2909
7.6425, 2911
7.645, 2900
7.6475, 2993
7.65, 2906
7.6525, 2897
7.655, 2887
7.6575, 2898
7.66, 2894
7.6625, 2892
7.665, 2973
7.6675, 2891
7.67, 2885
7.6725, 2879
7.675, 2882
7.6775, 2878
7.68, 2876
7.6825, 2961
7.685, 2878
7.6875, 2886
7.69, 2876
7.6925, 2888
7.695, 2877
7.6975, 2872
7.7, 2961
7.7025, 2885
7.705, 2888
7.7075, 2872
7.71, 2892
7.7125, 2889
7.715, 2872
7.7175, 2967
7.72, 2901
7.7225, 2889
7.725, 2879
7.7275, 2891
7.73, 2885
7.7325, 2885
7.735, 2977
7.7375, 2900
7.74, 2895
7.7425, 2903
7.745, 2909
7.7475, 2905
7.75, 2898
7.7525, 2996
7.755, 2898
7.7575, 2908
7.76, 2910
7.7625, 2920
7.765, 2913
7.7675, 2912
7.77, 2986
7.7725, 2907
7.775, 2898
7.7775, 2899
7.78, 2919
7.7825, 2915
7.785, 2914
7.7875, 2992
7.79, 2920
7.7925, 2917
7.795, 2917
7.7975, 2938
7.8, 2938
7.8025, 2932
7.805, 3017
7.8075, 2928
7.81, 2919
7.8125, 2915
7.815, 2933
7.8175, 2933
7.82, 2930
7.8225, 3022
7.825, 2936
7.8275, 2909
7.83, 2913
7.8325, 2929
7.835, 2928
7.8375, 2926
7.84, 3015
7.8425, 2926
7.845, 2914
7.8475, 2912
7.85, 2913
7.8525, 2913
7.855, 2922
7.8575, 3011
7.86, 2922
7.8625, 2900
7.865, 2894
7.8675, 2902
7.87, 2911
7.8725, 2906
7.875, 3002
7.8775, 2916
7.88, 2908
7.8825, 2908
7.885, 2919
7.8875, 2901
7.89, 2903
7.8925, 3006
7.895, 2922
7.8975, 2916
7.9, 2921
7.9025, 2934
7.905, 2918
7.9075, 2920
7.91, 2994
7.9125, 2918
7.915, 2915
7.9175, 2904
7.92, 2910
7.9225, 2896
7.925, 2885
7.9275, 2963
7.93, 2897
7.9325, 2912
7.935, 2916
7.9375, 2930
7.94, 2928
7.9425, 2927
7.945, 3012
7.9475, 2925
7.95, 2927
7.9525, 2943
7.955, 2954
7.9575, 2944
7.96, 2947
7.9625, 3036
7.965, 2951
7.9675, 2945
7.97, 2948
7.9725, 2960
7.975, 2958
7.9775, 2948
7.98, 3039
7.9825, 2939
7.985, 2930
7.9875, 2936
7.99, 2944
7.9925, 2942
7.995, 2941
7.9975, 3022
8.0, 2935
8.0025, 2917
8.005, 2923
8.0075, 2934
8.01, 2941
8.0125, 2944
8.015, 3037
8.0175, 2946
8.02, 2945
8.0225, 2937
8.025, 2941
8.0275, 2949
8.03, 2947
8.0325, 3030
8.035, 2934
8.0375, 2918
8.04, 2895
8.0425, 2880
8.045, 2862
8.0475, 2877
8.05, 2995
8.0525, 2974
8.055, 3050
8.0575, 3155
8.06, 3255
8.0625, 3292
8.065, 3358
8.0675, 3564
8.07, 3528
8.0725, 3534
8.075, 3487
8.0775, 3361
8.08, 3253
8.0825, 3099
8.085, 3022
8.0875, 2835
8.09, 2790
8.0925, 2757
8.095, 2764
8.0975, 2728
8.1, 2737
8.1025, 2847
8.105, 2805
8.1075, 2845
8.11, 2872
8.1125, 2900
8.115, 2911
8.1175, 2904
8.12, 2979
8.1225, 2888
8.125, 2884
8.1275, 2890
8.13, 2906
8.1325, 2917
8.135, 2915
8.1375, 2993
8.14, 2917
8.1425, 2902
8.145, 2908
8.1475, 2932
8.15, 2941
8.1525, 2938
8.155, 3031
8.1575, 2946
8.16, 2934
8.1625, 2931
8.165, 2945
8.1675, 2947
8.17, 2951
8.1725, 3043
8.175, 2967
8.1775, 2954
8.18, 2944
8.1825, 2963
8.185, 2949
8.1875, 2964
8.19, 3053
8.1925, 2976
8.195, 2975
8.1975, 2969
8.2, 2970
8.2025, 2971
8.205, 2976
8.2075, 3066
8.21, 3006
8.2125, 3006
8.215, 3006
8.2175, 3018
8.22, 2995
8.2225, 3008
8.225, 3117
8.2275, 3041
8.23, 3039
8.2325, 3040
8.235, 3051
8.2375, 3034
8.24, 3033
8.2425, 3131
8.245, 3059
8.2475, 3066
8.25, 3065
8.2525, 3075
8.255, 3070
8.2575, 3048
8.26, 3143
8.2625, 3064
8.265, 3066
8.2675, 3065
8.27, 3070
8.2725, 3061
8.275, 3048
8.2775, 3122
8.28, 3042
8.2825, 3014
8.285, 3010
8.2875, 3021
8.29, 3008
8.2925, 2988
8.295, 3059
8.2975, 2965
8.3, 2948
8.3025, 2930
8.305, 2928
8.3075, 2921
8.31, 2899
8.3125, 2962
8.315, 2869
8.3175, 2852
8.32, 2857
8.3225, 2855
8.325, 2842
8.3275, 2827
8.33, 2897
8.3325, 2812
8.335, 2809
8.3375, 2795
8.34, 2813
8.3425, 2802
8.345, 2803
8.3475, 2893
8.35, 2815
8.3525, 2799
8.355, 2802
8.3575, 2813
8.36, 2803
8.3625, 2818
8.365, 2905
8.3675, 2821
8.37, 2830
8.3725, 2826
8.375, 2836
8.3775, 2834
8.38, 2838
8.3825, 2925
8.385, 2849
8.3875, 2851
8.39, 2855
8.3925, 2864
8.395, 2861
8.3975, 2850
8.4, 2933
8.4025, 2870
8.405, 2878
8.4075, 2878
8.41, 2879
8.4125, 2870
8.415, 2877
8.4175, 2959
8.42, 2889
8.4225, 2893
8.425, 2887
8.4275, 2909
8.43, 2898
8.4325, 2886
8.435, 2971
8.4375, 2896
8.44, 2898
8.4425, 2902
8.445, 2897
8.4475, 2897
8.45, 2891
8.4525, 2971
8.455, 2904
8.4575, 2893
8.46, 2900
8.4625, 2909
8.465, 2909
8.4675, 2912
8.47, 2995
8.4725, 2915
8.475, 2912
8.4775, 2910
8.48, 2917
8.4825, 2916
8.485, 2916
8.4875, 2990
8.49, 2924
8.4925, 2898
8.495, 2916
8.4975, 2929
8.5, 2926
8.5025, 2922
8.505, 3002
8.5075, 2935
8.51, 2917
8.5125, 2911
8.515, 2928
8.5175, 2923
8.52, 2923
8.5225, 3009
8.525, 2929
8.5275, 2921
8.53, 2918
8.5325, 2930
8.535, 2936
8.5375, 2930
8.54, 3027
8.5425, 2958
8.545, 2932
8.5475, 2932
8.55, 2936
8.5525, 2930
8.555, 2930
8.5575, 3017
8.56, 2942
8.5625, 2940
8.565, 2934
8.5675, 2946
8.57, 2940
8.5725, 2951
8.575, 3034
8.5775, 2957
8.58, 2963
8.5825, 2957
8.585, 2959
8.5875, 2953
8.59, 2954
8.5925, 3039
8.595, 2967
8.5975, 2979
8.6, 2975
8.6025, 2984
8.605, 2966
8.6075, 2956
8.61, 3037
8.6125, 2956
8.615, 2958
8.6175, 2956
8.62, 2981
8.6225, 2977
8.625, 2960
8.6275, 3029
8.63, 2968
8.6325, 2954
8.635, 2957
8.6375, 2974
8.64, 2973
8.6425, 2971
8.645, 3045
8.6475, 2958
8.65, 2955
8.6525, 2954
8.655, 2975
8.6575, 2982
8.66, 2968
8.6625, 3056
8.665, 2977
8.6675, 2957
8.67, 2965
8.6725, 2981
8.675, 2970
8.6775, 2980
8.68, 3048
8.6825, 2981
8.685, 2972
8.6875, 2962
8.69, 2973
8.6925, 2971
8.695, 2970
8.6975, 3047
8.7, 2965
8.7025, 2962
8.705, 2957
8.7075, 2951
8.71, 2959
8.7125, 2959
8.715, 3041
8.7175, 2974
8.72, 2960
8.7225, 2941
8.725, 2936
8.7275, 2936
8.73, 2941
8.7325, 3031
8.735, 2946
8.7375, 2945
8.74, 2938
8.7425, 2946
8.745, 2937
8.7475, 2937
8.75, 3011
8.7525, 2944
8.755, 2942
8.7575, 2947
8.76, 2946
8.7625, 2928
8.765, 2910
8.7675, 3003
8.77, 2924
8.7725, 2927
8.775, 2922
8.7775, 2933
8.78, 2920
8.7825, 2914
8.785, 2990
8.7875, 2911
8.79, 2924
8.7925, 2929
8.795, 2946
8.7975, 2936
8.8, 2924
8.8025, 2990
8.805, 2916
8.8075, 2921
8.81, 2927
8.8125, 2934
8.815, 2938
8.8175, 2942
8.82, 3022
8.8225, 2948
8.825, 2929
8.8275, 2924
8.83, 2955
8.8325, 2945
8.835, 2941
8.8375, 3024
8.84, 2941
8.8425, 2925
8.845, 2921
8.8475, 2936
8.85, 2946
8.8525, 2939
8.855, 3038
8.8575, 2962
8.86, 2953
8.8625, 2955
8.865, 2985
8.8675, 2989
8.87, 3002
8.8725, 3102
8.875, 3023
8.8775, 3023
8.88, 3014
8.8825, 3030
8.885, 3032
8.8875, 3045
8.89, 3142
8.8925, 3073
8.895, 3070
8.8975, 3065
8.9, 3055
8.9025, 3050
8.905, 3046
8.9075, 3137
8.91, 3075
8.9125, 3085
8.915, 3066
8.9175, 3080
8.92, 3074
8.9225, 3075
8.925, 3140
8.9275, 3077
8.93, 3071
8.9325, 3069
8.935, 3076
8.9375, 3052
8.94, 3054
8.9425, 3143
8.945, 3070
8.9475, 3066
8.95, 3074
8.9525, 3075
8.955, 3064
8.9575, 3053
8.96, 3117
8.9625, 3039
8.965, 3021
8.9675, 3008
8.97, 3010
8.9725, 2985
8.975, 2979
8.9775, 3076
8.98, 3032
8.9825, 3099
8.985, 3199
8.9875, 3314
8.99, 3373
8.9925, 3427
8.995, 3624
8.9975, 3604
9.0, 3605
9.0025, 3565
9.005, 3461
9.0075, 3344
9.01, 3229
9.0125, 3137
9.015, 2920
9.0175, 2840
9.02, 2802
9.0225, 2786
9.025, 2766
9.0275, 2789
9.03, 2890
9.0325, 2847
9.035, 2869
9.0375, 2890
9.04, 2920
9.0425, 2915
9.045, 2913
9.0475, 2997
9.05, 2920
9.0525, 2919
9.055, 2910
9.0575, 2928
9.06, 2919
9.0625, 2914
9.065, 3001
9.0675, 2922
9.07, 2922
9.0725, 2919
9.075, 2908
9.0775, 2895
9.08, 2892
9.0825, 2976
9.085, 2917
9.0875, 2914
9.09, 2917
9.0925, 2926
9.095, 2918
9.0975, 2916
9.1, 2993
9.1025, 2910
9.105, 2919
9.1075, 2911
9.11, 2913
9.1125, 2901
9.115, 2902
9.1175, 2984
9.12, 2914
9.1225, 2912
9.125, 2915
9.1275, 2924
9.13, 2920
9.1325, 2917
9.135, 2993
9.1375, 2925
9.14, 2918
9.1425, 2939
9.145, 2946
9.1475, 2942
9.15, 2937
9.1525, 3010
9.155, 2952
9.1575, 2944
9.16, 2950
9.1625, 2973
9.165, 2973
9.1675, 2962
9.17, 3048
9.1725, 2964
9.175, 2971
9.1775, 2964
9.18, 2978
9.1825, 2978
9.185, 2981
9.1875, 3051
9.19, 2981
9.1925, 2958
9.195, 2954
9.1975, 2970
9.2, 2951
9.2025, 2942
9.205, 3019
9.2075, 2937
9.21, 2919
9.2125, 2900
9.215, 2903
9.2175, 2888
9.22, 2885
9.2225, 2949
9.225, 2864
9.2275, 2848
9.23, 2831
9.2325, 2821
9.235, 2795
9.2375, 2789
9.24, 2850
9.2425, 2784
9.245, 2762
9.2475, 2742
9.25, 2749
9.2525, 2727
9.255, 2716
9.2575, 2781
9.26, 2719
9.2625, 2718
9.265, 2701
9.2675, 2708
9.27, 2688
9.2725, 2690
9.275, 2762
9.2775, 2712
9.28, 2702
9.2825, 2697
9.285, 2717
9.2875, 2705
9.29, 2702
9.2925, 2771
9.295, 2708
9.2975, 2705
9.3, 2723
9.3025, 2737
9.305, 2733
9.3075, 2742
9.31, 2816
9.3125, 2757
9.315, 2749
9.3175, 2759
9.32, 2780
9.3225, 2777
9.325, 2767
9.3275, 2837
9.33, 2775
9.3325, 2771
9.335, 2784
9.3375, 2815
9.34, 2812
9.3425, 2817
9.345, 2878
9.3475, 2805
9.35, 2801
9.3525, 2813
9.355, 2840
9.3575, 2828
9.36, 2844
9.3625, 2914
9.365, 2844
9.3675, 2836
9.37, 2844
9.3725, 2859
9.375, 2857
9.3775, 2866
9.38, 2947
9.3825, 2876
9.385, 2861
9.3875, 2854
9.39, 2868
9.3925, 2858
9.395, 2866
9.3975, 2943
9.4, 2877
9.4025, 2871
9.405, 2868
9.4075, 2870
9.41, 2888
9.4125, 2874
9.415, 2953
9.4175, 2890
9.42, 2897
9.4225, 2883
9.425, 2886
9.4275, 2870
9.43, 2880
9.4325, 2955
9.435, 2898
9.4375, 2907
9.44, 2904
9.4425, 2918
9.445, 2894
9.4475, 2890
9.45, 2978
9.4525, 2910
9.455, 2913
9.4575, 2916
9.46, 2936
9.4625, 2928
9.465, 2921
9.4675, 2979
9.47, 2916
9.4725, 2916
9.475, 2928
9.4775, 2947
9.48, 2923
9.4825, 2915
9.485, 2989
9.4875, 2922
9.49, 2918
9.4925, 2934
9.495, 2948
9.4975, 2945
9.5, 2946
9.5025, 2996
9.505, 2919
9.5075, 2925
9.51, 2932
9.5125, 2948
9.515, 2934
9.5175, 2936
9.52, 3001
9.5225, 2940
9.525, 2921
9.5275, 2921
9.53, 2940
9.5325, 2937
9.535, 2942
9.5375, 3012
9.54, 2941
9.5425, 2938
9.545, 2939
9.5475, 2942
9.55, 2928
9.5525, 2940
9.555, 3022
9.5575, 2947
9.56, 2934
9.5625, 2933
9.565, 2949
9.5675, 2933
9.57, 2923
9.5725, 3022
9.575, 2958
9.5775, 2979
9.58, 2995
9.5825, 3013
9.585, 3003
9.5875, 3005
9.59, 3088
9.5925, 3031
9.595, 3035
9.5975, 3032
9.6, 3036
9.6025, 3029
9.605, 3031
9.6075, 3093
9.61, 3029
9.6125, 3030
9.615, 3026
9.6175, 3025
9.62, 3008
9.6225, 2994
9.625, 3066
9.6275, 3002
9.63, 3005
9.6325, 3001
9.635, 3006
9.6375, 2996
9.64, 2987
9.6425, 3041
9.645, 2969
9.6475, 2971
9.65, 2966
9.6525, 2981
9.655, 2972
9.6575, 2967
9.66, 3040
9.6625, 2954
9.665, 2940
9.6675, 2946
9.67, 2962
9.6725, 2960
9.675, 2944
9.6775, 3020
9.68, 2940
9.6825, 2940
9.685, 2937
9.6875, 2951
9.69, 2937
9.6925, 2927
9.695, 3005
9.6975, 2940
9.7, 2924
9.7025, 2912
9.705, 2919
9.7075, 2910
9.71, 2915
9.7125, 2993
9.715, 2933
9.7175, 2912
9.72, 2900
9.7225, 2920
9.725, 2915
9.7275, 2908
9.73, 2977
9.7325, 2918
9.735, 2913
9.7375, 2908
9.74, 2918
9.7425, 2906
9.745, 2902
9.7475, 2994
9.75, 2929
9.7525, 2917
9.755, 2904
9.7575, 2905
9.76, 2895
9.7625, 2895
9.765, 2966
9.7675, 2909
9.77, 2910
9.7725, 2902
9.775, 2902
9.7775, 2894
9.78, 2876
9.7825, 2946
9.785, 2887
9.7875, 2883
9.79, 2892
9.7925, 2902
9.795, 2900
9.7975, 2897
9.8, 2966
9.8025, 2898
9.805, 2897
9.8075, 2906
9.81, 2928
9.8125, 2922
9.815, 2913
9.8175, 2971
9.82, 2905
9.8225, 2909
9.825, 2906
9.8275, 2908
9.83, 2890
9.8325, 2889
9.835, 2948
9.8375, 2878
9.84, 2880
9.8425, 2870
9.845, 2887
9.8475, 2882
9.85, 2873
9.8525, 2943
9.855, 2888
9.8575, 2871
9.86, 2871
9.8625, 2890
9.865, 2879
9.8675, 2875
9.87, 2929
9.8725, 2872
9.875, 2865
9.8775, 2871
9.88, 2875
9.8825, 2862
9.885, 2869
9.8875, 2935
9.89, 2870
9.8925, 2854
9.895, 2841
9.8975, 2837
9.9, 2827
9.9025, 2814
9.905, 2884
9.9075, 2833
9.91, 2840
9.9125, 2882
9.915, 2962
9.9175, 3066
9.92, 3186
9.9225, 3308
9.925, 3309
9.9275, 3411
9.93, 3473
9.9325, 3493
9.935, 3439
9.9375, 3291
9.94, 3246
9.9425, 3054
9.945, 2905
9.9475, 2792
9.95, 2746
9.9525, 2690
9.955, 2667
9.9575, 2722
9.96, 2698
9.9625, 2724
9.965, 2753
9.9675, 2791
9.97, 2794
9.9725, 2809
9.975, 2895
9.9775, 2838
9.98, 2842
9.9825, 2845
9.985, 2855
9.9875, 2852
9.99, 2842
9.9925, 2905
9.995, 2840
9.9975, 2847
10.0, 2861
10.0025, 2875
10.005, 2868
10.0075, 2863
10.01, 2932
10.0125, 2875
10.015, 2870
10.0175, 2887
10.02, 2906
10.0225, 2902
10.025, 2890
10.0275, 2960
10.03, 2890
10.0325, 2887
10.035, 2883
10.0375, 2900
10.04, 2899
10.0425, 2905
10.045, 2983
10.0475, 2905
10.05, 2902
10.0525, 2895
10.055, 2912
10.0575, 2924
10.06, 2927
10.0625, 3000
10.065, 2935
10.0675, 2930
10.07, 2915
10.0725, 2935
10.075, 2941
10.0775, 2958
10.08, 3034
10.0825, 2969
10.085, 2972
10.0875, 2968
10.09, 2976
10.0925, 2980
10.095, 2977
10.0975, 3070
10.1, 3005
10.1025, 3009
10.105, 3009
10.1075, 3015
10.11, 3004
10.1125, 3012
10.115, 3025
10.1175, 3031
10.12, 3039
10.1225, 3039
10.125, 3062
10.1275, 3050
10.13, 3030
10.1325, 3092
10.135, 3039
10.1375, 3029
10.14, 3035
10.1425, 3026
10.145, 3001
10.1475, 2985
10.15, 3042
10.1525, 2979
10.155, 2967
10.1575, 2952
10.16, 2964
10.1625, 2950
10.165, 2941
10.1675, 2977
10.17, 2890
10.1725, 2875
10.175, 2870
10.1775, 2875
10.18, 2874
10.1825, 2856
10.185, 2908
10.1875, 2830
10.19, 2812
10.1925, 2813
10.195, 2828
10.1975, 2838
10.2, 2828
10.2025, 2884
10.205, 2817
10.2075, 2798
10.21, 2803
10.2125, 2820
10.215, 2816
10.2175, 2824
10.22, 2897
10.2225, 2823
10.225, 2816
10.2275, 2811
10.23, 2831
10.2325, 2838
10.235, 2839
10.2375, 2910
10.24, 2847
10.2425, 2842
10.245, 2844
10.2475, 2860
10.25, 2843
10.2525, 2856
10.255, 2926
10.2575, 2886
10.26, 2881
10.2625, 2873
10.265, 2882
10.2675, 2877
10.27, 2873
10.2725, 2955
10.275, 2907
10.2775, 2907
10.28, 2907
10.2825, 2912
10.285, 2899
10.2875, 2897
10.29, 2974
10.2925, 2912
10.295, 2925
10.2975, 2930
10.3, 2938
10.3025, 2926
10.305, 2925
10.3075, 2980
10.31, 2927
10.3125, 2922
10.315, 2932
10.3175, 2933
10.32, 2925
10.3225, 2925
10.325, 2987
10.3275, 2927
10.33, 2930
10.3325, 2936
10.335, 2953
10.3375, 2932
10.34, 2933
10.3425, 2987
10.345, 2925
10.3475, 2929
10.35, 2930
10.3525, 2936
10.355, 2934
10.3575, 2934
10.36, 3006
10.3625, 2929
10.365, 2925
10.3675, 2922
10.37, 2939
10.3725, 2936
10.375, 2931
10.3775, 3007
10.38, 2937
10.3825, 2944
10.385, 2935
10.3875, 2948
10.39, 2948
10.3925, 2931
10.395, 2996
10.3975, 2930
10.4, 2933
10.4025, 2916
10.405, 2922
10.4075, 2925
10.41, 2934
10.4125, 3005
10.415, 2943
10.4175, 2927
10.42, 2917
10.4225, 2927
10.425, 2921
10.4275, 2916
10.43, 2990
10.4325, 2932
10.435, 2918
10.4375, 2915
10.44, 2922
10.4425, 2922
10.445, 2914
10.4475, 2974
10.45, 2929
10.4525, 2920
10.455, 2916
10.4575, 2933
10.46, 2914
10.4625, 2902
10.465, 2977
10.4675, 2921
10.47, 2917
10.4725, 2918
10.475, 2938
10.4775, 2932
10.48, 2925
10.4825, 2995
10.485, 2928
10.4875, 2919
10.49, 2916
10.4925, 2935
10.495, 2926
10.4975, 2913
10.5, 2968
10.5025, 2911
10.505, 2904
10.5075, 2904
10.51, 2917
10.5125, 2905
10.515, 2915
10.5175, 2977
10.52, 2915
10.5225, 2907
10.525, 2903
10.5275, 2912
10.53, 2908
10.5325, 2898
10.535, 2958
10.5375, 2897
10.54, 2897
10.5425, 2892
10.545, 2902
10.5475, 2887
10.55, 2888
10.5525, 2949
10.555, 2895
10.5575, 2880
10.56, 2877
10.5625, 2890
10.565, 2877
10.5675, 2883
10.57, 2947
10.5725, 2888
10.575, 2881
10.5775, 2871
10.58, 2872
10.5825, 2869
10.585, 2869
10.5875, 2931
10.59, 2869
10.5925, 2864
10.595, 2866
10.5975, 2868
10.6, 2857
10.6025, 2870
10.605, 2931
10.6075, 2876
10.61, 2874
10.6125, 2860
10.615, 2872
10.6175, 2865
10.62, 2867
10.6225, 2923
10.625, 2875
10.6275, 2865
10.63, 2860
10.6325, 2867
10.635, 2862
10.6375, 2867
10.64, 2926
10.6425, 2884
10.645, 2890
10.6475, 2893
10.65, 2886
10.6525, 2881
10.655, 2879
10.6575, 2938
10.66, 2889
10.6625, 2895
10.665, 2902
10.6675, 2905
10.67, 2895
10.6725, 2882
10.675, 2937
10.6775, 2881
10.68, 2887
10.6825, 2885
10.685, 2878
10.6875, 2867
10.69, 2860
10.6925, 2908
10.695, 2856
10.6975, 2858
10.7, 2855
10.7025, 2859
10.705, 2867
10.7075, 2859
10.71, 2915
10.7125, 2852
10.715, 2845
10.7175, 2845
10.72, 2865
10.7225, 2871
10.725, 2869
10.7275, 2927
10.73, 2867
10.7325, 2861
10.735, 2852
10.7375, 2865
10.74, 2837
10.7425, 2831
10.745, 2878
10.7475, 2825
10.75, 2820
10.7525, 2826
10.755, 2863
10.7575, 2928
10.76, 3030
10.7625, 3238
10.765, 3262
10.7675, 3316
10.77, 3379
10.7725, 3471
10.775, 3507
10.7775, 3511
10.78, 3483
10.7825, 3227
10.785, 3094
10.7875, 2968
10.79, 2842
10.7925, 2758
10.795, 2727
10.7975, 2769
10.8, 2703
10.8025, 2719
10.805, 2725
10.8075, 2753
10.81, 2774
10.8125, 2797
10.815, 2881
10.8175, 2828
10.82, 2852
10.8225, 2850
10.825, 2856
10.8275, 2851
10.83, 2856
10.8325, 2906
10.835, 2856
10.8375, 2864
10.84, 2872
10.8425, 2891
10.845, 2876
10.8475, 2882
10.85, 2947
10.8525, 2889
10.855, 2882
10.8575, 2885
10.86, 2894
10.8625, 2894
10.865, 2892
10.8675, 2955
10.87, 2892
10.8725, 2892
10.875, 2900
10.8775, 2922
10.88, 2918
10.8825, 2919
10.885, 2974
10.8875, 2913
10.89, 2915
10.8925, 2909
10.895, 2933
10.8975, 2917
10.9, 2910
10.9025, 2982
10.905, 2923
10.9075, 2927
10.91, 2931
10.9125, 2930
10.915, 2943
10.9175, 2936
10.92, 3016
10.9225, 2948
10.925, 2951
10.9275, 2944
10.93, 2956
10.9325, 2952
10.935, 2962
10.9375, 3021
10.94, 2970
10.9425, 2974
10.945, 2972
10.9475, 2979
10.95, 2980
10.9525, 2975
10.955, 3048
10.9575, 3002
10.96, 2993
10.9625, 2995
10.965, 2996
10.9675, 2979
10.97, 2970
10.9725, 3033
10.975, 2991
10.9775, 2988
10.98, 2979
10.9825, 2991
10.985, 2966
10.9875, 2958
10.99, 3009
10.9925, 2957
10.995, 2943
10.9975, 2937
11.0, 2943
11.0025, 2924
11.005, 2896
11.0075, 2949
11.01, 2886
11.0125, 2879
11.015, 2873
11.0175, 2871
11.02, 2854
11.0225, 2838
11.025, 2874
11.0275, 2820
11.03, 2812
11.0325, 2792
11.035, 2806
11.0375, 2796
11.04, 2778
11.0425, 2830
11.045, 2773
11.0475, 2768
11.05, 2771
11.0525, 2783
11.055, 2783
11.0575, 2775
11.06, 2833
11.0625, 2782
11.065, 2774
11.0675, 2764
11.07, 2784
11.0725, 2784
11.075, 2786
11.0775, 2848
11.08, 2806
11.0825, 2805
11.085, 2804
11.0875, 2820
11.09, 2821
11.0925, 2826
11.095, 2887
11.0975, 2842
11.1, 2844
11.1025, 2837
11.105, 2838
11.1075, 2832
11.11, 2828
11.1125, 2900
11.115, 2868
11.1175, 2855
11.12, 2856
11.1225, 2853
11.125, 2848
11.1275, 2848
11.13, 2905
11.1325, 2871
11.135, 2871
11.1375, 2869
11.14, 2881
11.1425, 2864
11.145, 2853
11.1475, 2928
11.15, 2874
11.1525, 2866
11.155, 2865
11.1575, 2866
11.16, 2844
11.1625, 2851
11.165, 2904
11.1675, 2861
11.17, 2870
11.1725, 2868
11.175, 2873
11.1775, 2869
11.18, 2845
11.1825, 2915
11.185, 2856
11.1875, 2863
11.19, 2870
11.1925, 2881
11.195, 2884
11.1975, 2888
11.2, 2929
11.2025, 2853
11.205, 2851
11.2075, 2870
11.21, 2887
11.2125, 2879
11.215, 2876
11.2175, 2934
11.22, 2889
11.2225, 2888
11.225, 2880
11.2275, 2878
11.23, 2877
11.2325, 2876
11.235, 2932
11.2375, 2875
11.24, 2883
11.2425, 2885
11.245, 2889
11.2475, 2880
11.25, 2869
11.2525, 2919
11.255, 2877
11.2575, 2866
11.26, 2860
11.2625, 2875
11.265, 2854
11.2675, 2843
11.27, 2899
11.2725, 2844
11.275, 2855
11.2775, 2851
11.28, 2855
11.2825, 2847
11.285, 2844
11.2875, 2893
11.29, 2856
11.2925, 2856
11.295, 2849
11.2975, 2850
11.3, 2836
11.3025, 2857
11.305, 2893
11.3075, 2851
11.31, 2868
11.3125, 2880
11.315, 2887
11.3175, 2869
11.32, 2862
11.3225, 2914
11.325, 2876
11.3275, 2890
11.33, 2886
11.3325, 2900
11.335, 2899
11.3375, 2870
11.34, 2941
11.3425, 2885
11.345, 2884
11.3475, 2882
11.35, 2899
11.3525, 2888
11.355, 2880
11.3575, 2931
11.36, 2873
11.3625, 2874
11.365, 2868
11.3675, 2886
11.37, 2880
11.3725, 2845
11.375, 2897
11.3775, 2845
11.38, 2838
11.3825, 2834
11.385, 2842
11.3875, 2832
11.39, 2824
11.3925, 2864
11.395, 2804
11.3975, 2796
11.4, 2801
11.4025, 2817
11.405, 2840
11.4075, 2829
11.41, 2873
11.4125, 2805
11.415, 2782
11.4175, 2760
11.42, 2791
11.4225, 2789
11.425, 2769
11.4275, 2810
11.43, 2745
11.4325, 2737
11.435, 2719
11.4375, 2730
11.44, 2732
11.4425, 2725
11.445, 2776
11.4475, 2705
11.45, 2673
11.4525, 2649
11.455, 2640
11.4575, 2650
11.46, 2662
11.4625, 2724
11.465, 2665
11.4675, 2661
11.47, 2665
11.4725, 2626
11.475, 2554
11.4775, 2533
11.48, 2587
11.4825, 2529
11.485, 2505
11.4875, 2476
11.49, 2449
11.4925, 2395
11.495, 2375
11.4975, 2406
11.5, 2315
11.5025, 2280
11.505, 2252
11.5075, 2223
11.51, 2210
11.5125, 2223
11.515, 2371
11.5175, 2431
11.52, 2595
11.5225, 2755
11.525, 2852
11.5275, 2898
11.53, 2989
11.5325, 3076
11.535, 3000
11.5375, 2855
11.54, 2650
11.5425, 2486
11.545, 2440
11.5475, 2392
11.55, 2426
11.5525, 2426
11.555, 2464
11.5575, 2457
11.56, 2445
11.5625, 2499
11.565, 2546
11.5675, 2636
11.57, 2606
11.5725, 2647
11.575, 2676
11.5775, 2723
11.58, 2744
11.5825, 2761
11.585, 2835
11.5875, 2830
11.59, 2806
11.5925, 2817
11.595, 2810
11.5975, 2786
11.6, 2811
11.6025, 2880
11.605, 2801
11.6075, 2769
11.61, 2785
11.6125, 2814
11.615, 2826
11.6175, 2865
11.62, 2937
11.6225, 2890
11.625, 2876
11.6275, 2860
11.63, 2886
11.6325, 2924
11.635, 2938
11.6375, 2980
11.64, 2916
11.6425, 2882
11.645, 2871
11.6475, 2882
11.65, 2878
11.6525, 2857
11.655, 2868
11.6575, 2775
11.66, 2782
11.6625, 2793
11.665, 2814
11.6675, 2780
11.67, 2743
11.6725, 2755
11.675, 2659
11.6775, 2610
11.68, 2597
11.6825, 2601
11.685, 2565
11.6875, 2551
11.69, 2586
11.6925, 2561
11.695, 2557
11.6975, 2583
11.7, 2634
11.7025, 2699
11.705, 2758
11.7075, 2819
11.71, 2771
11.7125, 2815
11.715, 2848
11.7175, 2863
11.72, 2896
11.7225, 2928
11.725, 2986
11.7275, 2939
11.73, 2975
11.7325, 3012
11.735, 3056
11.7375, 3078
11.74, 3076
11.7425, 3117
11.745, 3066
11.7475, 3058
11.75, 3058
11.7525, 3023
11.755, 3005
11.7575, 2992
11.76, 3020
11.7625, 2965
11.765, 2939
11.7675, 2910
11.77, 2905
11.7725, 2897
11.775, 2907
11.7775, 2974
11.78, 2923
11.7825, 2936
11.785, 2950
11.7875, 2957
11.79, 2962
11.7925, 2978
11.795, 3037
11.7975, 3004
11.8, 3024
11.8025, 3035
11.805, 3038
11.8075, 3008
11.81, 3017
11.8125, 3079
11.815, 3038
11.8175, 3044
11.82, 3043
11.8225, 3066
11.825, 3076
11.8275, 3070
11.83, 3106
11.8325, 3038
11.835, 3040
11.8375, 3066
11.84, 3126
11.8425, 3148
11.845, 3136
11.8475, 3195
11.85, 3150
11.8525, 3146
11.855, 3148
11.8575, 3183
11.86, 3203
11.8625, 3213
11.865, 3270
11.8675, 3220
11.87, 3234
11.8725, 3249
11.875, 3248
11.8775, 3270
11.88, 3288
11.8825, 3333
11.885, 3286
11.8875, 3285
11.89, 3266
11.8925, 3258
11.895, 3253
11.8975, 3266
11.9, 3340
11.9025, 3306
11.905, 3282
11.9075, 3273
11.91, 3264
11.9125, 3236
11.915, 3191
11.9175, 3226
11.92, 3158
11.9225, 3130
11.925, 3138
11.9275, 3159
11.93, 3152
11.9325, 3129
11.935, 3192
11.9375, 3147
11.94, 3148
11.9425, 3123
11.945, 3134
11.9475, 3123
11.95, 3123
11.9525, 3207
11.955, 3171
11.9575, 3171
11.96, 3167
11.9625, 3212
11.965, 3216
11.9675, 3209
11.97, 3297
11.9725, 3247
11.975, 3237
11.9775, 3247
11.98, 3264
11.9825, 3259
11.985, 3279
11.9875, 3340
11.99, 3312
11.9925, 3326
11.995, 3328
11.9975, 3345
12.0, 3346
12.0025, 3345
12.005, 3412
12.0075, 3384
12.01, 3394
12.0125, 3400
12.015, 3412
12.0175, 3397
12.02, 3413
12.0225, 3476
12.025, 3439
12.0275, 3432
12.03, 3448
12.0325, 3466
12.035, 3465
12.0375, 3453
12.04, 3522
12.0425, 3471
12.045, 3466
12.0475, 3464
12.05, 3493
12.0525, 3508
12.055, 3492
12.0575, 3542
12.06, 3500
12.0625, 3500
12.065, 3506
12.0675, 3523
12.07, 3518
12.0725, 3524
12.075, 3576
12.0775, 3538
12.08, 3531
12.0825, 3525
12.085, 3560
12.0875, 3545
12.09, 3541
12.0925, 3601
12.095, 3529
12.0975, 3521
12.1, 3522
12.1025, 3534
12.105, 3513
12.1075, 3511
12.11, 3570
12.1125, 3506
12.115, 3503
12.1175, 3489
12.12, 3484
12.1225, 3485
12.125, 3486
12.1275, 3553
12.13, 3497
12.1325, 3492
12.135, 3476
12.1375, 3476
12.14, 3466
12.1425, 3469
12.145, 3542
12.1475, 3483
12.15, 3474
12.1525, 3461
12.155, 3471
12.1575, 3445
12.16, 3431
12.1625, 3486
12.165, 3429
12.1675, 3401
12.17, 3389
12.1725, 3372
12.175, 3350
12.1775, 3363
12.18, 3479
12.1825, 3517
12.185, 3628
12.1875, 3794
12.19, 3888
12.1925, 3913
12.195, 3956
12.1975, 4095
12.2, 4054
12.2025, 4041
12.205, 3929
12.2075, 3672
12.21, 3438
12.2125, 3340
12.215, 3297
12.2175, 3190
12.22, 3175
12.2225, 3184
12.225, 3176
12.2275, 3153
12.23, 3162
12.2325, 3230
12.235, 3195
12.2375, 3209
12.24, 3226
12.2425, 3267
12.245, 3270
12.2475, 3273
12.25, 3323
12.2525, 3271
12.255, 3256
12.2575, 3242
12.26, 3261
12.2625, 3252
12.265, 3251
12.2675, 3300
12.27, 3247
12.2725, 3238
12.275, 3225
12.2775, 3229
12.28, 3238
12.2825, 3245
12.285, 3318
12.2875, 3265
12.29, 3253
12.2925, 3260
12.295, 3251
12.2975, 3236
12.3, 3247
12.3025, 3310
12.305, 3254
12.3075, 3246
12.31, 3250
12.3125, 3243
12.315, 3229
12.3175, 3233
12.32, 3282
12.3225, 3239
12.325, 3245
12.3275, 3247
12.33, 3239
12.3325, 3230
12.335, 3216
12.3375, 3281
12.34, 3236
12.3425, 3224
12.345, 3218
12.3475, 3237
12.35, 3236
12.3525, 3223
12.355, 3278
12.3575, 3222
12.36, 3228
12.3625, 3241
12.365, 3255
12.3675, 3247
12.37, 3234
12.3725, 3293
12.375, 3237
12.3775, 3227
12.38, 3236
12.3825, 3244
12.385, 3243
12.3875, 3232
12.39, 3274
12.3925, 3243
12.395, 3237
12.3975, 3227
12.4, 3247
12.4025, 3236
12.405, 3231
12.4075, 3279
12.41, 3221
12.4125, 3208
12.415, 3183
12.4175, 3183
12.42, 3180
12.4225, 3167
12.425, 3195
12.4275, 3137
12.43, 3104
12.4325, 3081
12.435, 3068
12.4375, 3049
12.44, 3051
12.4425, 3094
12.445, 3020
12.4475, 2992
12.45, 2966
12.4525, 2962
12.455, 2955
12.4575, 2939
12.46, 2985
12.4625, 2948
12.465, 2930
12.4675, 2917
12.47, 2920
12.4725, 2897
12.475, 2889
12.4775, 2935
12.48, 2912
12.4825, 2904
12.485, 2883
12.4875, 2885
12.49, 2868
12.4925, 2849
12.495, 2900
12.4975, 2866
12.5, 2867
12.5025, 2869
12.505, 2855
12.5075, 2839
12.51, 2837
12.5125, 2885
12.515, 2836
12.5175, 2824
12.52, 2829
12.5225, 2831
12.525, 2811
12.5275, 2792
12.53, 2824
12.5325, 2787
12.535, 2778
12.5375, 2778
12.54, 2783
12.5425, 2779
12.545, 2768
12.5475, 2806
12.55, 2765
12.5525, 2757
12.555, 2761
12.5575, 2789
12.56, 2786
12.5625, 2775
12.565, 2816
12.5675, 2783
12.57, 2766
12.5725, 2762
12.575, 2774
12.5775, 2784
12.58, 2782
12.5825, 2821
12.585, 2785
12.5875, 2770
12.59, 2761
12.5925, 2782
12.595, 2795
12.5975, 2798
12.6, 2840
12.6025, 2800
12.605, 2799
12.6075, 2802
12.61, 2808
12.6125, 2812
12.615, 2827
12.6175, 2874
12.62, 2840
12.6225, 2839
12.625, 2821
12.6275, 2835
12.63, 2828
12.6325, 2828
12.635, 2912
12.6375, 2874
12.64, 2869
12.6425, 2856
12.645, 2867
12.6475, 2866
12.65, 2851
12.6525, 2918
12.655, 2882
12.6575, 2859
12.66, 2863
12.6625, 2862
12.665, 2859
12.6675, 2860
12.67, 2907
12.6725, 2871
12.675, 2865
12.6775, 2862
12.68, 2878
12.6825, 2849
12.685, 2843
12.6875, 2904
12.69, 2870
12.6925, 2869
12.695, 2862
12.6975, 2871
12.7, 2872
12.7025, 2876
12.705, 2910
12.7075, 2868
12.71, 2857
12.7125, 2845
12.715, 2850
12.7175, 2847
12.72, 2836
12.7225, 2894
12.725, 2851
12.7275, 2843
12.73, 2846
12.7325, 2846
12.735, 2831
12.7375, 2822
12.74, 2856
12.7425, 2825
12.745, 2828
12.7475, 2838
12.75, 2844
12.7525, 2847
12.755, 2838
12.7575, 2897
12.76, 2853
12.7625, 2836
12.765, 2840
12.7675, 2855
12.77, 2852
12.7725, 2843
12.775, 2898
12.7775, 2846
12.78, 2841
12.7825, 2817
12.785, 2827
12.7875, 2836
12.79, 2821
12.7925, 2861
12.795, 2814
12.7975, 2798
12.8, 2795
12.8025, 2796
12.805, 2785
12.8075, 2782
12.81, 2833
12.8125, 2782
12.815, 2785
12.8175, 2778
12.82, 2772
12.8225, 2758
12.825, 2759
12.8275, 2806
12.83, 2762
12.8325, 2756
12.835, 2765
12.8375, 2772
12.84, 2758
12.8425, 2765
12.845, 2815
12.8475, 2774
12.85, 2758
12.8525, 2753
12.855, 2756
12.8575, 2721
12.86, 2702
12.8625, 2730
12.865, 2698
12.8675, 2708
12.87, 2738
12.8725, 2816
12.875, 2913
12.8775, 3048
12.88, 3197
12.8825, 3213
12.885, 3288
12.8875, 3390
12.89, 3461
12.8925, 3473
12.895, 3390
12.8975, 3258
12.9, 3055
12.9025, 2922
12.905, 2781
12.9075, 2691
12.91, 2641
12.9125, 2618
12.915, 2636
12.9175, 2588
12.92, 2600
12.9225, 2630
12.925, 2652
12.9275, 2679
12.93, 2710
12.9325, 2771
12.935, 2736
12.9375, 2716
12.94, 2730
12.9425, 2743
12.945, 2750
12.9475, 2754
12.95, 2802
12.9525, 2755
12.955, 2752
12.9575, 2739
12.96, 2756
12.9625, 2768
12.965, 2771
12.9675, 2817
12.97, 2778
12.9725, 2768
12.975, 2756
12.9775, 2770
12.98, 2765
12.9825, 2776
12.985, 2829
12.9875, 2798
12.99, 2787
12.9925, 2772
12.995, 2777
12.9975, 2771
13.0, 2772
13.0025, 2827
13.005, 2792
13.0075, 2804
13.01, 2804
13.0125, 2803
13.015, 2793
13.0175, 2797
13.02, 2844
13.0225, 2823
13.025, 2818
13.0275, 2826
13.03, 2848
13.0325, 2827
13.035, 2830
13.0375, 2870
13.04, 2835
13.0425, 2852
13.045, 2851
13.0475, 2874
13.05, 2871
13.0525, 2867
13.055, 2907
13.0575, 2870
13.06, 2871
13.0625, 2884
13.065, 2907
13.0675, 2905
13.07, 2894
13.0725, 2941
13.075, 2895
13.0775, 2890
13.08, 2891
13.0825, 2925
13.085, 2911
13.0875, 2909
13.09, 2958
13.0925, 2909
13.095, 2897
13.0975, 2884
13.1, 2905
13.1025, 2902
13.105, 2898
13.1075, 2930
13.11, 2888
13.1125, 2858
13.115, 2838
13.1175, 2838
13.12, 2832
13.1225, 2834
13.125, 2858
13.1275, 2818
13.13, 2802
13.1325, 2782
13.135, 2771
13.1375, 2751
13.14, 2753
13.1425, 2793
13.145, 2763
13.1475, 2752
13.15, 2744
13.1525, 2744
13.155, 2733
13.1575, 2723
13.16, 2769
13.1625, 2734
13.165, 2737
13.1675, 2740
13.17, 2741
13.1725, 2732
13.175, 2733
13.1775, 2780
13.18, 2743
13.1825, 2739
13.185, 2748
13.1875, 2762
13.19, 2752
13.1925, 2748
13.195, 2785
13.1975, 2761
13.2, 2765
13.2025, 2767
13.205, 2777
13.2075, 2771
13.21, 2769
13.2125, 2806
13.215, 2779
13.2175, 2784
13.22, 2783
13.2225, 2811
13.225, 2805
13.2275, 2809
13.23, 2849
13.2325, 2799
13.235, 2799
13.2375, 2810
13.24, 2821
13.2425, 2819
13.245, 2809
13.2475, 2852
13.25, 2815
13.2525, 2806
13.255, 2819
13.2575, 2828
13.26, 2820
13.2625, 2821
13.265, 2863
13.2675, 2830
13.27, 2819
13.2725, 2809
13.275, 2836
13.2775, 2837
13.28, 2836
13.2825, 2878
13.285, 2850
13.2875, 2831
13.29, 2835
13.2925, 2843
13.295, 2839
13.2975, 2841
13.3, 2880
13.3025, 2862
13.305, 2859
13.3075, 2839
13.31, 2842
13.3125, 2833
13.315, 2836
13.3175, 2897
13.32, 2871
13.3225, 2864
13.325, 2862
13.3275, 2858
13.33, 2855
13.3325, 2853
13.335, 2904
13.3375, 2871
13.34, 2864
13.3425, 2872
13.345, 2872
13.3475, 2854
13.35, 2845
13.3525, 2896
13.355, 2857
13.3575, 2861
13.36, 2858
13.3625, 2884
13.365, 2856
13.3675, 2850
13.37, 2900
13.3725, 2860
13.375, 2865
13.3775, 2872
13.38, 2884
13.3825, 2874
13.385, 2865
13.3875, 2917
13.39, 2875
13.3925, 2861
13.395, 2857
13.3975, 2888
13.4, 2875
13.4025, 2862
13.405, 2910
13.4075, 2883
13.41, 2869
13.4125, 2870
13.415, 2883
13.4175, 2887
13.42, 2879
13.4225, 2912
13.425, 2870
13.4275, 2876
13.43, 2873
13.4325, 2894
13.435, 2894
13.4375, 2880
13.44, 2917
13.4425, 2886
13.445, 2868
13.4475, 2866
13.45, 2883
13.4525, 2871
13.455, 2875
13.4575, 2924
13.46, 2878
13.4625, 2863
13.465, 2872
13.4675, 2899
13.47, 2897
13.4725, 2903
13.475, 2980
13.4775, 2932
13.48, 2911
13.4825, 2916
13.485, 2921
13.4875, 2920
13.49, 2934
13.4925, 2987
13.495, 2936
13.4975, 2934
13.5, 2930
13.5025, 2937
13.505, 2929
13.5075, 2923
13.51, 2971
13.5125, 2925
13.515, 2922
13.5175, 2914
13.52, 2906
13.5225, 2903
13.525, 2896
13.5275, 2948
13.53, 2914
13.5325, 2901
13.535, 2892
13.5375, 2890
13.54, 2879
13.5425, 2871
13.545, 2916
13.5475, 2887
13.55, 2898
13.5525, 2894
13.555, 2909
13.5575, 2894
13.56, 2881
13.5625, 2941
13.565, 2899
13.5675, 2889
13.57, 2890
13.5725, 2903
13.575, 2891
13.5775, 2865
13.58, 2898
13.5825, 2847
13.585, 2827
13.5875, 2820
13.59, 2843
13.5925, 2860
13.595, 2907
13.5975, 3025
13.6, 3096
13.6025, 3244
13.605, 3310
13.6075, 3376
13.61, 3494
13.6125, 3563
13.615, 3636
13.6175, 3540
13.62, 3382
13.6225, 3230
13.625, 3116
13.6275, 2965
13.63, 2833
13.6325, 2813
13.635, 2750
13.6375, 2714
13.64, 2689
13.6425, 2711
13.645, 2731
13.6475, 2753
13.65, 2825
13.6525, 2804
13.655, 2822
13.6575, 2829
13.66, 2838
13.6625, 2842
13.665, 2851
13.6675, 2906
13.67, 2876
13.6725, 2869
13.675, 2860
13.6775, 2864
13.68, 2849
13.6825, 2844
13.685, 2894
13.6875, 2868
13.69, 2861
13.6925, 2860
13.695, 2871
13.6975, 2866
13.7, 2859
13.7025, 2914
13.705, 2887
13.7075, 2877
13.71, 2889
13.7125, 2900
13.715, 2886
13.7175, 2874
13.72, 2912
13.7225, 2888
13.725, 2888
13.7275, 2889
13.73, 2912
13.7325, 2903
13.735, 2899
13.7375, 2940
13.74, 2894
13.7425, 2906
13.745, 2917
13.7475, 2939
13.75, 2941
13.7525, 2935
13.755, 2978
13.7575, 2929
13.76, 2927
13.7625, 2930
13.765, 2935
13.7675, 2947
13.77, 2947
13.7725, 2998
13.775, 2946
13.7775, 2937
13.78, 2931
13.7825, 2957
13.785, 2963
13.7875, 2960
13.79, 3007
13.7925, 2960
13.795, 2958
13.7975, 2968
13.8, 2984
13.8025, 2978
13.805, 2978
13.8075, 3020
13.81, 2980
13.8125, 2963
13.815, 2952
13.8175, 2976
13.82, 2974
13.8225, 2975
13.825, 3020
13.8275, 2973
13.83, 2956
13.8325, 2939
13.835, 2924
13.8375, 2918
13.84, 2902
13.8425, 2951
13.845, 2905
13.8475, 2893
13.85, 2888
13.8525, 2877
13.855, 2851
13.8575, 2826
13.86, 2870
13.8625, 2839
13.865, 2844
13.8675, 2837
13.87, 2835
13.8725, 2820
13.875, 2797
13.8775, 2834
13.88, 2802
13.8825, 2801
13.885, 2809
13.8875, 2799
13.89, 2788
13.8925, 2780
13.895, 2824
13.8975, 2797
13.9, 2796
13.9025, 2802
13.905, 2815
13.9075, 2814
13.91, 2821
13.9125, 2850
13.915, 2808
13.9175, 2804
13.92, 2812
13.9225, 2830
13.925, 2835
13.9275, 2831
13.93, 2876
13.9325, 2830
13.935, 2828
13.9375, 2831
13.94, 2847
13.9425, 2844
13.945, 2851
13.9475, 2886
13.95, 2857
13.9525, 2844
13.955, 2850
13.9575, 2858
13.96, 2850
13.9625, 2857
13.965, 2899
13.9675, 2870
13.97, 2866
13.9725, 2859
13.975, 2868
13.9775, 2865
13.98, 2865
13.9825, 2903
13.985, 2871
13.9875, 2866
13.99, 2860
13.9925, 2871
13.995, 2863
13.9975, 2870
14.0, 2916
14.0025, 2870
14.005, 2873
14.0075, 2863
14.01, 2860
14.0125, 2860
14.015, 2867
14.0175, 2924
14.02, 2886
14.0225, 2882
14.025, 2878
14.0275, 2899
14.03, 2885
14.0325, 2890
14.035, 2934
14.0375, 2902
14.04, 2903
14.0425, 2912
14.045, 2926
14.0475, 2923
14.05, 2919
14.0525, 2955
14.055, 2911
14.0575, 2911
14.06, 2911
14.0625, 2928
14.065, 2919
14.0675, 2902
14.07, 2944
14.0725, 2907
14.075, 2904
14.0775, 2912
14.08, 2913
14.0825, 2908
14.085, 2906
14.0875, 2938
14.09, 2913
14.0925, 2908
14.095, 2901
14.0975, 2923
14.1, 2921
14.1025, 2920
14.105, 2959
14.1075, 2907
14.11, 2899
14.1125, 2907
14.115, 2923
14.1175, 2916
14.12, 2913
14.1225, 2963
14.125, 2928
14.1275, 2920
14.13, 2923
14.1325, 2937
14.135, 2925
14.1375, 2926
14.14, 2977
14.1425, 2945
14.145, 2922
14.1475, 2925
14.15, 2934
14.1525, 2935
14.155, 2938
14.1575, 2984
14.16, 2950
14.1625, 2935
14.165, 2931
14.1675, 2949
14.17, 2938
14.1725, 2952
14.175, 2987
14.1775, 2950
14.18, 2942
14.1825, 2939
14.185, 2934
14.1875, 2932
14.19, 2938
14.1925, 2994
14.195, 2959
14.1975, 2954
14.2, 2946
14.2025, 2944
14.205, 2932
14.2075, 2925
14.21, 2972
14.2125, 2952
14.215, 2941
14.2175, 2944
14.22, 2951
14.2225, 2947
14.225, 2946
14.2275, 2998
14.23, 2950
14.2325, 2956
14.235, 2953
14.2375, 2965
14.24, 2952
14.2425, 2941
14.245, 2986
14.2475, 2957
14.25, 2940
14.2525, 2956
14.255, 2956
14.2575, 2943
14.26, 2933
14.2625, 2973
14.265, 2941
14.2675, 2942
14.27, 2937
14.2725, 2955
14.275, 2932
14.2775, 2931
14.28, 2974
14.2825, 2933
14.285, 2926
14.2875, 2915
14.29, 2937
14.2925, 2935
14.295, 2933
14.2975, 2981
14.3, 2928
14.3025, 2909
14.305, 2912
14.3075, 2927
14.31, 2932
14.3125, 2923
14.315, 2966
14.3175, 2922
14.32, 2909
14.3225, 2904
14.325, 2913
14.3275, 2911
14.33, 2910
14.3325, 2950
14.335, 2909
14.3375, 2894
14.34, 2891
14.3425, 2900
14.345, 2882
14.3475, 2891
14.35, 2943
14.3525, 2907
14.355, 2888
14.3575, 2880
14.36, 2887
14.3625, 2870
14.365, 2864
14.3675, 2921
14.37, 2880
14.3725, 2875
14.375, 2879
14.3775, 2867
14.38, 2860
14.3825, 2856
14.385, 2899
14.3875, 2865
14.39, 2869
14.3925, 2864
14.395, 2871
14.3975, 2859
14.4, 2841
14.4025, 2884
14.405, 2850
14.4075, 2848
14.41, 2847
14.4125, 2854
14.415, 2839
14.4175, 2832
14.42, 2877
14.4225, 2829
14.425, 2832
14.4275, 2840
14.43, 2841
14.4325, 2838
14.435, 2829
14.4375, 2858
14.44, 2821
14.4425, 2814
14.445, 2817
14.4475, 2824
14.45, 2823
14.4525, 2822
14.455, 2851
14.4575, 2805
14.46, 2783
14.4625, 2779
14.465, 2787
14.4675, 2777
14.47, 2777
14.4725, 2813
14.475, 2761
14.4775, 2748
14.48, 2736
14.4825, 2738
14.485, 2741
14.4875, 2739
14.49, 2774
14.4925, 2737
14.495, 2721
14.4975, 2724
14.5, 2714
14.5025, 2717
14.505, 2724
14.5075, 2758
14.51, 2718
14.5125, 2720
14.515, 2705
14.5175, 2704
14.52, 2691
14.5225, 2694
14.525, 2736
14.5275, 2705
14.53, 2684
14.5325, 2677
14.535, 2685
14.5375, 2671
14.54, 2664
14.5425, 2697
14.545, 2659
14.5475, 2658
14.55, 2664
14.5525, 2662
14.555, 2641
14.5575, 2638
14.56, 2668
14.5625, 2638
14.565, 2639
14.5675, 2626
14.57, 2630
14.5725, 2606
14.575, 2582
14.5775, 2602
14.58, 2548
14.5825, 2525
14.585, 2511
14.5875, 2533
14.59, 2543
14.5925, 2576
14.595, 2675
14.5975, 2770
14.6, 2890
14.6025, 2937
14.605, 3019
14.6075, 3137
14.61, 3198
14.6125, 3278
14.615, 3202
14.6175, 3074
14.62, 2944
14.6225, 2841
14.625, 2648
14.6275, 2492
14.63, 2449
14.6325, 2380
14.635, 2331
14.6375, 2305
14.64, 2320
14.6425, 2322
14.645, 2346
14.6475, 2410
14.65, 2410
14.6525, 2414
14.655, 2418
14.6575, 2424
14.66, 2431
14.6625, 2431
14.665, 2462
14.6675, 2441
14.67, 2434
14.6725, 2430
14.675, 2439
14.6775, 2441
14.68, 2436
14.6825, 2487
14.685, 2467
14.6875, 2476
14.69, 2481
14.6925, 2489
14.695, 2489
14.6975, 2502
14.7, 2541
14.7025, 2525
14.705, 2519
14.7075, 2520
14.71, 2539
14.7125, 2550
14.715, 2547
14.7175, 2592
14.72, 2567
14.7225, 2564
14.725, 2566
14.7275, 2579
14.73, 2584
14.7325, 2590
14.735, 2641
14.7375, 2612
14.74, 2624
14.7425, 2631
14.745, 2654
14.7475, 2655
14.75, 2651
14.7525, 2703
14.755, 2675
14.7575, 2693
14.76, 2698
14.7625, 2722
14.765, 2725
14.7675, 2723
14.77, 2772
14.7725, 2761
14.775, 2762
14.7775, 2754
14.78, 2781
14.7825, 2782
14.785, 2776
14.7875, 2812
14.79, 2784
14.7925, 2790
14.795, 2785
14.7975, 2800
14.8, 2802
14.8025, 2799
14.805, 2821
14.8075, 2790
14.81, 2791
14.8125, 2782
14.815, 2796
14.8175, 2774
14.82, 2771
14.8225, 2805
14.825, 2766
14.8275, 2754
14.83, 2732
14.8325, 2744
14.835, 2733
14.8375, 2730
14.84, 2759
14.8425, 2727
14.845, 2705
14.8475, 2691
14.85, 2687
14.8525, 2671
14.855, 2677
14.8575, 2698
14.86, 2655
14.8625, 2637
14.865, 2628
14.8675, 2628
14.87, 2621
14.8725, 2624
14.875, 2671
14.8775, 2631
14.88, 2627
14.8825, 2622
14.885, 2636
14.8875, 2636
14.89, 2648
14.8925, 2694
14.895, 2666
14.8975, 2676
14.9, 2684
14.9025, 2687
14.905, 2681
14.9075, 2691
14.91, 2738
14.9125, 2719
14.915, 2729
14.9175, 2729
14.92, 2747
14.9225, 2747
14.925, 2740
14.9275, 2796
14.93, 2774
14.9325, 2785
14.935, 2795
14.9375, 2807
14.94, 2818
14.9425, 2815
14.945, 2859
14.9475, 2840
14.95, 2837
14.9525, 2850
14.955, 2874
14.9575, 2883
14.96, 2886
14.9625, 2931
14.965, 2892
14.9675, 2900
14.97, 2912
14.9725, 2936
14.975, 2942
14.9775, 2941
14.98, 2982
14.9825, 2963
14.985, 2969
14.9875, 2973
14.99, 3006
14.9925, 3007
14.995, 3004
14.9975, 3039
15.0, 3018
15.0025, 3003
15.005, 3001
15.0075, 3024
15.01, 3044
15.0125, 3052
15.015, 3090
15.0175, 3053
15.02, 3059
15.0225, 3053
15.025, 3052
15.0275, 3058
15.03, 3072
15.0325, 3119
15.035, 3085
15.0375, 3092
15.04, 3078
15.0425, 3102
15.045, 3098
15.0475, 3094
15.05, 3138
15.0525, 3107
15.055, 3110
15.0575, 3100
15.06, 3115
15.0625, 3109
15.065, 3104
15.0675, 3159
15.07, 3123
15.0725, 3132
15.075, 3144
15.0775, 3155
15.08, 3144
15.0825, 3141
15.085, 3180
15.0875, 3153
15.09, 3156
15.0925, 3164
15.095, 3171
15.0975, 3160
15.1, 3156
15.1025, 3203
15.105, 3156
15.1075, 3156
15.11, 3172
15.1125, 3188
15.115, 3181
15.1175, 3163
15.12, 3210
15.1225, 3165
15.125, 3161
15.1275, 3166
15.13, 3182
15.1325, 3179
15.135, 3182
15.1375, 3216
15.14, 3173
15.1425, 3169
15.145, 3155
15.1475, 3170
15.15, 3173
15.1525, 3183
15.155, 3226
15.1575, 3176
15.16, 3170
15.1625, 3173
15.165, 3177
15.1675, 3183
15.17, 3185
15.1725, 3228
15.175, 3185
15.1775, 3169
15.18, 3164
15.1825, 3176
15.185, 3167
15.1875, 3175
15.19, 3219
15.1925, 3180
15.195, 3176
15.1975, 3171
15.2, 3169
15.2025, 3153
15.205, 3157
15.2075, 3214
15.21, 3180
15.2125, 3176
15.215, 3179
15.2175, 3176
15.22, 3176
15.2225, 3172
15.225, 3208
15.2275, 3186
15.23, 3179
15.2325, 3179
15.235, 3181
15.2375, 3168
15.24, 3166
15.2425, 3211
15.245, 3168
15.2475, 3175
15.25, 3162
15.2525, 3171
15.255, 3159
15.2575, 3155
15.26, 3199
15.2625, 3152
15.265, 3153
15.2675, 3150
15.27, 3156
15.2725, 3148
15.275, 3148
15.2775, 3179
15.28, 3146
15.2825, 3135
15.285, 3149
15.2875, 3160
15.29, 3150
15.2925, 3136
15.295, 3176
15.2975, 3131
15.3, 3126
15.3025, 3123
15.305, 3137
15.3075, 3132
15.31, 3132
15.3125, 3168
15.315, 3118
15.3175, 3115
15.32, 3121
15.3225, 3133
15.325, 3123
15.3275, 3124
15.33, 3163
15.3325, 3123
15.335, 3115
15.3375, 3110
15.34, 3110
15.3425, 3115
15.345, 3124
15.3475, 3159
15.35, 3126
15.3525, 3119
15.355, 3113
15.3575, 3116
15.36, 3111
15.3625, 3121
15.365, 3167
15.3675, 3125
15.37, 3121
15.3725, 3107
15.375, 3109
15.3775, 3104
15.38, 3111
15.3825, 3150
15.385, 3115
15.3875, 3111
15.39, 3109
15.3925, 3105
15.395, 3105
15.3975, 3103
15.4, 3141
15.4025, 3108
15.405, 3104
15.4075, 3099
15.41, 3102
15.4125, 3098
15.415, 3092
15.4175, 3125
15.42, 3090
15.4225, 3098
15.425, 3088
15.4275, 3118
15.43, 3096
15.4325, 3093
15.435, 3126
15.4375, 3085
15.44, 3087
15.4425, 3087
15.445, 3092
15.4475, 3089
15.45, 3078
15.4525, 3133
15.455, 3102
15.4575, 3093
15.46, 3094
15.4625, 3100
15.465, 3095
15.4675, 3101
15.47, 3147
15.4725, 3103
15.475, 3098
15.4775, 3100
15.48, 3111
15.4825, 3105
15.485, 3106
15.4875, 3142
15.49, 3105
15.4925, 3102
15.495, 3092
15.4975, 3099
15.5, 3086
15.5025, 3084
15.505, 3114
15.5075, 3083
15.51, 3085
15.5125, 3082
15.515, 3095
15.5175, 3097
15.52, 3100
15.5225, 3139
15.525, 3101
15.5275, 3096
15.53, 3087
15.5325, 3088
15.535, 3090
15.5375, 3094
15.54, 3131
15.5425, 3089
15.545, 3078
15.5475, 3075
15.55, 3065
15.5525, 3063
15.555, 3070
15.5575, 3119
15.56, 3070
15.5625, 3052
15.565, 3045
15.5675, 3044
15.57, 3039
15.5725, 3026
15.575, 3066
15.5775, 3032
15.58, 3027
15.5825, 3021
15.585, 3018
15.5875, 3018
15.59, 3002
15.5925, 3044
15.595, 3014
15.5975, 3020
15.6, 3013
15.6025, 3022
15.605, 2998
15.6075, 2987
15.61, 3012
15.6125, 2966
15.615, 2961
15.6175, 2942
15.62, 2943
15.6225, 2932
15.625, 2925
15.6275, 2986
15.63, 2990
15.6325, 3067
15.635, 3180
15.6375, 3293
15.64, 3365
15.6425, 3477
15.645, 3636
15.6475, 3632
15.65, 3615
15.6525, 3568
15.655, 3532
15.6575, 3453
15.66, 3271
15.6625, 3110
15.665, 2919
15.6675, 2825
15.67, 2769
15.6725, 2755
15.675, 2764
15.6775, 2794
15.68, 2861
15.6825, 2849
15.685, 2855
15.6875, 2867
15.69, 2889
15.6925, 2891
15.695, 2885
15.6975, 2933
15.7, 2884
15.7025, 2879
15.705, 2877
15.7075, 2873
15.71, 2876
15.7125, 2874
15.715, 2923
15.7175, 2888
15.72, 2886
15.7225, 2880
15.725, 2891
15.7275, 2887
15.73, 2883
15.7325, 2923
15.735, 2897
15.7375, 2891
15.74, 2887
15.7425, 2893
15.745, 2891
15.7475, 2876
15.75, 2932
15.7525, 2904
15.755, 2901
15.7575, 2916
15.76, 2921
15.7625, 2904
15.765, 2902
15.7675, 2940
15.77, 2913
15.7725, 2923
15.775, 2923
15.7775, 2931
15.78, 2924
15.7825, 2920
15.785, 2959
15.7875, 2923
15.79, 2938
15.7925, 2941
15.795, 2962
15.7975, 2964
15.8, 2955
15.8025, 2990
15.805, 2949
15.8075, 2956
15.81, 2971
15.8125, 2997
15.815, 2993
15.8175, 2995
15.82, 3029
15.8225, 2999
15.825, 2994
15.8275, 2989
15.83, 3009
15.8325, 3012
15.835, 3013
15.8375, 3049
15.84, 3006
15.8425, 2999
15.845, 2994
15.8475, 2996
15.85, 2989
15.8525, 2993
15.855, 3034
15.8575, 2996
15.86, 2976
15.8625, 2964
15.865, 2968
15.8675, 2962
15.87, 2956
15.8725, 2989
15.875, 2942
15.8775, 2928
15.88, 2911
15.8825, 2908
15.885, 2896
15.8875, 2872
15.89, 2910
15.8925, 2860
15.895, 2858
15.8975, 2836
15.9, 2832
15.9025, 2815
15.905, 2805
15.9075, 2837
15.91, 2794
15.9125, 2785
15.915, 2775
15.9175, 2779
15.92, 2763
15.9225, 2758
15.925, 2793
15.9275, 2753
15.93, 2754
15.9325, 2759
15.935, 2765
15.9375, 2755
15.94, 2738
15.9425, 2786
15.945, 2753
15.9475, 2759
15.95, 2772
15.9525, 2779
15.955, 2774
15.9575, 2760
15.96, 2796
15.9625, 2779
15.965, 2784
15.9675, 2790
15.97, 2804
15.9725, 2802
15.975, 2801
15.9775, 2846
15.98, 2804
15.9825, 2801
15.985, 2807
15.9875, 2822
15.99, 2832
15.9925, 2825
15.995, 2866
15.9975, 2836
16.0, 2832
16.0025, 2832
16.005, 2836
16.0075, 2850
16.01, 2843
16.0125, 2886
16.015, 2861
16.0175, 2851
16.02, 2849
16.0225, 2868
16.025, 2866
16.0275, 2863
16.03, 2906
16.0325, 2875
16.035, 2853
16.0375, 2858
16.04, 2859
16.0425, 2858
16.045, 2867
16.0475, 2895
16.05, 2862
16.0525, 2868
16.055, 2857
16.0575, 2871
16.06, 2867
16.0625, 2868
16.065, 2902
16.0675, 2875
16.07, 2872
16.0725, 2856
16.075, 2867
16.0775, 2866
16.08, 2856
16.0825, 2903
16.085, 2867
16.0875, 2865
16.09, 2876
16.0925, 2884
16.095, 2871
16.0975, 2878
16.1, 2912
16.1025, 2878
16.105, 2878
16.1075, 2869
16.11, 2881
16.1125, 2882
16.115, 2885
16.1175, 2920
16.12, 2882
16.1225, 2889
16.125, 2889
16.1275, 2901
16.13, 2891
16.1325, 2874
16.135, 2911
16.1375, 2884
16.14, 2885
16.1425, 2892
16.145, 2899
16.1475, 2899
16.15, 2894
16.1525, 2928
16.155, 2879
16.1575, 2889
16.16, 2890
16.1625, 2900
16.165, 2901
16.1675, 2895
16.17, 2933
16.1725, 2902
16.175, 2889
16.1775, 2892
16.18, 2905
16.1825, 2908
16.185, 2891
16.1875, 2935
16.19, 2902
16.1925, 2904
16.195, 2901
16.1975, 2902
16.2, 2900
16.2025, 2900
16.205, 2938
16.2075, 2901
16.21, 2897
16.2125, 2891
16.215, 2906
16.2175, 2903
16.22, 2899
16.2225, 2952
16.225, 2902
16.2275, 2898
16.23, 2893
16.2325, 2899
16.235, 2903
16.2375, 2903
16.24, 2946
16.2425, 2928
16.245, 2932
16.2475, 2917
16.25, 2935
16.2525, 2928
16.255, 2915
16.2575, 2960
16.26, 2929
16.2625, 2925
16.265, 2915
16.2675, 2916
16.27, 2913
16.2725, 2899
16.275, 2944
16.2775, 2915
16.28, 2919
16.2825, 2921
16.285, 2926
16.2875, 2914
16.29, 2905
16.2925, 2943
16.295, 2919
16.2975, 2920
16.3, 2918
16.3025, 2913
16.305, 2907
16.3075, 2899
16.31, 2930
16.3125, 2892
16.315, 2892
16.3175, 2901
16.32, 2915
16.3225, 2897
16.325, 2901
16.3275, 2924
16.33, 2890
16.3325, 2885
16.335, 2889
16.3375, 2907
16.34, 2900
16.3425, 2894
16.345, 2932
16.3475, 2890
16.35, 2882
16.3525, 2888
16.355, 2903
16.3575, 2904
16.36, 2897
16.3625, 2943
16.365, 2905
16.3675, 2888
16.37, 2885
16.3725, 2897
16.375, 2896
16.3775, 2896
16.38, 2939
16.3825, 2902
16.385, 2898
16.3875, 2883
16.39, 2892
16.3925, 2891
16.395, 2888
16.3975, 2942
16.4, 2915
16.4025, 2896
16.405, 2894
16.4075, 2902
16.41, 2898
16.4125, 2899
16.415, 2947
16.4175, 2918
16.42, 2913
16.4225, 2908
16.425, 2906
16.4275, 2897
16.43, 2888
16.4325, 2941
16.435, 2911
16.4375, 2907
16.44, 2905
16.4425, 2898
16.445, 2887
16.4475, 2882
16.45, 2927
16.4525, 2895
16.455, 2901
16.4575, 2885
16.46, 2898
16.4625, 2885
16.465, 2880
16.4675, 2915
16.47, 2885
16.4725, 2886
16.475, 2883
16.4775, 2898
16.48, 2900
16.4825, 2898
16.485, 2926
16.4875, 2888
16.49, 2886
16.4925, 2885
16.495, 2899
16.4975, 2901
16.5, 2891
16.5025, 2926
16.505, 2885
16.5075, 2878
16.51, 2891
16.5125, 2902
16.515, 2907
16.5175, 2901
16.52, 2936
16.5225, 2891
16.525, 2881
16.5275, 2885
16.53, 2893
16.5325, 2893
16.535, 2901
16.5375, 2939
16.54, 2911
16.5425, 2905
16.545, 2898
16.5475, 2917
16.55, 2903
16.5525, 2911
16.555, 2959
16.5575, 2920
16.56, 2918
16.5625, 2913
16.565, 2915
16.5675, 2913
16.57, 2907
16.5725, 2956
16.575, 2919
16.5775, 2910
16.58, 2899
16.5825, 2900
16.585, 2899
16.5875, 2898
16.59, 2942
16.5925, 2918
16.595, 2915
16.5975, 2906
16.6, 2908
16.6025, 2883
16.605, 2882
16.6075, 2927
16.61, 2900
16.6125, 2902
16.615, 2905
16.6175, 2903
16.62, 2899
16.6225, 2891
16.625, 2928
16.6275, 2897
16.63, 2893
16.6325, 2894
16.635, 2901
16.6375, 2885
16.64, 2872
16.6425, 2892
16.645, 2850
16.6475, 2834
16.65, 2835
16.6525, 2875
16.655, 2905
16.6575, 2964
16.66, 3114
16.6625, 3183
16.665, 3245
16.6675, 3319
16.67, 3450
16.6725, 3531
16.675, 3561
16.6775, 3572
16.68, 3436
16.6825, 3362
16.685, 3247
16.6875, 3061
16.69, 2898
16.6925, 2792
16.695, 2782
16.6975, 2708
16.7, 2693
16.7025, 2706
16.705, 2739
16.7075, 2770
16.71, 2803
16.7125, 2869
16.715, 2843
16.7175, 2852
16.72, 2835
16.7225, 2847
16.725, 2848
16.7275, 2845
16.73, 2890
16.7325, 2871
16.735, 2863
16.7375, 2854
16.74, 2868
16.7425, 2871
16.745, 2869
16.7475, 2915
16.75, 2885
16.7525, 2887
16.755, 2890
16.7575, 2889
16.76, 2882
16.7625, 2878
16.765, 2922
16.7675, 2903
16.77, 2886
16.7725, 2900
16.775, 2899
16.7775, 2889
16.78, 2888
16.7825, 2936
16.785, 2902
16.7875, 2905
16.79, 2914
16.7925, 2925
16.795, 2915
16.7975, 2905
16.8, 2954
16.8025, 2927
16.805, 2927
16.8075, 2928
16.81, 2936
16.8125, 2944
16.815, 2938
16.8175, 2980
16.82, 2948
16.8225, 2941
16.825, 2948
16.8275, 2968
16.83, 2969
16.8325, 2962
16.835, 3016
16.8375, 2975
16.84, 2981
16.8425, 2980
16.845, 3003
16.8475, 3014
16.85, 3009
16.8525, 3042
16.855, 2997
16.8575, 2999
16.86, 3008
16.8625, 3017
16.865, 3026
16.8675, 3018
16.87, 3051
16.8725, 3011
16.875, 3010
16.8775, 3008
16.88, 3019
16.8825, 3014
16.885, 3013
16.8875, 3042
16.89, 2999
16.8925, 2985
16.895, 2978
16.8975, 2977
16.9, 2965
16.9025, 2950
16.905, 2984
16.9075, 2939
16.91, 2925
16.9125, 2899
16.915, 2897
16.9175, 2882
16.92, 2875
16.9225, 2908
16.925, 2859
16.9275, 2843
16.93, 2829
16.9325, 2828
16.935, 2826
16.9375, 2804
16.94, 2854
16.9425, 2806
16.945, 2808
16.9475, 2799
16.95, 2804
16.9525, 2791
16.955, 2791
16.9575, 2828
16.96, 2796
16.9625, 2793
16.965, 2790
16.9675, 2808
16.97, 2797
16.9725, 2780
16.975, 2824
16.9775, 2793
16.98, 2806
16.9825, 2807
16.985, 2819
16.9875, 2813
16.99, 2814
16.9925, 2846
16.995, 2817
16.9975, 2825
17.0, 2828
17.0025, 2853
17.005, 2852
17.0075, 2842
17.01, 2878
17.0125, 2845
17.015, 2844
17.0175, 2853
17.02, 2876
17.0225, 2872
17.025, 2866
17.0275, 2910
17.03, 2872
17.0325, 2864
17.035, 2866
17.0375, 2880
17.04, 2883
17.0425, 2883
17.045, 2924
17.0475, 2887
17.05, 2878
17.0525, 2888
17.055, 2899
17.0575, 2897
17.06, 2901
17.0625, 2936
17.065, 2902
17.0675, 2905
17.07, 2896
17.0725, 2898
17.075, 2903
17.0775, 2903
17.08, 2959
17.0825, 2919
17.085, 2907
17.0875, 2904
17.09, 2903
17.0925, 2896
17.095, 2907
17.0975, 2940
17.1, 2917
17.1025, 2912
17.105, 2919
17.1075, 2917
17.11, 2894
17.1125, 2895
17.115, 2938
17.1175, 2909
17.12, 2907
17.1225, 2899
17.125, 2904
17.1275, 2904
17.13, 2899
17.1325, 2944
17.135, 2912
17.1375, 2903
17.14, 2914
17.1425, 2931
17.145, 2922
17.1475, 2913
17.15, 2952
17.1525, 2919
17.155, 2913
17.1575, 2919
17.16, 2941
17.1625, 2929
17.165, 2925
17.1675, 2963
17.17, 2919
17.1725, 2914
17.175, 2927
17.1775, 2950
17.18, 2937
17.1825, 2924
17.185, 2955
17.1875, 2917
17.19, 2917
17.1925, 2912
17.195, 2937
17.1975, 2925
17.2, 2932
17.2025, 2979
17.205, 2927
17.2075, 2916
17.21, 2905
17.2125, 2924
17.215, 2922
17.2175, 2934
17.22, 2973
17.2225, 2940
17.225, 2934
17.2275, 2924
17.23, 2933
17.2325, 2932
17.235, 2936
17.2375, 2984
17.24, 2950
17.2425, 2937
17.245, 2923
17.2475, 2930
17.25, 2919
17.2525, 2928
17.255, 2976
17.2575, 2943
17.26, 2940
17.2625, 2931
17.265, 2923
17.2675, 2934
17.27, 2929
17.2725, 2967
17.275, 2943
17.2775, 2942
17.28, 2939
17.2825, 2945
17.285, 2935
17.2875, 2934
17.29, 2972
17.2925, 2937
17.295, 2941
17.2975, 2943
17.3, 2957
17.3025, 2943
17.305, 2940
17.3075, 2992
17.31, 2952
17.3125, 2947
17.315, 2959
17.3175, 2964
17.32, 2951
17.3225, 2947
17.325, 2981
17.3275, 2938
17.33, 2941
17.3325, 2945
17.335, 2960
17.3375, 2949
17.34, 2954
17.3425, 2981
17.345, 2935
17.3475, 2926
17.35, 2931
17.3525, 2946
17.355, 2937
17.3575, 2948
17.36, 2986
17.3625, 2943
17.365, 2937
17.3675, 2937
17.37, 2942
17.3725, 2941
17.375, 2946
17.3775, 2981
17.38, 2942
17.3825, 2938
17.385, 2938
17.3875, 2932
17.39, 2932
17.3925, 2931
17.395, 2989
17.3975, 2951
17.4, 2940
17.4025, 2936
17.405, 2942
17.4075, 2935
17.41, 2944
17.4125, 2988
17.415, 2949
17.4175, 2938
17.42, 2927
17.4225, 2934
17.425, 2936
17.4275, 2934
17.43, 2976
17.4325, 2932
17.435, 2933
17.4375, 2924
17.44, 2928
17.4425, 2916
17.445, 2924
17.4475, 2965
17.45, 2927
17.4525, 2930
17.455, 2937
17.4575, 2941
17.46, 2927
17.4625, 2926
17.465, 2960
17.4675, 2940
17.47, 2934
17.4725, 2925
17.475, 2936
17.4775, 2925
17.48, 2914
17.4825, 2951
17.485, 2909
17.4875, 2916
17.49, 2920
17.4925, 2923
17.495, 2935
17.4975, 2936
17.5, 2976
17.5025, 2926
17.505, 2925
17.5075, 2916
17.51, 2939
17.5125, 2925
17.515, 2929
17.5175, 2955
17.52, 2913
17.5225, 2923
17.525, 2920
17.5275, 2940
17.53, 2926
17.5325, 2916
17.535, 2959
17.5375, 2910
17.54, 2899
17.5425, 2903
17.545, 2909
17.5475, 2897
17.55, 2897
17.5525, 2926
17.555, 2894
17.5575, 2881
17.56, 2868
17.5625, 2874
17.565, 2862
17.5675, 2869
17.57, 2906
17.5725, 2879
17.575, 2869
17.5775, 2847
17.58, 2852
17.5825, 2858
17.585, 2854
17.5875, 2886
17.59, 2844
17.5925, 2820
17.595, 2805
17.5975, 2787
17.6, 2761
17.6025, 2766
17.605, 2817
17.6075, 2809
17.61, 2869
17.6125, 2951
17.615, 3087
17.6175, 3170
17.62, 3230
17.6225, 3371
17.625, 3426
17.6275, 3449
17.63, 3457
17.6325, 3372
17.635, 3210
17.6375, 3085
17.64, 2983
17.6425, 2798
17.645, 2709
17.6475, 2668
17.65, 2647
17.6525, 2609
17.655, 2609
17.6575, 2658
17.66, 2663
17.6625, 2682
17.665, 2707
17.6675, 2744
17.67, 2758
17.6725, 2754
17.675, 2793
17.6775, 2770
17.68, 2766
17.6825, 2772
17.685, 2775
17.6875, 2787
17.69, 2798
17.6925, 2821
17.695, 2789
17.6975, 2784
17.7, 2787
17.7025, 2806
17.705, 2806
17.7075, 2816
17.71, 2851
17.7125, 2820
17.715, 2819
17.7175, 2835
17.72, 2850
17.7225, 2853
17.725, 2861
17.7275, 2909
17.73, 2872
17.7325, 2867
17.735, 2876
17.7375, 2883
17.74, 2885
17.7425, 2896
17.745, 2937
17.7475, 2898
17.75, 2897
17.7525, 2891
17.755, 2904
17.7575, 2910
17.76, 2909
17.7625, 2966
17.765, 2937
17.7675, 2927
17.77, 2924
17.7725, 2936
17.775, 2937
17.7775, 2944
17.78, 2998
17.7825, 2971
17.785, 2971
17.7875, 2979
17.79, 2993
17.7925, 2972
17.795, 2981
17.7975, 3045
17.8, 3010
17.8025, 3031
17.805, 3030
17.8075, 3036
17.81, 3019
17.8125, 3019
17.815, 3070
17.8175, 3035
17.82, 3040
17.8225, 3041
17.825, 3050
17.8275, 3041
17.83, 3024
17.8325, 3054
17.835, 3014
17.8375, 3012
17.84, 3006
17.8425, 3010
17.845, 3001
17.8475, 2997
17.85, 3020
17.8525, 2975
17.855, 2958
17.8575, 2951
17.86, 2954
17.8625, 2940
17.865, 2923
17.8675, 2943
17.87, 2893
17.8725, 2869
17.875, 2855
17.8775, 2859
17.88, 2854
17.8825, 2847
17.885, 2880
17.8875, 2828
17.89, 2816
17.8925, 2803
17.895, 2812
17.8975, 2824
17.9, 2825
17.9025, 2854
17.905, 2820
17.9075, 2807
17.91, 2811
17.9125, 2819
17.915, 2816
17.9175, 2830
17.92, 2864
17.9225, 2834
17.925, 2832
17.9275, 2828
17.93, 2833
17.9325, 2829
17.935, 2832
17.9375, 2891
17.94, 2861
17.9425, 2865
17.945, 2870
17.9475, 2882
17.95, 2890
17.9525, 2892
17.955, 2940
17.9575, 2922
17.96, 2926
17.9625, 2936
17.965, 2970
17.9675, 2980
17.97, 2968
17.9725, 3016
17.975, 2988
17.9775, 2988
17.98, 2988
17.9825, 3002
17.985, 2995
17.9875, 2979
17.99, 3010
17.9925, 2967
17.995, 2968
17.9975, 2967
18.0, 2971
18.0025, 2951
18.005, 2936
18.0075, 2972
18.01, 2926
18.0125, 2918
18.015, 2905
18.0175, 2916
18.02, 2904
18.0225, 2907
18.025, 2945
18.0275, 2898
18.03, 2902
18.0325, 2904
18.035, 2913
18.0375, 2915
18.04, 2913
18.0425, 2955
18.045, 2912
18.0475, 2899
18.05, 2901
18.0525, 2903
18.055, 2903
18.0575, 2902
18.06, 2956
18.0625, 2920
18.065, 2914
18.0675, 2910
18.07, 2912
18.0725, 2907
18.075, 2911
18.0775, 2963
18.08, 2931
18.0825, 2927
18.085, 2924
18.0875, 2924
18.09, 2928
18.0925, 2928
18.095, 2969
18.0975, 2937
18.1, 2938
18.1025, 2919
18.105, 2921
18.1075, 2906
18.11, 2900
18.1125, 2943
18.115, 2899
18.1175, 2911
18.12, 2897
18.1225, 2905
18.125, 2902
18.1275, 2887
18.13, 2930
18.1325, 2892
18.135, 2882
18.1375, 2885
18.14, 2901
18.1425, 2888
18.145, 2888
18.1475, 2928
18.15, 2894
18.1525, 2900
18.155, 2891
18.1575, 2900
18.16, 2893
18.1625, 2881
18.165, 2911
18.1675, 2882
18.17, 2877
18.1725, 2884
18.175, 2885
18.1775, 2875
18.18, 2878
18.1825, 2918
18.185, 2884
18.1875, 2885
18.19, 2899
18.1925, 2912
18.195, 2900
18.1975, 2906
18.2, 2948
18.2025, 2897
18.205, 2897
18.2075, 2905
18.21, 2915
18.2125, 2904
18.215, 2889
18.2175, 2934
18.22, 2888
18.2225, 2887
18.225, 2891
18.2275, 2903
18.23, 2895
18.2325, 2904
18.235, 2936
18.2375, 2899
18.24, 2895
18.2425, 2869
18.245, 2879
18.2475, 2883
18.25, 2885
18.2525, 2924
18.255, 2880
18.2575, 2879
18.26, 2881
18.2625, 2880
18.265, 2879
18.2675, 2878
18.27, 2921
18.2725, 2891
18.275, 2892
18.2775, 2885
18.28, 2891
18.2825, 2880
18.285, 2878
18.2875, 2923
18.29, 2889
18.2925, 2880
18.295, 2876
18.2975, 2888
18.3, 2884
18.3025, 2871
18.305, 2933
18.3075, 2888
18.31, 2888
18.3125, 2892
18.315, 2890
18.3175, 2884
18.32, 2886
18.3225, 2928
18.325, 2897
18.3275, 2897
18.33, 2903
18.3325, 2905
18.335, 2889
18.3375, 2892
18.34, 2936
18.3425, 2911
18.345, 2914
18.3475, 2928
18.35, 2942
18.3525, 2946
18.355, 2937
18.3575, 2987
18.36, 2950
18.3625, 2947
18.365, 2962
18.3675, 2970
18.37, 2971
18.3725, 2967
18.375, 3007
18.3775, 2961
18.38, 2955
18.3825, 2947
18.385, 2953
18.3875, 2955
18.39, 2948
18.3925, 2984
18.395, 2935
18.3975, 2927
18.4, 2928
18.4025, 2940
18.405, 2954
18.4075, 2942
18.41, 2986
18.4125, 2950
18.415, 2921
18.4175, 2932
18.42, 2944
18.4225, 2954
18.425, 2955
18.4275, 2987
18.43, 2956
18.4325, 2950
18.435, 2939
18.4375, 2936
18.44, 2941
18.4425, 2934
18.445, 2981
18.4475, 2943
18.45, 2950
18.4525, 2944
18.455, 2965
18.4575, 2956
18.46, 2963
18.4625, 3020
18.465, 2997
18.4675, 2998
18.47, 2998
18.4725, 3001
18.475, 2994
18.4775, 2999
18.48, 3051
18.4825, 3017
18.485, 3018
18.4875, 3010
18.49, 3011
18.4925, 3001
18.495, 2989
18.4975, 3026
18.5, 2981
18.5025, 2964
18.505, 2953
18.5075, 2963
18.51, 2953
18.5125, 2969
18.515, 3075
18.5175, 3125
18.52, 3247
18.5225, 3353
18.525, 3436
18.5275, 3483
18.53, 3583
18.5325, 3700
18.535, 3673
18.5375, 3615
18.54, 3473
18.5425, 3355
18.545, 3229
18.5475, 3062
18.55, 2977
18.5525, 2881
18.555, 2836
18.5575, 2808
18.56, 2814
18.5625, 2829
18.565, 2860
18.5675, 2931
18.57, 2910
18.5725, 2922
18.575, 2926
18.5775, 2948
18.58, 2946
18.5825, 2956
18.585, 2992
18.5875, 2946
18.59, 2933
18.5925, 2909
18.595, 2919
18.5975, 2911
18.6, 2922
18.6025, 2967
18.605, 2931
18.6075, 2924
18.61, 2909
18.6125, 2912
18.615, 2905
18.6175, 2901
18.62, 2942
18.6225, 2898
18.625, 2882
18.6275, 2875
18.63, 2886
18.6325, 2878
18.635, 2875
18.6375, 2921
18.64, 2891
18.6425, 2888
18.645, 2884
18.6475, 2889
18.65, 2887
18.6525, 2873
18.655, 2922
18.6575, 2900
18.66, 2902
18.6625, 2897
18.665, 2911
18.6675, 2897
18.67, 2890
18.6725, 2943
18.675, 2916
18.6775, 2925
18.68, 2924
18.6825, 2934
18.685, 2927
18.6875, 2933
18.69, 2962
18.6925, 2926
18.695, 2919
18.6975, 2936
18.7, 2953
18.7025, 2959
18.705, 2957
18.7075, 2998
18.71, 2961
18.7125, 2958
18.715, 2958
18.7175, 2963
18.72, 2961
18.7225, 2954
18.725, 2971
18.7275, 2942
18.73, 2923
18.7325, 2923
18.735, 2946
18.7375, 2925
18.74, 2917
18.7425, 2957
18.745, 2912
18.7475, 2891
18.75, 2873
18.7525, 2876
18.755, 2861
18.7575, 2848
18.76, 2879
18.7625, 2831
18.765, 2814
18.7675, 2794
18.77, 2789
18.7725, 2777
18.775, 2763
18.7775, 2789
18.78, 2751
18.7825, 2736
18.785, 2710
18.7875, 2714
18.79, 2705
18.7925, 2695
18.795, 2733
18.7975, 2695
18.8, 2679
18.8025, 2683
18.805, 2680
18.8075, 2672
18.81, 2670
18.8125, 2719
18.815, 2691
18.8175, 2680
18.82, 2692
18.8225, 2706
18.825, 2699
18.8275, 2705
18.83, 2761
18.8325, 2729
18.835, 2727
18.8375, 2738
18.84, 2761
18.8425, 2762
18.845, 2765
18.8475, 2810
18.85, 2779
18.8525, 2790
18.855, 2801
18.8575, 2808
18.86, 2809
18.8625, 2804
18.865, 2853
18.8675, 2814
18.87, 2810
18.8725, 2813
18.875, 2836
18.8775, 2833
18.88, 2838
18.8825, 2879
18.885, 2838
18.8875, 2844
18.89, 2838
18.8925, 2852
18.895, 2845
18.8975, 2847
18.9, 2894
18.9025, 2855
18.905, 2853
18.9075, 2860
18.91, 2866
18.9125, 2863
18.915, 2865
18.9175, 2905
18.92, 2860
18.9225, 2862
18.925, 2873
18.9275, 2887
18.93, 2878
18.9325, 2882
18.935, 2917
18.9375, 2859
18.94, 2859
18.9425, 2850
18.945, 2863
18.9475, 2857
18.95, 2856
18.9525, 2905
18.955, 2861
18.9575, 2846
18.96, 2845
18.9625, 2859
18.965, 2852
18.9675, 2866
18.97, 2900
18.9725, 2869
18.975, 2865
18.9775, 2862
18.98, 2865
18.9825, 2865
18.985, 2869
18.9875, 2919
18.99, 2888
18.9925, 2877
18.995, 2870
18.9975, 2873
19.0, 2875
19.0025, 2876
19.005, 2920
19.0075, 2878
19.01, 2884
19.0125, 2886
19.015, 2898
19.0175, 2887
19.02, 2888
19.0225, 2940
19.025, 2905
19.0275, 2908
19.03, 2910
19.0325, 2919
19.035, 2917
19.0375, 2903
19.04, 2941
19.0425, 2906
19.045, 2901
19.0475, 2907
19.05, 2924
19.0525, 2912
19.055, 2904
19.0575, 2948
19.06, 2903
19.0625, 2903
19.065, 2905
19.0675, 2916
19.07, 2928
19.0725, 2923
19.075, 2960
19.0775, 2922
19.08, 2916
19.0825, 2917
19.085, 2933
19.0875, 2939
19.09, 2927
19.0925, 2972
19.095, 2933
19.0975, 2922
19.1, 2919
19.1025, 2924
19.105, 2930
19.1075, 2928
19.11, 2971
19.1125, 2934
19.115, 2920
19.1175, 2920
19.12, 2927
19.1225, 2931
19.125, 2931
19.1275, 2977
19.13, 2946
19.1325, 2943
19.135, 2926
19.1375, 2923
19.14, 2933
19.1425, 2934
19.145, 2975
19.1475, 2944
19.15, 2942
19.1525, 2930
19.155, 2934
19.1575, 2924
19.16, 2924
19.1625, 2971
19.165, 2940
19.1675, 2933
19.17, 2933
19.1725, 2945
19.175, 2931
19.1775, 2917
19.18, 2964
19.1825, 2930
19.185, 2932
19.1875, 2929
19.19, 2930
19.1925, 2933
19.195, 2925
19.1975, 2970
19.2, 2932
19.2025, 2936
19.205, 2946
19.2075, 2982
19.21, 2979
19.2125, 2986
19.215, 3031
19.2175, 2996
19.22, 2995
19.2225, 3005
19.225, 3004
19.2275, 3008
19.23, 2995
19.2325, 3034
19.235, 2980
19.2375, 2976
19.24, 2968
19.2425, 2975
19.245, 2970
19.2475, 2964
19.25, 3001
19.2525, 2964
19.255, 2956
19.2575, 2951
19.26, 2966
19.2625, 2962
19.265, 2958
19.2675, 3002
19.27, 2955
19.2725, 2938
19.275, 2933
19.2775, 2934
19.28, 2937
19.2825, 2933
19.285, 2988
19.2875, 2953
19.29, 2953
19.2925, 2947
19.295, 2958
19.2975, 2944
19.3, 2948
19.3025, 3006
19.305, 2963
19.3075, 2965
19.31, 2948
19.3125, 2950
19.315, 2944
19.3175, 2944
19.32, 2998
19.3225, 2952
19.325, 2950
19.3275, 2945
19.33, 2956
19.3325, 2941
19.335, 2938
19.3375, 2982
19.34, 2942
19.3425, 2942
19.345, 2937
19.3475, 2933
19.35, 2927
19.3525, 2934
19.355, 2978
19.3575, 2939
19.36, 2939
19.3625, 2936
19.365, 2947
19.3675, 2951
19.37, 2935
19.3725, 2974
19.375, 2930
19.3775, 2930
19.38, 2939
19.3825, 2945
19.385, 2933
19.3875, 2922
19.39, 2948
19.3925, 2901
19.395, 2876
19.3975, 2871
19.4, 2885
19.4025, 2901
19.405, 2939
19.4075, 3068
19.41, 3129
19.4125, 3245
19.415, 3297
19.4175, 3377
19.42, 3479
19.4225, 3553
19.425, 3626
19.4275, 3532
19.43, 3393
19.4325, 3248
19.435, 3136
19.4375, 2984
19.44, 2855
19.4425, 2838
19.445, 2763
19.4475, 2736
19.45, 2712
19.4525, 2727
19.455, 2752
19.4575, 2793
19.46, 2869
19.4625, 2856
19.465, 2869
19.4675, 2881
19.47, 2886
19.4725, 2877
19.475, 2877
19.4775, 2928
19.48, 2888
19.4825, 2873
19.485, 2880
19.4875, 2882
19.49, 2888
19.4925, 2878
19.495, 2925
19.4975, 2881
19.5, 2884
19.5025, 2890
19.505, 2897
19.5075, 2896
19.51, 2886
19.5125, 2934
19.515, 2892
19.5175, 2895
19.52, 2896
19.5225, 2906
19.525, 2892
19.5275, 2895
19.53, 2934
19.5325, 2905
19.535, 2904
19.5375, 2912
19.54, 2924
19.5425, 2914
19.545, 2917
19.5475, 2964
19.55, 2927
19.5525, 2918
19.555, 2925
19.5575, 2925
19.56, 2928
19.5625, 2930
19.565, 2980
19.5675, 2955
19.57, 2950
19.5725, 2962
19.575, 2987
19.5775, 2987
19.58, 2992
19.5825, 3057
19.585, 3019
19.5875, 3015
19.59, 3017
19.5925, 3030
19.595, 3035
19.5975, 3044
19.6, 3102
19.6025, 3052
19.605, 3038
19.6075, 3031
19.61, 3038
19.6125, 3036
19.615, 3033
19.6175, 3076
19.62, 3029
19.6225, 3022
19.625, 3014
19.6275, 3013
19.63, 2999
19.6325, 2967
19.635, 3005
19.6375, 2972
19.64, 2982
19.6425, 2969
19.645, 2976
19.6475, 2944
19.65, 2933
19.6525, 2957
19.655, 2904
19.6575, 2884
19.66, 2871
19.6625, 2866
19.665, 2850
19.6675, 2841
19.67, 2878
19.6725, 2830
19.675, 2812
19.6775, 2789
19.68, 2788
19.6825, 2769
19.685, 2763
19.6875, 2806
19.69, 2774
19.6925, 2766
19.695, 2758
19.6975, 2760
19.7, 2738
19.7025, 2737
19.705, 2785
19.7075, 2751
19.71, 2745
19.7125, 2750
19.715, 2752
19.7175, 2755
19.72, 2759
19.7225, 2799
19.725, 2769
19.7275, 2772
19.73, 2777
19.7325, 2790
19.735, 2795
19.7375, 2782
19.74, 2816
19.7425, 2779
19.745, 2791
19.7475, 2796
19.75, 2808
19.7525, 2797
19.755, 2805
19.7575, 2831
19.76, 2793
19.7625, 2789
19.765, 2802
19.7675, 2818
19.77, 2830
19.7725, 2817
19.775, 2873
19.7775, 2823
19.78, 2821
19.7825, 2816
19.785, 2820
19.7875, 2829
19.79, 2838
19.7925, 2883
19.795, 2846
19.7975, 2846
19.8, 2829
19.8025, 2845
19.805, 2849
19.8075, 2857
19.81, 2903
19.8125, 2857
19.815, 2851
19.8175, 2845
19.82, 2855
19.8225, 2855
19.825, 2863
19.8275, 2916
19.83, 2876
19.8325, 2875
19.835, 2863
19.8375, 2876
19.84, 2871
19.8425, 2871
19.845, 2928
19.8475, 2892
19.85, 2890
19.8525, 2878
19.855, 2894
19.8575, 2879
19.86, 2883
19.8625, 2933
19.865, 2897
19.8675, 2902
19.87, 2904
19.8725, 2903
19.875, 2908
19.8775, 2898
19.88, 2944
19.8825, 2904
19.885, 2909
19.8875, 2915
19.89, 2929
19.8925, 2922
19.895, 2921
19.8975, 2961
19.9, 2931
19.9025, 2927
19.905, 2944
19.9075, 2957
19.91, 2954
19.9125, 2952
19.915, 2998
19.9175, 2944
19.92, 2943
19.9225, 2946
19.925, 2960
19.9275, 2955
19.93, 2950
19.9325, 2989
19.935, 2937
19.9375, 2933
19.94, 2930
19.9425, 2940
19.945, 2934
19.9475, 2935
19.95, 2972
19.9525, 2931
19.955, 2920
19.9575, 2917
19.96, 2910
19.9625, 2912
19.965, 2917
19.9675, 2970
19.97, 2928
19.9725, 2920
19.975, 2919
19.9775, 2916
19.98, 2915
19.9825, 2925
19.985, 2970
19.9875, 2928
19.99, 2931
19.9925, 2925
19.995, 2918
19.9975, 2917
20.0, 2918
20.0025, 2967
20.005, 2943
20.0075, 2934
20.01, 2935
20.0125, 2938
20.015, 2934
20.0175, 2928
20.02, 2979
20.0225, 2941
20.025, 2947
20.0275, 2942
20.03, 2941
20.0325, 2932
20.035, 2930
20.0375, 2973
20.04, 2943
20.0425, 2954
20.045, 2952
20.0475, 2968
20.05, 2965
20.0525, 2957
20.055, 3002
20.0575, 2963
20.06, 2966
20.0625, 2959
20.065, 2981
20.0675, 2986
20.07, 2975
20.0725, 3008
20.075, 2971
20.0775, 2961
20.08, 2958
20.0825, 2976
20.085, 2971
20.0875, 2969
20.09, 3022
20.0925, 2966
20.095, 2963
20.0975, 2957
20.1, 2968
20.1025, 2964
20.105, 2962
20.1075, 3013
20.11, 2968
20.1125, 2955
20.115, 2946
20.1175, 2948
20.12, 2961
20.1225, 2956
20.125, 3009
20.1275, 2967
20.13, 2955
20.1325, 2949
20.135, 2959
20.1375, 2952
20.14, 2958
20.1425, 3014
20.145, 2974
20.1475, 2990
20.15, 2990
20.1525, 2992
20.155, 2981
20.1575, 2976
20.16, 3029
20.1625, 2995
20.165, 3012
20.1675, 2992
20.17, 2995
20.1725, 2997
20.175, 2993
20.1775, 3043
20.18, 2996
20.1825, 2991
20.185, 2983
20.1875, 2991
20.19, 2986
20.1925, 2961
20.195, 3007
20.1975, 2963
20.2, 2965
20.2025, 2972
20.205, 2975
20.2075, 2969
20.21, 2961
20.2125, 3007
20.215, 2957
20.2175, 2963
20.22, 2974
20.2225, 2976
20.225, 2969
20.2275, 2965
20.23, 3013
20.2325, 2959
20.235, 2964
20.2375, 2967
20.24, 2971
20.2425, 2965
20.245, 2948
20.2475, 2985
20.25, 2919
20.2525, 2903
20.255, 2884
20.2575, 2903
20.26, 2916
20.2625, 2966
20.265, 3096
20.2675, 3137
20.27, 3259
20.2725, 3320
20.275, 3395
20.2775, 3502
20.28, 3573
20.2825, 3641
20.285, 3562
20.2875, 3426
20.29, 3286
20.2925, 3182
20.295, 3017
20.2975, 2890
20.3, 2854
20.3025, 2781
20.305, 2747
20.3075, 2725
20.31, 2751
20.3125, 2770
20.315, 2803
20.3175, 2883
20.32, 2868
20.3225, 2887
20.325, 2891
20.3275, 2897
20.33, 2895
20.3325, 2896
20.335, 2948
20.3375, 2909
20.34, 2901
20.3425, 2884
20.345, 2890
20.3475, 2889
20.35, 2883
20.3525, 2936
20.355, 2885
20.3575, 2885
20.36, 2884
20.3625, 2896
20.365, 2897
20.3675, 2890
20.37, 2943
20.3725, 2902
20.375, 2905
20.3775, 2912
20.38, 2916
20.3825, 2903
20.385, 2898
20.3875, 2948
20.39, 2918
20.3925, 2917
20.395, 2913
20.3975, 2925
20.4, 2917
20.4025, 2916
20.405, 2963
20.4075, 2924
20.41, 2933
20.4125, 2931
20.415, 2944
20.4175, 2938
20.42, 2929
20.4225, 2968
20.425, 2933
20.4275, 2931
20.43, 2952
20.4325, 2967
20.435, 2974
20.4375, 2979
20.44, 3027
20.4425, 2993
20.445, 2994
20.4475, 2999
20.45, 3016
20.4525, 3024
20.455, 3031
20.4575, 3074
20.46, 3019
20.4625, 3014
20.465, 3024
20.4675, 3033
20.47, 3036
20.4725, 3041
20.475, 3085
20.4775, 3036
20.48, 3027
20.4825, 3026
20.485, 3034
20.4875, 3015
20.49, 3020
20.4925, 3065
20.495, 3020
20.4975, 3000
20.5, 2997
20.5025, 2988
20.505, 2977
20.5075, 2968
20.51, 3010
20.5125, 2961
20.515, 2938
20.5175, 2917
20.52, 2911
20.5225, 2883
20.525, 2881
20.5275, 2919
20.53, 2868
20.5325, 2850
20.535, 2835
20.5375, 2829
20.54, 2818
20.5425, 2817
20.545, 2858
20.5475, 2822
20.55, 2818
20.5525, 2819
20.555, 2817
20.5575, 2803
20.56, 2808
20.5625, 2844
20.565, 2799
20.5675, 2799
20.57, 2800
20.5725, 2809
20.575, 2810
20.5775, 2798
20.58, 2839
20.5825, 2813
20.585, 2813
20.5875, 2836
20.59, 2835
20.5925, 2841
20.595, 2836
20.5975, 2873
20.6, 2837
20.6025, 2837
20.605, 2856
20.6075, 2868
20.61, 2866
20.6125, 2873
20.615, 2915
20.6175, 2869
20.62, 2867
20.6225, 2870
20.625, 2890
20.6275, 2895
20.63, 2896
20.6325, 2946
20.635, 2901
20.6375, 2896
20.64, 2892
20.6425, 2890
20.645, 2903
20.6475, 2905
20.65, 2947
20.6525, 2907
20.655, 2896
20.6575, 2904
20.66, 2907
20.6625, 2905
20.665, 2913
20.6675, 2961
20.67, 2915
20.6725, 2916
20.675, 2908
20.6775, 2908
20.68, 2910
20.6825, 2895
20.685, 2967
20.6875, 2919
20.69, 2917
20.6925, 2914
20.695, 2918
20.6975, 2899
20.7, 2904
20.7025, 2947
20.705, 2912
20.7075, 2913
20.71, 2915
20.7125, 2924
20.715, 2916
20.7175, 2911
20.72, 2957
20.7225, 2919
20.725, 2926
20.7275, 2938
20.73, 2937
20.7325, 2942
20.735, 2936
20.7375, 2981
20.74, 2939
20.7425, 2935
20.745, 2944
20.7475, 2953
20.75, 2952
20.7525, 2947
20.755, 3003
20.7575, 2960
20.76, 2960
20.7625, 2961
20.765, 2979
20.7675, 2973
20.77, 2966
20.7725, 3026
20.775, 2973
20.7775, 2969
20.78, 2973
20.7825, 2996
20.785, 2994
20.7875, 2994
20.79, 3044
20.7925, 2996
20.795, 2988
20.7975, 2987
20.8, 2993
20.8025, 2994
20.805, 3002
20.8075, 3054
20.81, 3006
20.8125, 3007
20.815, 2993
20.8175, 3007
20.82, 3003
20.8225, 2999
20.825, 3060
20.8275, 3013
20.83, 3006
20.8325, 3006
20.835, 3002
20.8375, 2999
20.84, 3006
20.8425, 3051
20.845, 3008
20.8475, 3005
20.85, 3001
20.8525, 3001
20.855, 3000
20.8575, 2994
20.86, 3053
20.8625, 3005
20.865, 3005
20.8675, 2991
20.87, 2999
20.8725, 2998
20.875, 2994
20.8775, 3050
20.88, 3009
20.8825, 3004
20.885, 3003
20.8875, 3005
20.89, 3004
20.8925, 2991
20.895, 3046
20.8975, 2993
20.9, 3005
20.9025, 3004
20.905, 3018
20.9075, 3001
20.91, 2984
20.9125, 3036
20.915, 2994
20.9175, 2988
20.92, 2995
20.9225, 3009
20.925, 3009
20.9275, 3008
20.93, 3058
20.9325, 3012
20.935, 3002
20.9375, 3004
20.94, 3011
20.9425, 2999
20.945, 2995
20.9475, 3062
20.95, 2999
20.9525, 2993
20.955, 2981
20.9575, 3001
20.96, 2999
20.9625, 2983
20.965, 3029
20.9675, 2983
20.97, 2985
20.9725, 2978
20.975, 2985
20.9775, 2994
20.98, 2998
20.9825, 3049
20.985, 2995
20.9875, 2992
20.99, 2976
20.9925, 2989
20.995, 2991
20.9975, 2994
21.0, 3059
21.0025, 3004
21.005, 3002
21.0075, 3000
21.01, 3004
21.0125, 3019
21.015, 3011
21.0175, 3050
21.02, 2984
21.0225, 2979
21.025, 2977
21.0275, 2982
21.03, 2958
21.0325, 2953
21.035, 3003
21.0375, 2962
21.04, 2967
21.0425, 2963
21.045, 2964
21.0475, 2957
21.05, 2950
21.0525, 2997
21.055, 2943
21.0575, 2946
21.06, 2938
21.0625, 2934
21.065, 2938
21.0675, 2941
21.07, 2997
21.0725, 2947
21.075, 2938
21.0775, 2922
21.08, 2921
21.0825, 2902
21.085, 2895
21.0875, 2925
21.09, 2851
21.0925, 2845
21.095, 2869
21.0975, 2901
21.1, 2981
21.1025, 3070
21.105, 3248
21.1075, 3294
21.11, 3351
21.1125, 3410
21.115, 3527
21.1175, 3540
21.12, 3546
21.1225, 3501
21.125, 3237
21.1275, 3090
21.13, 2958
21.1325, 2842
21.135, 2765
21.1375, 2736
21.14, 2750
21.1425, 2672
21.145, 2664
21.1475, 2675
21.15, 2708
21.1525, 2743
21.155, 2763
21.1575, 2835
21.16, 2797
21.1625, 2811
21.165, 2811
21.1675, 2827
21.17, 2823
21.1725, 2820
21.175, 2873
21.1775, 2838
21.18, 2845
21.1825, 2836
21.185, 2832
21.1875, 2839
21.19, 2838
21.1925, 2885
21.195, 2848
21.1975, 2840
21.2, 2843
21.2025, 2842
21.205, 2832
21.2075, 2841
21.21, 2904
21.2125, 2867
21.215, 2867
21.2175, 2862
21.22, 2865
21.2225, 2853
21.225, 2849
21.2275, 2904
21.23, 2864
21.2325, 2875
21.235, 2875
21.2375, 2876
21.24, 2865
21.2425, 2859
21.245, 2920
21.2475, 2879
21.25, 2866
21.2525, 2876
21.255, 2897
21.2575, 2894
21.26, 2877
21.2625, 2919
21.265, 2875
21.2675, 2880
21.27, 2884
21.2725, 2891
21.275, 2887
21.2775, 2886
21.28, 2934
21.2825, 2894
21.285, 2887
21.2875, 2892
21.29, 2911
21.2925, 2911
21.295, 2919
21.2975, 2958
21.3, 2923
21.3025, 2930
21.305, 2923
21.3075, 2923
21.31, 2913
21.3125, 2924
21.315, 2987
21.3175, 2928
21.32, 2912
21.3225, 2905
21.325, 2912
21.3275, 2912
21.33, 2913
21.3325, 2946
21.335, 2905
21.3375, 2889
21.34, 2872
21.3425, 2863
21.345, 2843
21.3475, 2846
21.35, 2889
21.3525, 2839
21.355, 2809
21.3575, 2796
21.36, 2788
21.3625, 2763
21.365, 2760
21.3675, 2813
21.37, 2757
21.3725, 2737
21.375, 2745
21.3775, 2732
21.38, 2727
21.3825, 2713
21.385, 2759
21.3875, 2715
21.39, 2716
21.3925, 2717
21.395, 2707
21.3975, 2702
21.4, 2709
21.4025, 2754
21.405, 2720
21.4075, 2711
21.41, 2711
21.4125, 2734
21.415, 2726
21.4175, 2717
21.42, 2751
21.4225, 2718
21.425, 2721
21.4275, 2743
21.43, 2753
21.4325, 2749
21.435, 2756
21.4375, 2781
21.44, 2739
21.4425, 2741
21.445, 2746
21.4475, 2768
21.45, 2755
21.4525, 2743
21.455, 2793
21.4575, 2757
21.46, 2744
21.4625, 2740
21.465, 2752
21.4675, 2742
21.47, 2741
21.4725, 2796
21.475, 2759
21.4775, 2744
21.48, 2747
21.4825, 2754
21.485, 2753
21.4875, 2763
21.49, 2814
21.4925, 2779
21.495, 2760
21.4975, 2749
21.5, 2765
21.5025, 2770
21.505, 2782
21.5075, 2835
21.51, 2792
21.5125, 2785
21.515, 2769
21.5175, 2779
21.52, 2791
21.5225, 2790
21.525, 2838
21.5275, 2801
21.53, 2799
21.5325, 2793
21.535, 2795
21.5375, 2797
21.54, 2792
21.5425, 2842
21.545, 2793
21.5475, 2810
21.55, 2809
21.5525, 2808
21.555, 2807
21.5575, 2800
21.56, 2857
21.5625, 2816
21.565, 2797
21.5675, 2804
21.57, 2817
21.5725, 2803
21.575, 2809
21.5775, 2843
21.58, 2812
21.5825, 2802
21.585, 2804
21.5875, 2828
21.59, 2825
21.5925, 2817
21.595, 2856
21.5975, 2794
21.6, 2798
21.6025, 2809
21.605, 2834
21.6075, 2828
21.61, 2829
21.6125, 2868
21.615, 2831
21.6175, 2830
21.62, 2831
21.6225, 2842
21.625, 2837
21.6275, 2838
21.63, 2882
21.6325, 2826
21.635, 2833
21.6375, 2829
21.64, 2831
21.6425, 2834
21.645, 2840
21.6475, 2894
21.65, 2843
21.6525, 2841
21.655, 2836
21.6575, 2829
21.66, 2839
21.6625, 2838
21.665, 2883
21.6675, 2832
21.67, 2843
21.6725, 2849
21.675, 2843
21.6775, 2851
21.68, 2845
21.6825, 2901
21.685, 2850
21.6875, 2837
21.69, 2843
21.6925, 2838
21.695, 2837
21.6975, 2825
21.7, 2883
21.7025, 2857
21.705, 2848
21.7075, 2847
21.71, 2867
21.7125, 2877
21.715, 2866
21.7175, 2917
21.72, 2874
21.7225, 2888
21.725, 2887
21.7275, 2888
21.73, 2892
21.7325, 2890
21.735, 2950
21.7375, 2900
21.74, 2899
21.7425, 2893
21.745, 2901
21.7475, 2886
21.75, 2878
21.7525, 2938
21.755, 2875
21.7575, 2871
21.76, 2868
21.7625, 2868
21.765, 2876
21.7675, 2876
21.77, 2927
21.7725, 2885
21.775, 2887
21.7775, 2870
21.78, 2868
21.7825, 2868
21.785, 2878
21.7875, 2935
21.79, 2896
21.7925, 2889
21.795, 2879
21.7975, 2892
21.8, 2891
21.8025, 2893
21.805, 2945
21.8075, 2876
21.81, 2855
21.8125, 2845
21.815, 2856
21.8175, 2825
21.82, 2819
21.8225, 2876
21.825, 2871
21.8275, 2939
21.83, 3049
21.8325, 3193
21.835, 3318
21.8375, 3387
21.84, 3487
21.8425, 3507
21.845, 3535
21.8475, 3544
21.85, 3462
21.8525, 3252
21.855, 3022
21.8575, 2960
21.86, 2819
21.8625, 2737
21.865, 2719
21.8675, 2714
21.87, 2687
21.8725, 2695
21.875, 2767
21.8775, 2754
21.88, 2755
21.8825, 2764
21.885, 2774
21.8875, 2801
21.89, 2847
21.8925, 2911
21.895, 2862
21.8975, 2855
21.9, 2850
21.9025, 2858
21.905, 2838
21.9075, 2842
21.91, 2899
21.9125, 2847
21.915, 2846
21.9175, 2844
21.92, 2849
21.9225, 2846
21.925, 2854
21.9275, 2902
21.93, 2854
21.9325, 2862
21.935, 2867
21.9375, 2882
21.94, 2867
21.9425, 2844
21.945, 2904
21.9475, 2858
21.95, 2865
21.9525, 2866
21.955, 2874
21.9575, 2859
21.96, 2867
21.9625, 2905
21.965, 2870
21.9675, 2869
21.97, 2870
21.9725, 2887
21.975, 2894
21.9775, 2885
21.98, 2938
21.9825, 2891
21.985, 2885
21.9875, 2888
21.99, 2896
21.9925, 2909
21.995, 2904
21.9975, 2961
22.0, 2915
22.0025, 2914
22.005, 2909
22.0075, 2918
22.01, 2930
22.0125, 2934
22.015, 2992
22.0175, 2931
22.02, 2935
22.0225, 2930
22.025, 2929
22.0275, 2923
22.03, 2935
22.0325, 2997
22.035, 2960
22.0375, 2956
22.04, 2929
22.0425, 2925
22.045, 2924
22.0475, 2915
22.05, 2981
22.0525, 2922
22.055, 2912
22.0575, 2904
22.06, 2892
22.0625, 2883
22.065, 2875
22.0675, 2918
22.07, 2859
22.0725, 2854
22.075, 2834
22.0775, 2835
22.08, 2817
22.0825, 2810
22.085, 2845
22.0875, 2787
22.09, 2776
22.0925, 2763
22.095, 2764
22.0975, 2750
22.1, 2734
22.1025, 2764
22.105, 2713
22.1075, 2696
22.11, 2700
22.1125, 2701
22.115, 2691
22.1175, 2688
22.12, 2727
22.1225, 2681
22.125, 2691
22.1275, 2690
22.13, 2703
22.1325, 2710
22.135, 2706
22.1375, 2755
22.14, 2697
22.1425, 2696
22.145, 2690
22.1475, 2706
22.15, 2711
22.1525, 2713
22.155, 2767
22.1575, 2722
22.16, 2717
22.1625, 2713
22.165, 2721
22.1675, 2728
22.17, 2735
22.1725, 2792
22.175, 2744
22.1775, 2735
22.18, 2734
22.1825, 2748
22.185, 2752
22.1875, 2755
22.19, 2817
22.1925, 2766
22.195, 2761
22.1975, 2763
22.2, 2770
22.2025, 2767
22.205, 2769
22.2075, 2832
22.21, 2790
22.2125, 2787
22.215, 2785
22.2175, 2788
22.22, 2782
22.2225, 2777
22.225, 2840
22.2275, 2802
22.23, 2810
22.2325, 2808
22.235, 2822
22.2375, 2830
22.24, 2830
22.2425, 2892
22.245, 2848
22.2475, 2855
22.25, 2856
22.2525, 2867
22.255, 2855
22.2575, 2853
22.26, 2909
22.2625, 2868
22.265, 2877
22.2675, 2868
22.27, 2886
22.2725, 2876
22.275, 2869
22.2775, 2924
22.28, 2888
22.2825, 2885
22.285, 2889
22.2875, 2892
22.29, 2894
22.2925, 2892
22.295, 2943
22.2975, 2898
22.3, 2886
22.3025, 2892
22.305, 2900
22.3075, 2903
22.31, 2901
22.3125, 2954
22.315, 2894
22.3175, 2893
22.32, 2895
22.3225, 2901
22.325, 2900
22.3275, 2888
22.33, 2947
22.3325, 2899
22.335, 2889
22.3375, 2890
22.34, 2899
22.3425, 2897
22.345, 2892
22.3475, 2947
22.35, 2890
22.3525, 2873
22.355, 2877
22.3575, 2888
22.36, 2873
22.3625, 2870
22.365, 2930
22.3675, 2862
22.37, 2861
22.3725, 2864
22.375, 2867
22.3775, 2861
22.38, 2859
22.3825, 2926
22.385, 2874
22.3875, 2862
22.39, 2870
22.3925, 2874
22.395, 2866
22.3975, 2852
22.4, 2908
22.4025, 2862
22.405, 2860
22.4075, 2844
22.41, 2852
22.4125, 2857
22.415, 2855
22.4175, 2908
22.42, 2862
22.4225, 2873
22.425, 2876
22.4275, 2887
22.43, 2881
22.4325, 2877
22.435, 2930
22.4375, 2887
22.44, 2895
22.4425, 2892
22.445, 2902
22.4475, 2889
22.45, 2890
22.4525, 2940
22.455, 2891
22.4575, 2896
22.46, 2892
22.4625, 2896
22.465, 2894
22.4675, 2873
22.47, 2925
22.4725, 2883
22.475, 2879
22.4775, 2883
22.48, 2889
22.4825, 2897
22.485, 2895
22.4875, 2942
22.49, 2887
22.4925, 2883
22.495, 2890
22.4975, 2907
22.5, 2903
22.5025, 2908
22.505, 2964
22.5075, 2910
22.51, 2897
22.5125, 2892
22.515, 2896
22.5175, 2882
22.52, 2869
22.5225, 2899
22.525, 2832
22.5275, 2824
22.53, 2835
22.5325, 2875
22.535, 2950
22.5375, 3055
22.54, 3254
22.5425, 3292
22.545, 3346
22.5475, 3444
22.55, 3545
22.5525, 3575
22.555, 3565
22.5575, 3534
22.56, 3318
22.5625, 3177
22.565, 3010
22.5675, 2867
22.57, 2767
22.5725, 2734
22.575, 2758
22.5775, 2704
22.58, 2718
22.5825, 2741
22.585, 2775
22.5875, 2804
22.59, 2834
22.5925, 2915
22.595, 2875
22.5975, 2883
22.6, 2886
22.6025, 2892
22.605, 2877
22.6075, 2876
22.61, 2935
22.6125, 2889
22.615, 2892
22.6175, 2907
22.62, 2911
22.6225, 2894
22.625, 2889
22.6275, 2942
22.63, 2900
22.6325, 2898
22.635, 2901
22.6375, 2922
22.64, 2928
22.6425, 2913
22.645, 2969
22.6475, 2912
22.65, 2904
22.6525, 2907
22.655, 2917
22.6575, 2912
22.66, 2914
22.6625, 2982
22.665, 2926
22.6675, 2923
22.67, 2919
22.6725, 2944
22.675, 2945
22.6775, 2951
22.68, 3006
22.6825, 2942
22.685, 2942
22.6875, 2937
22.69, 2960
22.6925, 2966
22.695, 2974
22.6975, 3035
22.7, 2998
22.7025, 2990
22.705, 2975
22.7075, 2987
22.71, 3006
22.7125, 3013
22.715, 3077
22.7175, 3032
22.72, 3040
22.7225, 3034
22.725, 3042
22.7275, 3041
22.73, 3053
22.7325, 3128
22.735, 3078
22.7375, 3075
22.74, 3078
22.7425, 3083
22.745, 3067
22.7475, 3066
22.75, 3126
22.7525, 3082
22.755, 3081
22.7575, 3075
22.76, 3071
22.7625, 3068
22.765, 3054
22.7675, 3104
22.77, 3050
22.7725, 3055
22.775, 3042
22.7775, 3027
22.78, 3013
22.7825, 2976
22.785, 3037
22.7875, 2967
22.79, 2949
22.7925, 2944
22.795, 2942
22.7975, 2926
22.8, 2903
22.8025, 2949
22.805, 2894
22.8075, 2878
22.81, 2868
22.8125, 2878
22.815, 2861
22.8175, 2864
22.82, 2908
22.8225, 2856
22.825, 2851
22.8275, 2834
22.83, 2835
22.8325, 2850
22.835, 2843
22.8375, 2894
22.84, 2836
22.8425, 2833
22.845, 2830
22.8475, 2836
22.85, 2832
22.8525, 2840
22.855, 2904
22.8575, 2851
22.86, 2846
22.8625, 2847
22.865, 2868
22.8675, 2864
22.87, 2859
22.8725, 2930
22.875, 2877
22.8775, 2871
22.88, 2872
22.8825, 2878
22.885, 2879
22.8875, 2879
22.89, 2942
22.8925, 2900
22.895, 2899
22.8975, 2899
22.9, 2891
22.9025, 2888
22.905, 2897
22.9075, 2964
22.91, 2911
22.9125, 2914
22.915, 2925
22.9175, 2932
22.92, 2930
22.9225, 2922
22.925, 2988
22.9275, 2944
22.93, 2950
22.9325, 2963
22.935, 2963
22.9375, 2960
22.94, 2961
22.9425, 3027
22.945, 2971
22.9475, 2974
22.95, 2979
22.9525, 2992
22.955, 2992
22.9575, 2986
22.96, 3046
22.9625, 2993
22.965, 2986
22.9675, 2991
22.97, 3001
22.9725, 2995
22.975, 2986
22.9775, 3040
22.98, 2985
22.9825, 2979
22.985, 2983
22.9875, 2991
22.99, 2993
22.9925, 2990
22.995, 3051
22.9975, 2988
23.0, 2992
23.0025, 2989
23.005, 3001
23.0075, 2999
23.01, 2998
23.0125, 3065
23.015, 3008
23.0175, 2991
23.02, 2995
23.0225, 2999
23.025, 2998
23.0275, 2998
23.03, 3057
23.0325, 3004
23.035, 2998
23.0375, 2994
23.04, 3008
23.0425, 2998
23.045, 2997
23.0475, 3061
23.05, 3007
23.0525, 2999
23.055, 2993
23.0575, 3004
23.06, 3001
23.0625, 3002
23.065, 3068
23.0675, 3015
23.07, 3006
23.0725, 2995
23.075, 3000
23.0775, 2997
23.08, 2999
23.0825, 3059
23.085, 3002
23.0875, 3007
23.09, 2995
23.0925, 2995
23.095, 3001
23.0975, 2994
23.1, 3061
23.1025, 3002
23.105, 3001
23.1075, 2994
23.11, 2997
23.1125, 2992
23.115, 2981
23.1175, 3044
23.12, 3002
23.1225, 2992
23.125, 2987
23.1275, 2993
23.13, 2979
23.1325, 2983
23.135, 3041
23.1375, 2986
23.14, 2989
23.1425, 2988
23.145, 2992
23.1475, 2988
23.15, 2975
23.1525, 3044
23.155, 2981
23.1575, 2980
23.16, 2980
23.1625, 2991
23.165, 2977
23.1675, 2976
23.17, 3034
23.1725, 2980
23.175, 2966
23.1775, 2972
23.18, 2982
23.1825, 2974
23.185, 2977
23.1875, 3036
23.19, 2988
23.1925, 2981
23.195, 2981
23.1975, 2993
23.2, 3000
23.2025, 2989
23.205, 3055
23.2075, 2994
23.21, 2985
23.2125, 2985
23.215, 2992
23.2175, 3000
23.22, 2998
23.2225, 3063
23.225, 3004
23.2275, 2992
23.23, 2976
23.2325, 2986
23.235, 2977
23.2375, 2971
23.24, 3039
23.2425, 2986
23.245, 2974
23.2475, 2963
23.25, 2975
23.2525, 2967
23.255, 2959
23.2575, 3028
23.26, 2981
23.2625, 2974
23.265, 2976
23.2675, 2981
23.27, 2967
23.2725, 2970
23.275, 3022
23.2775, 2985
23.28, 2983
23.2825, 2990
23.285, 2992
23.2875, 2967
23.29, 2956
23.2925, 3006
23.295, 2934
23.2975, 2927
23.3, 2909
23.3025, 2927
23.305, 2938
23.3075, 2974
23.31, 3104
23.3125, 3142
23.315, 3262
23.3175, 3347
23.32, 3431
23.3225, 3534
23.325, 3611
23.3275, 3702
23.33, 3609
23.3325, 3499
23.335, 3396
23.3375, 3291
23.34, 3107
23.3425, 2964
23.345, 2954
23.3475, 2836
23.35, 2808
23.3525, 2793
23.355, 2817
23.3575, 2861
23.36, 2899
23.3625, 2987
23.365, 2951
23.3675, 2957
23.37, 2968
23.3725, 2986
23.375, 2991
23.3775, 2995
23.38, 3067
23.3825, 3013
23.385, 3003
23.3875, 3002
23.39, 3011
23.3925, 3012
23.395, 3021
23.3975, 3093
23.4, 3035
23.4025, 3031
23.405, 3035
23.4075, 3047
23.41, 3047
23.4125, 3043
23.415, 3129
23.4175, 3080
23.42, 3095
23.4225, 3077
23.425, 3080
23.4275, 3082
23.43, 3080
23.4325, 3159
23.435, 3110
23.4375, 3112
23.44, 3120
