0.0025, 3011
0.005, 3019
0.0075, 3010
0.01, 2988
0.0125, 3006
0.015, 2990
0.0175, 2941
0.02, 2840
0.0225, 2762
0.025, 2688
0.0275, 2619
0.03, 2563
0.0325, 2495
0.035, 2496
0.0375, 2565
0.04, 2656
0.0425, 2753
0.045, 2825
0.0475, 2935
0.05, 3014
0.0525, 3044
0.055, 3077
0.0575, 3100
0.06, 3066
0.0625, 3035
0.065, 3015
0.0675, 2992
0.07, 2977
0.0725, 2956
0.075, 2967
0.0775, 2961
0.08, 2935
0.0825, 2939
0.085, 2901
0.0875, 2904
0.09, 2918
0.0925, 2937
0.095, 2939
0.0975, 2936
0.1, 2942
0.1025, 2940
0.105, 2918
0.1075, 2912
0.11, 2930
0.1125, 2938
0.115, 2951
0.1175, 2959
0.12, 2941
0.1225, 2930
0.125, 2917
0.1275, 2929
0.13, 2928
0.1325, 2939
0.135, 3055
0.1375, 2954
0.14, 2938
0.1425, 2939
0.145, 2934
0.1475, 2940
0.15, 2948
0.1525, 2965
0.155, 2958
0.1575, 2936
0.16, 2929
0.1625, 2918
0.165, 2912
0.1675, 2915
0.17, 2925
0.1725, 2928
0.175, 2939
0.1775, 2959
0.18, 2958
0.1825, 2924
0.185, 2908
0.1875, 2908
0.19, 2917
0.1925, 2930
0.195, 2928
0.1975, 2923
0.2, 2921
0.2025, 2908
0.205, 2923
0.2075, 2931
0.21, 2956
0.2125, 2953
0.215, 2934
0.2175, 2933
0.22, 2929
0.2225, 2908
0.225, 2896
0.2275, 2909
0.23, 2916
0.2325, 2925
0.235, 2930
0.2375, 2943
0.24, 2961
0.2425, 2939
0.245, 2944
0.2475, 2947
0.25, 2957
0.2525, 2959
0.255, 2953
0.2575, 3046
0.26, 2924
0.2625, 2921
0.265, 2933
0.2675, 2960
0.27, 2967
0.2725, 2951
0.275, 2955
0.2775, 2957
0.28, 2955
0.2825, 2949
0.285, 2943
0.2875, 2961
0.29, 2959
0.2925, 2954
0.295, 2947
0.2975, 2958
0.3, 2931
0.3025, 2932
0.305, 2928
0.3075, 2958
0.31, 2977
0.3125, 2952
0.315, 2931
0.3175, 2925
0.32, 2949
0.3225, 2940
0.325, 2927
0.3275, 2942
0.33, 2952
0.3325, 2954
0.335, 2951
0.3375, 2949
0.34, 2936
0.3425, 2915
0.345, 2923
0.3475, 2928
0.35, 2935
0.3525, 2927
0.355, 2917
0.3575, 2893
0.36, 2888
0.3625, 2920
0.365, 2922
0.3675, 2940
0.37, 2932
0.3725, 2927
0.375, 2909
0.3775, 2898
0.38, 3005
0.3825, 2918
0.385, 2918
0.3875, 2922
0.39, 2933
0.3925, 2921
0.395, 2928
0.3975, 2934
0.4, 2918
0.4025, 2940
0.405, 2947
0.4075, 2939
0.41, 2928
0.4125, 2926
0.415, 2935
0.4175, 2921
0.42, 2919
0.4225, 2928
0.425, 2940
0.4275, 2930
0.43, 2917
0.4325, 2911
0.435, 2899
0.4375, 2883
0.44, 2883
0.4425, 2926
0.445, 2924
0.4475, 2919
0.45, 2942
0.4525, 2941
0.455, 2936
0.4575, 2923
0.46, 2933
0.4625, 2924
0.465, 2938
0.4675, 2935
0.47, 2917
0.4725, 2921
0.475, 2952
0.4775, 2960
0.48, 2956
0.4825, 2957
0.485, 2959
0.4875, 2959
0.49, 2940
0.4925, 2946
0.495, 2948
0.4975, 2946
0.5, 2954
0.5025, 2980
0.505, 2991
0.5075, 2978
0.51, 2961
0.5125, 2967
0.515, 2962
0.5175, 2977
0.52, 2994
0.5225, 2983
0.525, 2990
0.5275, 2972
0.53, 2963
0.5325, 2941
0.535, 2942
0.5375, 2968
0.54, 2993
0.5425, 3016
0.545, 3003
0.5475, 2990
0.55, 2977
0.5525, 2965
0.555, 2987
0.5575, 3003
0.56, 3020
0.5625, 3037
0.565, 3056
0.5675, 3045
0.57, 3030
0.5725, 3007
0.575, 3001
0.5775, 2960
0.58, 2913
0.5825, 2860
0.585, 2786
0.5875, 2689
0.59, 2598
0.5925, 2515
0.595, 2484
0.5975, 2521
0.6, 2644
0.6025, 2752
0.605, 2852
0.6075, 2968
0.61, 3029
0.6125, 3101
0.615, 3137
0.6175, 3169
0.62, 3175
0.6225, 3150
0.625, 3102
0.6275, 3061
0.63, 3041
0.6325, 3033
0.635, 3016
0.6375, 3016
0.64, 3050
0.6425, 3154
0.645, 3040
0.6475, 3033
0.65, 3028
0.6525, 3016
0.655, 3018
0.6575, 3017
0.66, 3049
0.6625, 3039
0.665, 3044
0.6675, 3043
0.67, 3036
0.6725, 3030
0.675, 3030
0.6775, 3033
0.68, 3013
0.6825, 3028
0.685, 3034
0.6875, 3031
0.69, 3035
0.6925, 3019
0.695, 2998
0.6975, 2999
0.7, 3006
0.7025, 3000
0.705, 3025
0.7075, 3012
0.71, 3000
0.7125, 3024
0.715, 2998
0.7175, 3010
0.72, 3022
0.7225, 3016
0.725, 3012
0.7275, 2994
0.73, 3004
0.7325, 2995
0.735, 2978
0.7375, 3001
0.74, 3023
0.7425, 3004
0.745, 2985
0.7475, 2956
0.75, 2956
0.7525, 2972
0.755, 2980
0.7575, 2993
0.76, 2995
0.7625, 2992
0.765, 3085
0.7675, 2966
0.77, 2956
0.7725, 2967
0.775, 2987
0.7775, 2981
0.78, 2986
0.7825, 2978
0.785, 2944
0.7875, 2936
0.79, 2949
0.7925, 2990
0.795, 3012
0.7975, 3029
0.8, 3031
0.8025, 3014
0.805, 3017
0.8075, 3002
0.81, 3008
0.8125, 2992
0.815, 3001
0.8175, 3028
0.82, 3016
0.8225, 3016
0.825, 3019
0.8275, 3023
0.83, 3033
0.8325, 3034
0.835, 3049
0.8375, 3035
0.84, 3032
0.8425, 3025
0.845, 3015
0.8475, 3003
0.85, 3028
0.8525, 3061
0.855, 3068
0.8575, 3063
0.86, 3063
0.8625, 3026
0.865, 3021
0.8675, 3021
0.87, 3048
0.8725, 3059
0.875, 3057
0.8775, 3059
0.88, 3048
0.8825, 3036
0.885, 3022
0.8875, 3034
0.89, 3043
0.8925, 3055
0.895, 3045
0.8975, 3045
0.9, 3039
0.9025, 3016
0.905, 3111
0.9075, 3011
0.91, 3022
0.9125, 3044
0.915, 3041
0.9175, 3024
0.92, 2988
0.9225, 2974
0.925, 2978
0.9275, 3005
0.93, 3036
0.9325, 3048
0.935, 3021
0.9375, 3013
0.94, 3024
0.9425, 3011
0.945, 3006
0.9475, 2998
0.95, 3004
0.9525, 3016
0.955, 3005
0.9575, 3021
0.96, 3012
0.9625, 3005
0.965, 2991
0.9675, 2996
0.97, 3013
0.9725, 3023
0.975, 3028
0.9775, 3015
0.98, 3006
0.9825, 2991
0.985, 3004
0.9875, 3015
0.99, 3026
0.9925, 3019
0.995, 2994
0.9975, 2982
1.0, 2969
1.0025, 2968
1.005, 2962
1.0075, 2984
1.01, 3028
1.0125, 3026
1.015, 3000
1.0175, 3006
1.02, 2995
1.0225, 2987
1.025, 3000
1.0275, 3113
1.03, 3028
1.0325, 3007
1.035, 2985
1.0375, 2979
1.04, 2960
1.0425, 2976
1.045, 2987
1.0475, 2999
1.05, 2998
1.0525, 2980
1.055, 2976
1.0575, 2962
1.06, 2946
1.0625, 2952
1.065, 2977
1.0675, 2993
1.07, 2995
1.0725, 2988
1.075, 2967
1.0775, 2942
1.08, 2955
1.0825, 2962
1.085, 2972
1.0875, 2991
1.09, 3003
1.0925, 2974
1.095, 2969
1.0975, 3096
1.1, 2953
1.1025, 2964
1.105, 2959
1.1075, 2990
1.11, 3020
1.1125, 3002
1.115, 3010
1.1175, 2979
1.12, 2974
1.1225, 2995
1.125, 3016
1.1275, 3046
1.13, 3046
1.1325, 3058
1.135, 3039
1.1375, 3042
1.14, 3062
1.1425, 3060
1.145, 3048
1.1475, 3028
1.15, 2982
1.1525, 2908
1.155, 2820
1.1575, 2732
1.16, 2641
1.1625, 2566
1.165, 2531
1.1675, 2562
1.17, 2615
1.1725, 2712
1.175, 2759
1.1775, 2869
1.18, 2995
1.1825, 3085
1.185, 3161
1.1875, 3216
1.19, 3190
1.1925, 3169
1.195, 3157
1.1975, 3126
1.2, 3102
1.2025, 3095
1.205, 3091
1.2075, 3082
1.21, 3057
1.2125, 3052
1.215, 3037
1.2175, 3033
1.22, 3054
1.2225, 3054
1.225, 3052
1.2275, 3037
1.23, 3018
1.2325, 3019
1.235, 3007
1.2375, 3040
1.24, 3047
1.2425, 3036
1.245, 3037
1.2475, 3042
1.25, 3027
1.2525, 3023
1.255, 3024
1.2575, 3027
1.26, 3047
1.2625, 3056
1.265, 3054
1.2675, 3036
1.27, 3031
1.2725, 3026
1.275, 3009
1.2775, 3012
1.28, 3018
1.2825, 3029
1.285, 3032
1.2875, 3017
1.29, 3102
1.2925, 2991
1.295, 2991
1.2975, 2995
1.3, 3026
1.3025, 3041
1.305, 3036
1.3075, 3036
1.31, 3011
1.3125, 2998
1.315, 2994
1.3175, 2993
1.32, 3012
1.3225, 3014
1.325, 3015
1.3275, 3010
1.33, 3008
1.3325, 3003
1.335, 2993
1.3375, 2985
1.34, 2997
1.3425, 3014
1.345, 3013
1.3475, 3023
1.35, 3027
1.3525, 3020
1.355, 3017
1.3575, 3018
1.36, 3054
1.3625, 3049
1.365, 3035
1.3675, 3034
1.37, 3029
1.3725, 3022
1.375, 3037
1.3775, 3052
1.38, 3063
1.3825, 3082
1.385, 3072
1.3875, 3082
1.39, 3058
1.3925, 3043
1.395, 3064
1.3975, 3062
1.4, 3066
1.4025, 3071
1.405, 3056
1.4075, 3057
1.41, 3062
1.4125, 3161
1.415, 3089
1.4175, 3098
1.42, 3116
1.4225, 3125
1.425, 3102
1.4275, 3072
1.43, 3164
1.4325, 3065
1.435, 3072
1.4375, 3082
1.44, 3099
1.4425, 3097
1.445, 3089
1.4475, 3104
1.45, 3085
1.4525, 3089
1.455, 3091
1.4575, 3111
1.46, 3130
1.4625, 3118
1.465, 3109
1.4675, 3086
1.47, 3079
1.4725, 3077
1.475, 3064
1.4775, 3075
1.48, 3089
1.4825, 3099
1.485, 3084
1.4875, 3080
1.49, 3070
1.4925, 3081
1.495, 3085
1.4975, 3104
1.5, 3109
1.5025, 3095
1.505, 3078
1.5075, 3061
1.51, 3066
1.5125, 3080
1.515, 3085
1.5175, 3103
1.52, 3106
1.5225, 3106
1.525, 3106
1.5275, 3097
1.53, 3090
1.5325, 3081
1.535, 3096
1.5375, 3094
1.54, 3094
1.5425, 3099
1.545, 3090
1.5475, 3061
1.55, 3073
1.5525, 3179
1.555, 3094
1.5575, 3112
1.56, 3091
1.5625, 3093
1.565, 3067
1.5675, 3054
1.57, 3085
1.5725, 3070
1.575, 3089
1.5775, 3106
1.58, 3098
1.5825, 3087
1.585, 3066
1.5875, 3071
1.59, 3063
1.5925, 3106
1.595, 3117
1.5975, 3126
1.6, 3115
1.6025, 3106
1.605, 3085
1.6075, 3065
1.61, 3055
1.6125, 3078
1.615, 3124
1.6175, 3120
1.62, 3101
1.6225, 3105
1.625, 3078
1.6275, 3068
1.63, 3066
1.6325, 3094
1.635, 3119
1.6375, 3117
1.64, 3119
1.6425, 3109
1.645, 3088
1.6475, 3084
1.65, 3086
1.6525, 3089
1.655, 3090
1.6575, 3090
1.66, 3078
1.6625, 3073
1.665, 3062
1.6675, 3077
1.67, 3078
1.6725, 3079
1.675, 3198
1.6775, 3093
1.68, 3075
1.6825, 3063
1.685, 3061
1.6875, 3074
1.69, 3082
1.6925, 3090
1.695, 3078
1.6975, 3053
1.7, 3038
1.7025, 3015
1.705, 3017
1.7075, 3027
1.71, 3051
1.7125, 3062
1.715, 3059
1.7175, 3067
1.72, 3070
1.7225, 3056
1.725, 3060
1.7275, 3092
1.73, 3115
1.7325, 3120
1.735, 3110
1.7375, 3091
1.74, 3018
1.7425, 2932
1.745, 2886
1.7475, 2802
1.75, 2734
1.7525, 2632
1.755, 2586
1.7575, 2561
1.76, 2599
1.7625, 2712
1.765, 2814
1.7675, 2906
1.77, 3012
1.7725, 3106
1.775, 3159
1.7775, 3203
1.78, 3205
1.7825, 3189
1.785, 3170
1.7875, 3146
1.79, 3141
1.7925, 3113
1.795, 3082
1.7975, 3060
1.8, 3025
1.8025, 3032
1.805, 3019
1.8075, 3019
1.81, 3017
1.8125, 3013
1.815, 3107
1.8175, 2996
1.82, 2978
1.8225, 2978
1.825, 2986
1.8275, 3003
1.83, 3017
1.8325, 3026
1.835, 3017
1.8375, 3010
1.84, 3005
1.8425, 3009
1.845, 2998
1.8475, 3004
1.85, 3009
1.8525, 3003
1.855, 2977
1.8575, 2969
1.86, 2951
1.8625, 2965
1.865, 2967
1.8675, 2978
1.87, 2957
1.8725, 2946
1.875, 2961
1.8775, 2977
1.88, 2976
1.8825, 2981
1.885, 2994
1.8875, 3009
1.89, 3001
1.8925, 2985
1.895, 2965
1.8975, 2943
1.9, 2939
1.9025, 2937
1.905, 2959
1.9075, 2977
1.91, 2996
1.9125, 2987
1.915, 2961
1.9175, 2944
1.92, 2984
1.9225, 2997
1.925, 3003
1.9275, 3004
1.93, 2986
1.9325, 2957
1.935, 2947
1.9375, 2960
1.94, 2959
1.9425, 2992
1.945, 3012
1.9475, 3019
1.95, 3007
1.9525, 2990
1.955, 2981
1.9575, 2965
1.96, 2980
1.9625, 3002
1.965, 3021
1.9675, 3023
1.97, 3012
1.9725, 3009
1.975, 2989
1.9775, 2976
1.98, 3003
1.9825, 3029
1.985, 3051
1.9875, 3064
1.99, 3043
1.9925, 3046
1.995, 3055
1.9975, 3048
2.0, 3039
2.0025, 3062
2.005, 3070
2.0075, 3079
2.01, 3068
2.0125, 3053
2.015, 3050
2.0175, 3034
2.02, 3048
2.0225, 3066
2.025, 3094
2.0275, 3062
2.03, 3038
2.0325, 3017
2.035, 3010
2.0375, 3023
2.04, 3064
2.0425, 3102
2.045, 3098
2.0475, 3077
2.05, 3058
2.0525, 3045
2.055, 3045
2.0575, 3037
2.06, 3047
2.0625, 3045
2.065, 3046
2.0675, 3054
2.07, 3069
2.0725, 3045
2.075, 3035
2.0775, 3136
2.08, 3024
2.0825, 3048
2.085, 3056
2.0875, 3036
2.09, 3025
2.0925, 3028
2.095, 3052
2.0975, 3055
2.1, 3060
2.1025, 3055
2.105, 3024
2.1075, 3003
2.11, 2996
2.1125, 3009
2.115, 3026
2.1175, 3047
2.12, 3074
2.1225, 3077
2.125, 3069
2.1275, 3051
2.13, 3038
2.1325, 3016
2.135, 3016
2.1375, 3030
2.14, 3049
2.1425, 3043
2.145, 3036
2.1475, 3045
2.15, 3023
2.1525, 3012
2.155, 3015
2.1575, 3033
2.16, 3029
2.1625, 3019
2.165, 3022
2.1675, 3020
2.17, 3023
2.1725, 3047
2.175, 3064
2.1775, 3076
2.18, 3084
2.1825, 3090
2.185, 3067
2.1875, 3065
2.19, 3046
2.1925, 3041
2.195, 3053
2.1975, 3076
2.2, 3200
2.2025, 3085
2.205, 3074
2.2075, 3067
2.21, 3076
2.2125, 3086
2.215, 3085
2.2175, 3101
2.22, 3095
2.2225, 3063
2.225, 3050
2.2275, 3035
2.23, 3029
2.2325, 3063
2.235, 3077
2.2375, 3074
2.24, 3077
2.2425, 3050
2.245, 3031
2.2475, 3012
2.25, 2999
2.2525, 3023
2.255, 3017
2.2575, 3062
2.26, 3067
2.2625, 3049
2.265, 3038
2.2675, 3029
2.27, 3046
2.2725, 3040
2.275, 3044
2.2775, 3053
2.28, 3063
2.2825, 3051
2.285, 3041
2.2875, 3032
2.29, 3038
2.2925, 3048
2.295, 3037
2.2975, 3044
2.3, 3048
2.3025, 3046
2.305, 3035
2.3075, 3019
2.31, 3011
2.3125, 3024
2.315, 3031
2.3175, 3049
2.32, 3049
2.3225, 3135
2.325, 3021
2.3275, 3007
2.33, 3003
2.3325, 3060
2.335, 3099
2.3375, 3098
2.34, 3074
2.3425, 3031
2.345, 2989
2.3475, 2938
2.35, 2859
2.3525, 2788
2.355, 2730
2.3575, 2688
2.36, 2606
2.3625, 2567
2.365, 2563
2.3675, 2638
2.37, 2766
2.3725, 2887
2.375, 2997
2.3775, 3075
2.38, 3109
2.3825, 3132
2.385, 3153
2.3875, 3157
2.39, 3157
2.3925, 3160
2.395, 3150
2.3975, 3106
2.4, 3068
2.4025, 3033
2.405, 3021
2.4075, 3016
2.41, 3004
2.4125, 3011
2.415, 3018
2.4175, 3022
2.42, 3032
2.4225, 3024
2.425, 3005
2.4275, 3011
2.43, 2997
2.4325, 3012
2.435, 3016
2.4375, 3020
2.44, 3000
2.4425, 2986
2.445, 3089
2.4475, 3004
2.45, 3000
2.4525, 3000
2.455, 2994
2.4575, 2990
2.46, 2985
2.4625, 2979
2.465, 2956
2.4675, 2953
2.47, 2945
2.4725, 2992
2.475, 2999
2.4775, 2982
2.48, 2981
2.4825, 2955
2.485, 2946
2.4875, 2953
2.49, 2972
2.4925, 2971
2.495, 2956
2.4975, 2960
2.5, 2943
2.5025, 2933
2.505, 2946
2.5075, 2959
2.51, 2973
2.5125, 2973
2.515, 2946
2.5175, 2928
2.52, 2934
2.5225, 2922
2.525, 2937
2.5275, 2950
2.53, 2967
2.5325, 2972
2.535, 2958
2.5375, 2964
2.54, 2957
2.5425, 2969
2.545, 2972
2.5475, 2985
2.55, 3024
2.5525, 3010
2.555, 3012
2.5575, 2990
2.56, 2979
2.5625, 2972
2.565, 3001
2.5675, 3044
2.57, 3047
2.5725, 3033
2.575, 3017
2.5775, 3016
2.58, 3001
2.5825, 3007
2.585, 3064
2.5875, 3038
2.59, 3050
2.5925, 3043
2.595, 3050
2.5975, 3047
2.6, 3046
2.6025, 3068
2.605, 3048
2.6075, 3067
2.61, 3059
2.6125, 3059
2.615, 3047
2.6175, 3043
2.62, 3055
2.6225, 3052
2.625, 3055
2.6275, 3064
2.63, 3075
2.6325, 3060
2.635, 3065
2.6375, 3055
2.64, 3031
2.6425, 3029
2.645, 3038
2.6475, 3053
2.65, 3057
2.6525, 3048
2.655, 3052
2.6575, 3030
2.66, 3008
2.6625, 3024
2.665, 3030
2.6675, 3013
2.67, 3000
2.6725, 2997
2.675, 2994
2.6775, 2985
2.68, 2982
2.6825, 3003
2.685, 3004
2.6875, 3015
2.69, 2999
2.6925, 2981
2.695, 2954
2.6975, 2961
2.7, 2980
2.7025, 2995
2.705, 3004
2.7075, 3109
2.71, 3003
2.7125, 2984
2.715, 2960
2.7175, 2956
2.72, 2964
2.7225, 2968
2.725, 2988
2.7275, 2996
2.73, 2998
2.7325, 2969
2.735, 2964
2.7375, 2967
2.74, 2975
2.7425, 2992
2.745, 2988
2.7475, 2998
2.75, 2985
2.7525, 2966
2.755, 2967
2.7575, 2975
2.76, 2987
2.7625, 2976
2.765, 2970
2.7675, 2969
2.77, 2980
2.7725, 2975
2.775, 2951
2.7775, 2959
2.78, 2985
2.7825, 2992
2.785, 2981
2.7875, 2978
2.79, 2974
2.7925, 2974
2.795, 2973
2.7975, 2966
2.8, 2968
2.8025, 2984
2.805, 2987
2.8075, 2985
2.81, 2969
2.8125, 2948
2.815, 2929
2.8175, 2921
2.82, 2933
2.8225, 2953
2.825, 2951
2.8275, 2951
2.83, 2965
2.8325, 2951
2.835, 2948
2.8375, 2957
2.84, 2969
2.8425, 2968
2.845, 2971
2.8475, 2986
2.85, 2968
2.8525, 2966
2.855, 2975
2.8575, 2966
2.86, 2966
2.8625, 2956
2.865, 2940
2.8675, 2949
2.87, 2940
2.8725, 2928
2.875, 2949
2.8775, 2968
2.88, 2964
2.8825, 2974
2.885, 2966
2.8875, 2941
2.89, 2931
2.8925, 2919
2.895, 2942
2.8975, 2939
2.9, 2966
2.9025, 2967
2.905, 2970
2.9075, 2978
2.91, 3005
2.9125, 2991
2.915, 2992
2.9175, 2999
2.92, 2992
2.9225, 2987
2.925, 2966
2.9275, 2957
2.93, 2950
2.9325, 2939
2.935, 2976
2.9375, 2981
2.94, 3000
2.9425, 2999
2.945, 2990
2.9475, 2981
2.95, 2970
2.9525, 2996
2.955, 2994
2.9575, 3009
2.96, 3020
2.9625, 3023
2.965, 2995
2.9675, 2961
2.97, 3019
2.9725, 2890
2.975, 2836
2.9775, 2786
2.98, 2726
2.9825, 2661
2.985, 2546
2.9875, 2511
2.99, 2513
2.9925, 2582
2.995, 2705
2.9975, 2820
3.0, 2914
3.0025, 3019
3.005, 3095
3.0075, 3124
3.01, 3148
3.0125, 3161
3.015, 3158
3.0175, 3135
3.02, 3129
3.0225, 3117
3.025, 3095
3.0275, 3062
3.03, 3053
3.0325, 3055
3.035, 3062
3.0375, 3059
3.04, 3050
3.0425, 3034
3.045, 3016
3.0475, 2993
3.05, 3000
3.0525, 3016
3.055, 3038
3.0575, 3056
3.06, 3036
3.0625, 3027
3.065, 2986
3.0675, 2968
3.07, 2987
3.0725, 2979
3.075, 3026
3.0775, 3033
3.08, 3014
3.0825, 3021
3.085, 3007
3.0875, 3001
3.09, 3009
3.0925, 3032
3.095, 3035
3.0975, 3035
3.1, 3009
3.1025, 3012
3.105, 3015
3.1075, 3015
3.11, 3023
3.1125, 3010
3.115, 3012
3.1175, 3010
3.12, 3004
3.1225, 2998
3.125, 2982
3.1275, 2993
3.13, 3007
3.1325, 3012
3.135, 3017
3.1375, 3004
3.14, 2994
3.1425, 2982
3.145, 2993
3.1475, 2994
3.15, 2994
3.1525, 3001
3.155, 3055
3.1575, 3070
3.16, 3049
3.1625, 3040
3.165, 3014
3.1675, 3010
3.17, 3005
3.1725, 3027
3.175, 3044
3.1775, 3025
3.18, 3036
3.1825, 3006
3.185, 3002
3.1875, 3036
3.19, 3046
3.1925, 3068
3.195, 3047
3.1975, 3057
3.2, 3069
3.2025, 3067
3.205, 3062
3.2075, 3075
3.21, 3080
3.2125, 3103
3.215, 3085
3.2175, 3080
3.22, 3094
3.2225, 3098
3.225, 3093
3.2275, 3107
3.23, 3127
3.2325, 3156
3.235, 3144
3.2375, 3137
3.24, 3118
3.2425, 3117
3.245, 3146
3.2475, 3148
3.25, 3171
3.2525, 3154
3.255, 3151
3.2575, 3158
3.26, 3176
3.2625, 3181
3.265, 3183
3.2675, 3191
3.27, 3185
3.2725, 3174
3.275, 3166
3.2775, 3141
3.28, 3136
3.2825, 3146
3.285, 3281
3.2875, 3183
3.29, 3200
3.2925, 3220
3.295, 3218
3.2975, 3197
3.3, 3156
3.3025, 3145
3.305, 3156
3.3075, 3181
3.31, 3196
3.3125, 3196
3.315, 3181
3.3175, 3150
3.32, 3154
3.3225, 3147
3.325, 3178
3.3275, 3191
3.33, 3197
3.3325, 3207
3.335, 3196
3.3375, 3191
3.34, 3160
3.3425, 3161
3.345, 3154
3.3475, 3161
3.35, 3152
3.3525, 3137
3.355, 3163
3.3575, 3172
3.36, 3142
3.3625, 3154
3.365, 3162
3.3675, 3169
3.37, 3184
3.3725, 3276
3.375, 3140
3.3775, 3134
3.38, 3131
3.3825, 3146
3.385, 3163
3.3875, 3172
3.39, 3179
3.3925, 3148
3.395, 3132
3.3975, 3127
3.4, 3126
3.4025, 3139
3.405, 3142
3.4075, 3187
3.41, 3187
3.4125, 3169
3.415, 3163
3.4175, 3135
3.42, 3127
3.4225, 3145
3.425, 3160
3.4275, 3152
3.43, 3146
3.4325, 3136
3.435, 3148
3.4375, 3145
3.44, 3131
3.4425, 3161
3.445, 3151
3.4475, 3146
3.45, 3131
3.4525, 3133
3.455, 3117
3.4575, 3108
3.46, 3134
3.4625, 3141
3.465, 3147
3.4675, 3135
3.47, 3130
3.4725, 3116
3.475, 3110
3.4775, 3115
3.48, 3128
3.4825, 3148
3.485, 3156
3.4875, 3150
3.49, 3123
3.4925, 3109
3.495, 3203
3.4975, 3104
3.5, 3134
3.5025, 3137
3.505, 3153
3.5075, 3163
3.51, 3135
3.5125, 3121
3.515, 3086
3.5175, 3080
3.52, 3102
3.5225, 3124
3.525, 3136
3.5275, 3109
3.53, 3095
3.5325, 3071
3.535, 3066
3.5375, 3085
3.54, 3083
3.5425, 3095
3.545, 3121
3.5475, 3138
3.55, 3116
3.5525, 3107
3.555, 3089
3.5575, 3109
3.56, 3096
3.5625, 3111
3.565, 3135
3.5675, 3126
3.57, 3108
3.5725, 3089
3.575, 3073
3.5775, 3073
3.58, 3097
3.5825, 3131
3.585, 3111
3.5875, 3108
3.59, 3092
3.5925, 3084
3.595, 3076
3.5975, 3083
3.6, 3118
3.6025, 3135
3.605, 3153
3.6075, 3132
3.61, 3100
3.6125, 3048
3.615, 2998
3.6175, 3073
3.62, 2950
3.6225, 2890
3.625, 2795
3.6275, 2715
3.63, 2628
3.6325, 2618
3.635, 2663
3.6375, 2761
3.64, 2869
3.6425, 2946
3.645, 3053
3.6475, 3115
3.65, 3162
3.6525, 3216
3.655, 3239
3.6575, 3230
3.66, 3252
3.6625, 3256
3.665, 3178
3.6675, 3127
3.67, 3106
3.6725, 3083
3.675, 3091
3.6775, 3099
3.68, 3123
3.6825, 3136
3.685, 3125
3.6875, 3113
3.69, 3076
3.6925, 3053
3.695, 3061
3.6975, 3076
3.7, 3076
3.7025, 3072
3.705, 3091
3.7075, 3079
3.71, 3052
3.7125, 3038
3.715, 3044
3.7175, 3054
3.72, 3057
3.7225, 3053
3.725, 3054
3.7275, 3052
3.73, 3042
3.7325, 3055
3.735, 3045
3.7375, 3046
3.74, 3075
3.7425, 3032
3.745, 3013
3.7475, 2994
3.75, 2996
3.7525, 3022
3.755, 3044
3.7575, 3062
3.76, 3053
3.7625, 3035
3.765, 3031
3.7675, 3025
3.77, 3014
3.7725, 3025
3.775, 3033
3.7775, 3032
3.78, 3035
3.7825, 3022
3.785, 3042
3.7875, 3019
3.79, 3003
3.7925, 3008
3.795, 2992
3.7975, 2997
3.8, 2989
3.8025, 2988
3.805, 2983
3.8075, 2968
3.81, 3001
3.8125, 3017
3.815, 3020
3.8175, 3021
3.82, 3011
3.8225, 2996
3.825, 2999
3.8275, 2996
3.83, 2977
3.8325, 2985
3.835, 3005
3.8375, 3021
3.84, 3002
3.8425, 2986
3.845, 2997
3.8475, 3007
3.85, 3012
3.8525, 3011
3.855, 3018
3.8575, 3019
3.86, 3036
3.8625, 3070
3.865, 3036
3.8675, 3021
3.87, 3040
3.8725, 3046
3.875, 3042
3.8775, 3033
3.88, 3024
3.8825, 3005
3.885, 3000
3.8875, 3004
3.89, 3016
3.8925, 3048
3.895, 3087
3.8975, 3083
3.9, 3043
3.9025, 3022
3.905, 3028
3.9075, 3031
3.91, 3038
3.9125, 3042
3.915, 3068
3.9175, 3053
3.92, 3045
3.9225, 3031
3.925, 3023
3.9275, 3030
3.93, 3033
3.9325, 3038
3.935, 3031
3.9375, 3019
3.94, 3004
3.9425, 3013
3.945, 3005
3.9475, 3013
3.95, 3014
3.9525, 3028
3.955, 3021
3.9575, 2992
3.96, 2996
3.9625, 2987
3.965, 2985
3.9675, 3021
3.97, 3008
3.9725, 3024
3.975, 3009
3.9775, 3012
3.98, 2990
3.9825, 2956
3.985, 2963
3.9875, 2992
3.99, 2995
3.9925, 3016
3.995, 2998
3.9975, 2973
4.0, 2989
4.0025, 3099
4.005, 3009
4.0075, 2999
4.01, 2993
4.0125, 3019
4.015, 2994
4.0175, 3006
4.02, 3095
4.0225, 2987
4.025, 3000
4.0275, 2994
4.03, 3021
4.0325, 3012
4.035, 2994
4.0375, 2989
4.04, 2967
4.0425, 2971
4.045, 2996
4.0475, 3003
4.05, 3033
4.0525, 3024
4.055, 3026
4.0575, 2998
4.06, 2980
4.0625, 2979
4.065, 2997
4.0675, 3011
4.07, 3011
4.0725, 3027
4.075, 3008
4.0775, 3004
4.08, 2997
4.0825, 2996
4.085, 2996
4.0875, 3015
4.09, 3050
4.0925, 3047
4.095, 3029
4.0975, 2998
4.1, 2996
4.1025, 2984
4.105, 2987
4.1075, 3027
4.11, 3032
4.1125, 3033
4.115, 3017
4.1175, 2993
4.12, 2984
4.1225, 2982
4.125, 3005
4.1275, 3031
4.13, 3049
4.1325, 3023
4.135, 3018
4.1375, 2994
4.14, 2994
4.1425, 3125
4.145, 3044
4.1475, 3062
4.15, 3040
4.1525, 3046
4.155, 3043
4.1575, 3050
4.16, 3050
4.1625, 3048
4.165, 3053
4.1675, 3078
4.17, 3074
4.1725, 3065
4.175, 3044
4.1775, 3035
4.18, 3021
4.1825, 3014
4.185, 3045
4.1875, 3065
4.19, 3054
4.1925, 3054
4.195, 3024
4.1975, 3011
4.2, 3019
4.2025, 3004
4.205, 3051
4.2075, 3070
4.21, 3066
4.2125, 3062
4.215, 3019
4.2175, 3014
4.22, 3055
4.2225, 3079
4.225, 3079
4.2275, 3084
4.23, 3060
4.2325, 3027
4.235, 3017
4.2375, 3011
4.24, 3036
4.2425, 3058
4.245, 3065
4.2475, 3074
4.25, 3067
4.2525, 3039
4.255, 3025
4.2575, 3029
4.26, 3027
4.2625, 3026
4.265, 3165
4.2675, 3098
4.27, 3094
4.2725, 3085
4.275, 3071
4.2775, 3042
4.28, 3005
4.2825, 2983
4.285, 2954
4.2875, 2917
4.29, 2837
4.2925, 2739
4.295, 2657
4.2975, 2602
4.3, 2593
4.3025, 2625
4.305, 2710
4.3075, 2806
4.31, 2889
4.3125, 2985
4.315, 3087
4.3175, 3197
4.32, 3206
4.3225, 3245
4.325, 3242
4.3275, 3204
4.33, 3168
4.3325, 3146
4.335, 3132
4.3375, 3124
4.34, 3112
4.3425, 3114
4.345, 3122
4.3475, 3084
4.35, 3080
4.3525, 3080
4.355, 3067
4.3575, 3095
4.36, 3118
4.3625, 3119
4.365, 3091
4.3675, 3081
4.37, 3094
4.3725, 3064
4.375, 3068
4.3775, 3065
4.38, 3058
4.3825, 3044
4.385, 3051
4.3875, 3085
4.39, 3094
4.3925, 3084
4.395, 3092
4.3975, 3106
4.4, 3103
4.4025, 3111
4.405, 3198
4.4075, 3080
4.41, 3055
4.4125, 3044
4.415, 3064
4.4175, 3083
4.42, 3097
4.4225, 3095
4.425, 3047
4.4275, 3063
4.43, 3056
4.4325, 3040
4.435, 3026
4.4375, 3016
4.44, 3063
4.4425, 3069
4.445, 3036
4.4475, 3006
4.45, 3017
4.4525, 3032
4.455, 3064
4.4575, 3107
4.46, 3109
4.4625, 3090
4.465, 3063
4.4675, 3043
4.47, 3007
4.4725, 2987
4.475, 3016
4.4775, 3039
4.48, 3045
4.4825, 3038
4.485, 3040
4.4875, 3037
4.49, 3007
4.4925, 3019
4.495, 3018
4.4975, 3032
4.5, 3062
4.5025, 3029
4.505, 3033
4.5075, 3068
4.51, 3068
4.5125, 3051
4.515, 3082
4.5175, 3107
4.52, 3076
4.5225, 3070
4.525, 3074
4.5275, 3161
4.53, 3078
4.5325, 3067
4.535, 3096
4.5375, 3097
4.54, 3093
4.5425, 3089
4.545, 3094
4.5475, 3049
4.55, 3053
4.5525, 3042
4.555, 3077
4.5575, 3104
4.56, 3105
4.5625, 3099
4.565, 3071
4.5675, 3061
4.57, 3084
4.5725, 3097
4.575, 3135
4.5775, 3117
4.58, 3119
4.5825, 3086
4.585, 3046
4.5875, 3035
4.59, 3057
4.5925, 3084
4.595, 3129
4.5975, 3156
4.6, 3103
4.6025, 3061
4.605, 3053
4.6075, 3060
4.61, 3083
4.6125, 3045
4.615, 3077
4.6175, 3075
4.62, 3070
4.6225, 3048
4.625, 3033
4.6275, 3045
4.63, 3061
4.6325, 3058
4.635, 3055
4.6375, 3021
4.64, 3014
4.6425, 3011
4.645, 2988
4.6475, 2995
4.65, 3017
4.6525, 3040
4.655, 3043
4.6575, 3020
4.66, 3018
4.6625, 2984
4.665, 2985
4.6675, 3009
4.67, 3003
4.6725, 3012
4.675, 2973
4.6775, 2932
4.68, 2954
4.6825, 2985
4.685, 2964
4.6875, 2958
4.69, 2984
4.6925, 3071
4.695, 3072
4.6975, 3008
4.7, 2975
4.7025, 2953
4.705, 2983
4.7075, 2968
4.71, 2996
4.7125, 3019
4.715, 3043
4.7175, 3004
4.72, 2959
4.7225, 2930
4.725, 2863
4.7275, 2906
4.73, 3015
4.7325, 3021
4.735, 3010
4.7375, 3009
4.74, 2965
4.7425, 2964
4.745, 2951
4.7475, 3003
4.75, 3034
4.7525, 3010
4.755, 3012
4.7575, 2970
4.76, 2942
4.7625, 2925
4.765, 2956
4.7675, 2935
4.77, 2965
4.7725, 2988
4.775, 2951
4.7775, 2938
4.78, 2893
4.7825, 2879
4.785, 2891
4.7875, 2960
4.79, 3086
4.7925, 2965
4.795, 2939
4.7975, 2911
4.8, 2915
4.8025, 2913
4.805, 2918
4.8075, 2927
4.81, 2902
4.8125, 2878
4.815, 2893
4.8175, 2957
4.82, 2904
4.8225, 2908
4.825, 2924
4.8275, 2952
4.83, 2957
4.8325, 2947
4.835, 2948
4.8375, 2931
4.84, 2872
4.8425, 2864
4.845, 2874
4.8475, 2896
4.85, 2904
4.8525, 2854
4.855, 2829
4.8575, 2875
4.86, 2878
4.8625, 2874
4.865, 2860
4.8675, 2863
4.87, 2902
4.8725, 2920
4.875, 2901
4.8775, 2880
4.88, 2831
4.8825, 2818
4.885, 2829
4.8875, 2901
4.89, 2971
4.8925, 2931
4.895, 2870
4.8975, 2832
4.9, 2842
4.9025, 2900
4.905, 2901
4.9075, 2913
4.91, 2877
4.9125, 2958
4.915, 2854
4.9175, 2811
4.92, 2824
4.9225, 2881
4.925, 2881
4.9275, 2927
4.93, 2921
4.9325, 2898
4.935, 2912
4.9375, 2914
4.94, 2923
4.9425, 2873
4.945, 2862
4.9475, 2889
4.95, 2846
4.9525, 2777
4.955, 2655
4.9575, 2568
4.96, 2549
4.9625, 2509
4.965, 2464
4.9675, 2457
4.97, 2512
4.9725, 2602
4.975, 2723
4.9775, 2805
4.98, 2899
4.9825, 2985
4.985, 3063
4.9875, 3079
4.99, 3068
4.9925, 3041
4.995, 2966
4.9975, 2981
5.0, 3047
5.0025, 2946
5.005, 2937
5.0075, 2926
5.01, 2907
5.0125, 2921
5.015, 2902
5.0175, 2903
5.02, 2910
5.0225, 2967
5.025, 2989
5.0275, 2975
5.03, 2951
5.0325, 2929
5.035, 2924
5.0375, 2894
5.04, 2874
5.0425, 2854
5.045, 2903
5.0475, 2942
5.05, 2939
5.0525, 2934
5.055, 2896
5.0575, 2883
5.06, 2890
5.0625, 2914
5.065, 2926
5.0675, 2950
5.07, 2948
5.0725, 2901
5.075, 2878
5.0775, 2869
5.08, 2898
5.0825, 2901
5.085, 2895
5.0875, 2886
5.09, 2892
5.0925, 2899
5.095, 2877
5.0975, 2866
5.1, 2891
5.1025, 2914
5.105, 2921
5.1075, 2877
5.11, 2857
5.1125, 2852
5.115, 2849
5.1175, 2853
5.12, 2904
5.1225, 2905
5.125, 2888
5.1275, 2863
5.13, 2853
5.1325, 2834
5.135, 2870
5.1375, 2905
5.14, 2975
5.1425, 2913
5.145, 2909
5.1475, 2833
5.15, 2804
5.1525, 2854
5.155, 2886
5.1575, 2884
5.16, 2891
5.1625, 2908
5.165, 2988
5.1675, 2962
5.17, 2937
5.1725, 2886
5.175, 2991
5.1775, 2887
5.18, 2904
5.1825, 2909
5.185, 2969
5.1875, 2931
5.19, 2929
5.1925, 2898
5.195, 2885
5.1975, 2882
5.2, 2940
5.2025, 2976
5.205, 2979
5.2075, 2982
5.21, 2998
5.2125, 2978
5.215, 2978
5.2175, 2942
5.22, 2947
5.2225, 2951
5.225, 2981
5.2275, 2996
5.23, 2980
5.2325, 2984
5.235, 2962
5.2375, 2982
5.24, 2993
5.2425, 2995
5.245, 3020
5.2475, 2978
5.25, 2942
5.2525, 2979
5.255, 2963
5.2575, 2921
5.26, 2948
5.2625, 2969
5.265, 3010
5.2675, 2977
5.27, 2954
5.2725, 2983
5.275, 2951
5.2775, 2953
5.28, 2957
5.2825, 2975
5.285, 2977
5.2875, 2949
5.29, 2947
5.2925, 2947
5.295, 2993
5.2975, 3143
5.3, 3032
5.3025, 3004
5.305, 2965
5.3075, 2945
5.31, 2951
5.3125, 2942
5.315, 2998
5.3175, 3024
5.32, 3027
5.3225, 2992
5.325, 2987
5.3275, 2952
5.33, 2951
5.3325, 2983
5.335, 3021
5.3375, 3027
5.34, 2980
5.3425, 2998
5.345, 2979
5.3475, 2915
5.35, 2991
5.3525, 3010
5.355, 2989
5.3575, 3022
5.36, 3030
5.3625, 3018
5.365, 2994
5.3675, 3021
5.37, 3022
5.3725, 3032
5.375, 2972
5.3775, 2993
5.38, 3026
5.3825, 3016
5.385, 3037
5.3875, 3046
5.39, 3042
5.3925, 3018
5.395, 3022
5.3975, 3022
5.4, 3030
5.4025, 3023
5.405, 3027
5.4075, 3032
5.41, 3034
5.4125, 3060
5.415, 3069
5.4175, 3043
5.42, 3041
5.4225, 3049
5.425, 3005
5.4275, 2986
5.43, 3002
5.4325, 3042
5.435, 3050
5.4375, 3156
5.44, 3079
5.4425, 3007
5.445, 2960
5.4475, 3004
5.45, 3046
5.4525, 3051
5.455, 3090
5.4575, 3079
5.46, 3075
5.4625, 3037
5.465, 2982
5.4675, 2976
5.47, 2969
5.4725, 3040
5.475, 3049
5.4775, 3050
5.48, 3040
5.4825, 3003
5.485, 2971
5.4875, 2959
5.49, 2992
5.4925, 3012
5.495, 3036
5.4975, 3026
5.5, 3002
5.5025, 2962
5.505, 3008
5.5075, 3036
5.51, 3025
5.5125, 3022
5.515, 3019
5.5175, 3031
5.52, 3006
5.5225, 2967
5.525, 2955
5.5275, 2975
5.53, 2976
5.5325, 2996
5.535, 3021
5.5375, 3021
5.54, 3014
5.5425, 3009
5.545, 3038
5.5475, 3008
5.55, 2981
5.5525, 2982
5.555, 3019
5.5575, 3031
5.56, 3137
5.5625, 3035
5.565, 3033
5.5675, 3024
5.57, 3055
5.5725, 3005
5.575, 2931
5.5775, 2864
5.58, 2765
5.5825, 2712
5.585, 2679
5.5875, 2590
5.59, 2543
5.5925, 2558
5.595, 2636
5.5975, 2707
5.6, 2820
5.6025, 2948
5.605, 3075
5.6075, 3161
5.61, 3180
5.6125, 3159
5.615, 3144
5.6175, 3151
5.62, 3140
5.6225, 3143
5.625, 3138
5.6275, 3113
5.63, 3104
5.6325, 3062
5.635, 3054
5.6375, 3046
5.64, 3045
5.6425, 3058
5.645, 3075
5.6475, 3093
5.65, 3094
5.6525, 3083
5.655, 3061
5.6575, 3050
5.66, 3062
5.6625, 3075
5.665, 3085
5.6675, 3105
5.67, 3092
5.6725, 3080
5.675, 3082
5.6775, 3050
5.68, 3040
5.6825, 3039
5.685, 3041
5.6875, 3041
5.69, 3029
5.6925, 3048
5.695, 3038
5.6975, 3003
5.7, 2998
5.7025, 3000
5.705, 3004
5.7075, 3007
5.71, 2998
5.7125, 3017
5.715, 3006
5.7175, 2995
5.72, 3007
5.7225, 3021
5.725, 3022
5.7275, 2991
5.73, 2965
5.7325, 2948
5.735, 2967
5.7375, 2950
5.74, 2961
5.7425, 2968
5.745, 2964
5.7475, 2931
5.75, 2901
5.7525, 2915
5.755, 2903
5.7575, 2907
5.76, 2907
5.7625, 2915
5.765, 2938
5.7675, 2948
5.77, 2956
5.7725, 2940
5.775, 2945
5.7775, 2924
5.78, 2946
5.7825, 2968
5.785, 2971
5.7875, 2973
5.79, 2957
5.7925, 2970
5.795, 2960
5.7975, 2946
5.8, 2965
5.8025, 3000
5.805, 3012
5.8075, 2993
5.81, 2968
5.8125, 2972
5.815, 2961
5.8175, 2975
5.82, 3012
5.8225, 3052
5.825, 3070
5.8275, 3069
5.83, 3074
5.8325, 3074
5.835, 3035
5.8375, 3028
5.84, 3029
5.8425, 3040
5.845, 3097
5.8475, 3120
5.85, 3105
5.8525, 3098
5.855, 3102
5.8575, 3100
5.86, 3129
5.8625, 3123
5.865, 3132
5.8675, 3088
5.87, 3079
5.8725, 3086
5.875, 3114
5.8775, 3086
5.88, 3083
5.8825, 3100
5.885, 3068
5.8875, 3048
5.89, 3072
5.8925, 3095
5.895, 3120
5.8975, 3107
5.9, 3051
5.9025, 3042
5.905, 3044
5.9075, 3076
5.91, 3074
5.9125, 3051
5.915, 3047
5.9175, 3045
5.92, 3054
5.9225, 3081
5.925, 3074
5.9275, 3053
5.93, 3029
5.9325, 3012
5.935, 3032
5.9375, 3037
5.94, 3029
5.9425, 3038
5.945, 3149
5.9475, 3054
5.95, 3057
5.9525, 2978
5.955, 2974
5.9575, 2977
5.96, 2974
5.9625, 2993
5.965, 2996
5.9675, 3022
5.97, 3009
5.9725, 2989
5.975, 2983
5.9775, 3017
5.98, 3018
5.9825, 3034
5.985, 3012
5.9875, 2999
5.99, 2991
5.9925, 2976
5.995, 2994
5.9975, 3019
6.0, 2985
6.0025, 2997
6.005, 2978
6.0075, 2992
6.01, 3004
6.0125, 2996
6.015, 3037
6.0175, 3003
6.02, 2997
6.0225, 3005
6.025, 3010
6.0275, 2971
6.03, 2947
6.0325, 2998
6.035, 2979
6.0375, 3021
6.04, 3006
6.0425, 3030
6.045, 3031
6.0475, 3019
6.05, 3029
6.0525, 2975
6.055, 3024
6.0575, 3022
6.06, 3000
6.0625, 2959
6.065, 2965
6.0675, 2958
6.07, 2993
6.0725, 3073
6.075, 3077
6.0775, 3036
6.08, 2989
6.0825, 2959
6.085, 3008
6.0875, 2896
6.09, 2925
6.0925, 2932
6.095, 2999
6.0975, 3040
6.1, 3054
6.1025, 3079
6.105, 3000
6.1075, 2922
6.11, 2895
6.1125, 2954
6.115, 2987
6.1175, 3002
6.12, 2985
6.1225, 2960
6.125, 2947
6.1275, 2969
6.13, 3034
6.1325, 3032
6.135, 3051
6.1375, 3050
6.14, 3055
6.1425, 3021
6.145, 2979
6.1475, 2994
6.15, 3031
6.1525, 3059
6.155, 3095
6.1575, 3082
6.16, 3040
6.1625, 3029
6.165, 3022
6.1675, 3035
6.17, 3057
6.1725, 3099
6.175, 3092
6.1775, 3055
6.18, 3066
6.1825, 3095
6.185, 3102
6.1875, 3120
6.19, 3146
6.1925, 3127
6.195, 3092
6.1975, 3061
6.2, 3027
6.2025, 2962
6.205, 2841
6.2075, 2776
6.21, 2739
6.2125, 2715
6.215, 2621
6.2175, 2605
6.22, 2645
6.2225, 2761
6.225, 2982
6.2275, 2992
6.23, 3072
6.2325, 3168
6.235, 3206
6.2375, 3243
6.24, 3263
6.2425, 3263
6.245, 3222
6.2475, 3225
6.25, 3222
6.2525, 3203
6.255, 3156
6.2575, 3106
6.26, 3095
6.2625, 3062
6.265, 3043
6.2675, 3048
6.27, 3066
6.2725, 3068
6.275, 3088
6.2775, 3168
6.28, 3050
6.2825, 3041
6.285, 3056
6.2875, 3092
6.29, 3098
6.2925, 3065
6.295, 3072
6.2975, 3059
6.3, 3039
6.3025, 3014
6.305, 3046
6.3075, 3024
6.31, 3019
6.3125, 3008
6.315, 2980
6.3175, 2960
6.32, 2942
6.3225, 2958
6.325, 2998
6.3275, 3009
6.33, 2998
6.3325, 2939
6.335, 2921
6.3375, 2919
6.34, 2911
6.3425, 2941
6.345, 2947
6.3475, 2969
6.35, 2933
6.3525, 2914
6.355, 2946
6.3575, 2966
6.36, 2938
6.3625, 2926
6.365, 2944
6.3675, 2921
6.37, 2910
6.3725, 2900
6.375, 2903
6.3775, 2894
6.38, 2862
6.3825, 2860
6.385, 2879
6.3875, 2906
6.39, 2902
6.3925, 2893
6.395, 2902
6.3975, 2887
6.4, 2888
6.4025, 2919
6.405, 2920
6.4075, 2899
6.41, 2879
6.4125, 2871
6.415, 2845
6.4175, 2856
6.42, 2879
6.4225, 2910
6.425, 2925
6.4275, 2942
6.43, 2948
6.4325, 2944
6.435, 2941
6.4375, 2904
6.44, 2883
6.4425, 2900
6.445, 2919
6.4475, 2965
6.45, 2986
6.4525, 2992
6.455, 2959
6.4575, 2933
6.46, 2922
6.4625, 2916
6.465, 2977
6.4675, 3027
6.47, 3135
6.4725, 3046
6.475, 3075
6.4775, 3027
6.48, 3026
6.4825, 3025
6.485, 3040
6.4875, 3088
6.49, 3079
6.4925, 3089
6.495, 3054
6.4975, 3045
6.5, 3044
6.5025, 3032
6.505, 3065
6.5075, 3059
6.51, 3059
6.5125, 3033
6.515, 3023
6.5175, 3048
6.52, 3094
6.5225, 3115
6.525, 3086
6.5275, 3047
6.53, 3030
6.5325, 3054
6.535, 3009
6.5375, 3044
6.54, 3091
6.5425, 3071
6.545, 3048
6.5475, 3010
6.55, 3027
6.5525, 3040
6.555, 3036
6.5575, 3032
6.56, 3015
6.5625, 3001
6.565, 3001
6.5675, 3023
6.57, 3027
6.5725, 3039
6.575, 3034
6.5775, 3024
6.58, 3019
6.5825, 3026
6.585, 3008
6.5875, 2992
6.59, 2990
6.5925, 3080
6.595, 3012
6.5975, 2994
6.6, 2967
6.6025, 2989
6.605, 2985
6.6075, 2954
6.61, 2980
6.6125, 3008
6.615, 3006
6.6175, 2989
6.62, 2982
6.6225, 3006
6.625, 3017
6.6275, 2990
6.63, 2979
6.6325, 2954
6.635, 2957
6.6375, 2976
6.64, 3003
6.6425, 3015
6.645, 3023
6.6475, 2988
6.65, 3001
6.6525, 2984
6.655, 3011
6.6575, 2993
6.66, 2971
6.6625, 2981
6.665, 2969
6.6675, 2960
6.67, 2977
6.6725, 2986
6.675, 2976
6.6775, 2981
6.68, 2994
6.6825, 2973
6.685, 2974
6.6875, 2975
6.69, 2957
6.6925, 2933
6.695, 2945
6.6975, 2962
6.7, 2934
6.7025, 2952
6.705, 2955
6.7075, 2965
6.71, 2955
6.7125, 2959
6.715, 2977
6.7175, 2957
6.72, 2952
6.7225, 2946
6.725, 2958
6.7275, 2937
6.73, 2902
6.7325, 2916
6.735, 2931
6.7375, 2985
6.74, 2982
6.7425, 2966
6.745, 2964
6.7475, 2966
6.75, 2964
6.7525, 2958
6.755, 2970
6.7575, 2971
6.76, 2950
6.7625, 2962
6.765, 2975
6.7675, 2983
6.77, 2953
6.7725, 2948
6.775, 2975
6.7775, 2999
6.78, 2988
6.7825, 2967
6.785, 2974
6.7875, 2962
6.79, 2987
6.7925, 3005
6.795, 3021
6.7975, 3051
6.8, 3057
6.8025, 3054
6.805, 3004
6.8075, 2930
6.81, 2876
6.8125, 2840
6.815, 2784
6.8175, 2763
6.82, 2723
6.8225, 2610
6.825, 2586
6.8275, 2587
6.83, 2683
6.8325, 2825
6.835, 2922
6.8375, 3035
6.84, 3137
6.8425, 3219
6.845, 3260
6.8475, 3282
6.85, 3310
6.8525, 3354
6.855, 3358
6.8575, 3347
6.86, 3320
6.8625, 3280
6.865, 3277
6.8675, 3261
6.87, 3238
6.8725, 3231
6.875, 3239
6.8775, 3276
6.88, 3280
6.8825, 3289
6.885, 3280
6.8875, 3282
6.89, 3286
6.8925, 3278
6.895, 3268
6.8975, 3257
6.9, 3241
6.9025, 3229
6.905, 3196
6.9075, 3195
6.91, 3219
6.9125, 3271
6.915, 3255
6.9175, 3243
6.92, 3241
6.9225, 3280
6.925, 3293
6.9275, 3275
6.93, 3268
6.9325, 3294
6.935, 3283
6.9375, 3267
6.94, 3252
6.9425, 3228
6.945, 3213
6.9475, 3206
6.95, 3223
6.9525, 3250
6.955, 3295
6.9575, 3297
6.96, 3312
6.9625, 3284
6.965, 3293
6.9675, 3273
6.97, 3260
6.9725, 3289
6.975, 3326
6.9775, 3337
6.98, 3316
6.9825, 3275
6.985, 3248
6.9875, 3247
6.99, 3259
6.9925, 3262
6.995, 3262
6.9975, 3235
7.0, 3245
7.0025, 3191
7.005, 3161
7.0075, 3158
7.01, 3169
7.0125, 3216
7.015, 3178
7.0175, 3170
7.02, 3159
7.0225, 3139
7.025, 3179
7.0275, 3152
7.03, 3112
7.0325, 3095
7.035, 3083
7.0375, 3112
7.04, 3093
7.0425, 3081
7.045, 3080
7.0475, 3094
7.05, 3077
7.0525, 3045
7.055, 3033
7.0575, 3015
7.06, 3008
7.0625, 3005
7.065, 2998
7.0675, 2966
7.07, 2949
7.0725, 2938
7.075, 2963
7.0775, 2926
7.08, 2913
7.0825, 2917
7.085, 2921
7.0875, 2951
7.09, 2942
7.0925, 2935
7.095, 2897
7.0975, 2870
7.1, 2893
7.1025, 2859
7.105, 2838
7.1075, 2868
7.11, 2884
7.1125, 2871
7.115, 2884
7.1175, 2915
7.12, 2862
7.1225, 2843
7.125, 2846
7.1275, 2834
7.13, 2829
7.1325, 2827
7.135, 2868
7.1375, 2840
7.14, 2827
7.1425, 2799
7.145, 2795
7.1475, 2797
7.15, 2797
7.1525, 2826
7.155, 2818
7.1575, 2792
7.16, 2774
7.1625, 2779
7.165, 2773
7.1675, 2784
7.17, 2771
7.1725, 2721
7.175, 2708
7.1775, 2741
7.18, 2775
7.1825, 2791
7.185, 2842
7.1875, 2854
7.19, 2837
7.1925, 2818
7.195, 2808
7.1975, 2811
7.2, 2823
7.2025, 2809
7.205, 2800
7.2075, 2795
7.21, 2777
7.2125, 2759
7.215, 2746
7.2175, 2778
7.22, 2770
7.2225, 2790
7.225, 2794
7.2275, 2826
7.23, 2838
7.2325, 2816
7.235, 2794
7.2375, 2778
7.24, 2804
7.2425, 2811
7.245, 2806
7.2475, 2782
7.25, 2753
7.2525, 2743
7.255, 2767
7.2575, 2784
7.26, 2813
7.2625, 2860
7.265, 2843
7.2675, 2839
7.27, 2838
7.2725, 2839
7.275, 2842
7.2775, 2809
7.28, 2823
7.2825, 2833
7.285, 2837
7.2875, 2863
7.29, 2838
7.2925, 2837
7.295, 2828
7.2975, 2849
7.3, 2841
7.3025, 2851
7.305, 2843
7.3075, 2841
7.31, 2947
7.3125, 2866
7.315, 2874
7.3175, 2872
7.32, 2872
7.3225, 2837
7.325, 2824
7.3275, 2820
7.33, 2846
7.3325, 2864
7.335, 2851
7.3375, 2863
7.34, 2852
7.3425, 2842
7.345, 2856
7.3475, 2827
7.35, 2810
7.3525, 2804
7.355, 2802
7.3575, 2831
7.36, 2872
7.3625, 2947
7.365, 2950
7.3675, 2930
7.37, 2906
7.3725, 2897
7.375, 2869
7.3775, 2885
7.38, 2898
7.3825, 2892
7.385, 2880
7.3875, 2879
7.39, 2886
7.3925, 2880
7.395, 2887
7.3975, 2931
7.4, 2932
7.4025, 2938
7.405, 2928
7.4075, 2943
7.41, 2956
7.4125, 2929
7.415, 2915
7.4175, 2876
7.42, 2839
7.4225, 2784
7.425, 2710
7.4275, 2634
7.43, 2601
7.4325, 2559
7.435, 2482
7.4375, 2480
7.44, 2474
7.4425, 2519
7.445, 2612
7.4475, 2728
7.45, 2842
7.4525, 2940
7.455, 3023
7.4575, 3051
7.46, 3055
7.4625, 3077
7.465, 3071
7.4675, 3072
7.47, 3040
7.4725, 3044
7.475, 3019
7.4775, 2989
7.48, 2972
7.4825, 2939
7.485, 2945
7.4875, 2912
7.49, 2959
7.4925, 2956
7.495, 2960
7.4975, 2948
7.5, 2929
7.5025, 2951
7.505, 2959
7.5075, 2953
7.51, 2949
7.5125, 2926
7.515, 2916
7.5175, 2940
7.52, 2947
7.5225, 2932
7.525, 2928
7.5275, 2954
7.53, 2950
7.5325, 2916
7.535, 2873
7.5375, 2870
7.54, 2907
7.5425, 2933
7.545, 2948
7.5475, 2923
7.55, 2897
7.5525, 2908
7.555, 2928
7.5575, 2961
7.56, 2935
7.5625, 2896
7.565, 2870
7.5675, 2881
7.57, 2895
7.5725, 2896
7.575, 2900
7.5775, 2918
7.58, 2912
7.5825, 2917
7.585, 2898
7.5875, 2858
7.59, 2894
7.5925, 2930
7.595, 2913
7.5975, 2899
7.6, 2929
7.6025, 2926
7.605, 2917
7.6075, 2894
7.61, 2876
7.6125, 2871
7.615, 2909
7.6175, 2914
7.62, 2924
7.6225, 2956
7.625, 2954
7.6275, 2918
7.63, 2921
7.6325, 2903
7.635, 2916
7.6375, 2920
7.64, 2911
7.6425, 2923
7.645, 2907
7.6475, 2907
7.65, 2927
7.6525, 2949
7.655, 2938
7.6575, 2914
7.66, 2930
7.6625, 2961
7.665, 2970
7.6675, 2956
7.67, 2996
7.6725, 3017
7.675, 3007
7.6775, 2993
7.68, 2956
7.6825, 2948
7.685, 2955
7.6875, 2973
7.69, 2996
7.6925, 3017
7.695, 3017
7.6975, 3003
7.7, 3015
7.7025, 2993
7.705, 2992
7.7075, 3035
7.71, 3040
7.7125, 3021
7.715, 3012
7.7175, 3024
7.72, 3027
7.7225, 3025
7.725, 3011
7.7275, 2993
7.73, 3013
7.7325, 3044
7.735, 3081
7.7375, 3067
7.74, 3047
7.7425, 3018
7.745, 3006
7.7475, 3026
7.75, 3028
7.7525, 3032
7.755, 3018
7.7575, 3015
7.76, 3023
7.7625, 2984
7.765, 3034
7.7675, 2918
7.77, 2987
7.7725, 3049
7.775, 3094
7.7775, 3051
7.78, 3045
7.7825, 3039
7.785, 3016
7.7875, 3013
7.79, 3052
7.7925, 3052
7.795, 3046
7.7975, 3045
7.8, 3042
7.8025, 3052
7.805, 3071
7.8075, 3067
7.81, 3065
7.8125, 3067
7.815, 3043
7.8175, 3060
7.82, 3021
7.8225, 3022
7.825, 3048
7.8275, 3083
7.83, 3113
7.8325, 3118
7.835, 3112
7.8375, 3076
7.84, 3050
7.8425, 3010
7.845, 3031
7.8475, 3060
7.85, 3106
7.8525, 3091
7.855, 3087
7.8575, 3088
7.86, 3077
7.8625, 3065
7.865, 3059
7.8675, 3063
7.87, 3138
7.8725, 3097
7.875, 3086
7.8775, 3076
7.88, 3066
7.8825, 3084
7.885, 3087
7.8875, 3194
7.89, 3120
7.8925, 3100
7.895, 3069
7.8975, 3071
7.9, 3074
7.9025, 3077
7.905, 3087
7.9075, 3081
7.91, 3037
7.9125, 3091
7.915, 3081
7.9175, 3104
7.92, 3080
7.9225, 3085
7.925, 3051
7.9275, 3034
7.93, 3040
7.9325, 3031
7.935, 3050
7.9375, 3054
7.94, 3069
7.9425, 3040
7.945, 3054
7.9475, 3049
7.95, 3065
7.9525, 3038
7.955, 3031
7.9575, 3038
7.96, 3049
7.9625, 3031
7.965, 3018
7.9675, 3035
7.97, 3068
7.9725, 3048
7.975, 3044
7.9775, 3042
7.98, 3019
7.9825, 2999
7.985, 3065
7.9875, 3069
7.99, 3055
7.9925, 3064
7.995, 3044
7.9975, 3024
8.0, 3031
8.0025, 3043
8.005, 3059
8.0075, 3023
8.01, 3059
8.0125, 3008
8.015, 2964
8.0175, 2935
8.02, 2828
8.0225, 2746
8.025, 2667
8.0275, 2572
8.03, 2471
8.0325, 2484
8.035, 2503
8.0375, 2636
8.04, 2775
8.0425, 2874
8.045, 2967
8.0475, 3040
8.05, 3103
8.0525, 3128
8.055, 3144
8.0575, 3120
8.06, 3109
8.0625, 3116
8.065, 3074
8.0675, 3052
8.07, 3013
8.0725, 2984
8.075, 2970
8.0775, 2981
8.08, 3010
8.0825, 2980
8.085, 2957
8.0875, 2945
8.09, 2928
8.0925, 2910
8.095, 2921
8.0975, 2965
8.1, 2952
8.1025, 2956
8.105, 3001
8.1075, 2943
8.11, 2955
8.1125, 2973
8.115, 2992
8.1175, 2938
8.12, 2941
8.1225, 2936
8.125, 2915
8.1275, 2928
8.13, 2943
8.1325, 2985
8.135, 2990
8.1375, 2956
8.14, 2979
8.1425, 2983
8.145, 2971
8.1475, 2958
8.15, 2970
8.1525, 2976
8.155, 2963
8.1575, 2948
8.16, 2952
8.1625, 2915
8.165, 2918
8.1675, 3005
8.17, 2973
8.1725, 2952
8.175, 2940
8.1775, 2942
8.18, 2953
8.1825, 2951
8.185, 2975
8.1875, 2951
8.19, 2950
8.1925, 2924
8.195, 2946
8.1975, 2924
8.2, 2918
8.2025, 2911
8.205, 2923
8.2075, 2940
8.21, 2951
8.2125, 2945
8.215, 2958
8.2175, 2967
8.22, 2979
8.2225, 2964
8.225, 2941
8.2275, 2946
8.23, 2961
8.2325, 2970
8.235, 2993
8.2375, 3007
8.24, 2990
8.2425, 2990
8.245, 2962
8.2475, 2967
8.25, 2968
8.2525, 2978
8.255, 3004
8.2575, 2982
8.26, 2988
8.2625, 3005
8.265, 3022
8.2675, 3042
8.27, 3041
8.2725, 3036
8.275, 2988
8.2775, 3011
8.28, 3039
8.2825, 3039
8.285, 3037
8.2875, 3049
8.29, 3114
8.2925, 3002
8.295, 3011
8.2975, 3044
8.3, 3070
8.3025, 3044
8.305, 3037
8.3075, 3035
8.31, 3000
8.3125, 2993
8.315, 3009
8.3175, 3006
8.32, 3004
8.3225, 3007
8.325, 3009
8.3275, 3006
8.33, 3017
8.3325, 3017
8.335, 3003
8.3375, 2990
8.34, 2994
8.3425, 3003
8.345, 2981
8.3475, 2986
8.35, 3003
8.3525, 3015
8.355, 3020
8.3575, 3008
8.36, 3029
8.3625, 2982
8.365, 3011
8.3675, 3011
8.37, 3001
8.3725, 2997
8.375, 3012
8.3775, 3012
8.38, 3020
8.3825, 3008
8.385, 2986
8.3875, 3017
8.39, 3009
8.3925, 3013
8.395, 3034
8.3975, 2979
8.4, 2946
8.4025, 2957
8.405, 3012
8.4075, 3051
8.41, 3007
8.4125, 3118
8.415, 3030
8.4175, 3013
8.42, 2984
8.4225, 2976
8.425, 2985
8.4275, 2991
8.43, 2998
8.4325, 2949
8.435, 2960
8.4375, 2955
8.44, 2959
8.4425, 2963
8.445, 2966
8.4475, 2991
8.45, 2956
8.4525, 2978
8.455, 2983
8.4575, 2979
8.46, 2945
8.4625, 2926
8.465, 2973
8.4675, 2999
8.47, 3004
8.4725, 2994
8.475, 2996
8.4775, 2948
8.48, 2922
8.4825, 2914
8.485, 2938
8.4875, 2990
8.49, 2981
8.4925, 3013
8.495, 2971
8.4975, 2924
8.5, 2956
8.5025, 2980
8.505, 2992
8.5075, 3045
8.51, 3033
8.5125, 3012
8.515, 2977
8.5175, 2968
8.52, 2930
8.5225, 2927
8.525, 2951
8.5275, 2970
8.53, 2956
8.5325, 2987
8.535, 3001
8.5375, 2983
8.54, 2986
8.5425, 3017
8.545, 3011
8.5475, 3024
8.55, 3028
8.5525, 3146
8.555, 3078
8.5575, 3099
8.56, 3058
8.5625, 3039
8.565, 2968
8.5675, 2945
8.57, 2998
8.5725, 3108
8.575, 3088
8.5775, 3053
8.58, 3019
8.5825, 3030
8.585, 3053
8.5875, 3075
8.59, 3036
8.5925, 3011
8.595, 3035
8.5975, 3104
8.6, 3109
8.6025, 3134
8.605, 3102
8.6075, 3146
8.61, 3145
8.6125, 3177
8.615, 3179
8.6175, 3141
8.62, 3018
8.6225, 2871
8.625, 2800
8.6275, 2772
8.63, 2739
8.6325, 2666
8.635, 2634
8.6375, 2670
8.64, 2809
8.6425, 2939
8.645, 3045
8.6475, 3172
8.65, 3258
8.6525, 3305
8.655, 3354
8.6575, 3438
8.66, 3457
8.6625, 3472
8.665, 3468
8.6675, 3403
8.67, 3390
8.6725, 3351
8.675, 3408
8.6775, 3421
8.68, 3401
8.6825, 3308
8.685, 3345
8.6875, 3383
8.69, 3400
8.6925, 3400
8.695, 3402
8.6975, 3382
8.7, 3379
8.7025, 3399
8.705, 3427
8.7075, 3457
8.71, 3470
8.7125, 3457
8.715, 3433
8.7175, 3431
8.72, 3430
8.7225, 3453
8.725, 3406
8.7275, 3395
8.73, 3399
8.7325, 3373
8.735, 3464
8.7375, 3519
8.74, 3483
8.7425, 3355
8.745, 3380
8.7475, 3408
8.75, 3373
8.7525, 3322
8.755, 3310
8.7575, 3325
8.76, 3396
8.7625, 3408
8.765, 3367
8.7675, 3355
8.77, 3331
8.7725, 3326
8.775, 3315
8.7775, 3291
8.78, 3273
8.7825, 3241
8.785, 3260
8.7875, 3294
8.79, 3222
8.7925, 3175
8.795, 3151
8.7975, 3155
8.8, 3188
8.8025, 3140
8.805, 3174
8.8075, 3302
8.81, 3332
8.8125, 3208
8.815, 3113
8.8175, 3137
8.82, 3134
8.8225, 3133
8.825, 3130
8.8275, 3116
8.83, 3056
8.8325, 3096
8.835, 3129
8.8375, 3124
8.84, 3131
8.8425, 3110
8.845, 3065
8.8475, 3075
8.85, 3073
8.8525, 3123
8.855, 3145
8.8575, 3139
8.86, 3067
8.8625, 3049
8.865, 3056
8.8675, 3118
8.87, 3112
8.8725, 3099
8.875, 3108
8.8775, 3128
8.88, 3154
8.8825, 3109
8.885, 3064
8.8875, 3027
8.89, 3018
8.8925, 3038
8.895, 3063
8.8975, 3078
8.9, 3097
8.9025, 3077
8.905, 3081
8.9075, 3111
8.91, 3094
8.9125, 3097
8.915, 3046
8.9175, 3048
8.92, 3061
8.9225, 3056
8.925, 3086
8.9275, 3089
8.93, 3079
8.9325, 3058
8.935, 3082
8.9375, 3113
8.94, 3104
8.9425, 3089
8.945, 3089
8.9475, 3014
8.95, 3000
8.9525, 2989
8.955, 3002
8.9575, 3016
8.96, 3005
8.9625, 3017
8.965, 3009
8.9675, 3033
8.97, 2986
8.9725, 2985
8.975, 2991
8.9775, 2978
8.98, 2985
8.9825, 2995
8.985, 3002
8.9875, 3025
8.99, 3016
8.9925, 2983
8.995, 3015
8.9975, 3013
9.0, 3048
9.0025, 3000
9.005, 2999
9.0075, 3013
9.01, 2991
9.0125, 3006
9.015, 3036
9.0175, 3051
9.02, 3046
9.0225, 3049
9.025, 3079
9.0275, 3022
9.03, 3047
9.0325, 3067
9.035, 3051
9.0375, 3044
9.04, 3019
9.0425, 3013
9.045, 2999
9.0475, 3005
9.05, 3001
9.0525, 2985
9.055, 3005
9.0575, 3013
9.06, 3070
9.0625, 2957
9.065, 2891
9.0675, 2867
9.07, 2929
9.0725, 2967
9.075, 2962
9.0775, 2990
9.08, 3020
9.0825, 3025
9.085, 2941
9.0875, 2873
9.09, 2861
9.0925, 2855
9.095, 2920
9.0975, 2943
9.1, 2937
9.1025, 2939
9.105, 2966
9.1075, 2942
9.11, 2882
9.1125, 2876
9.115, 2877
9.1175, 2868
9.12, 2853
9.1225, 2897
9.125, 2901
9.1275, 2857
9.13, 2857
9.1325, 2860
9.135, 2892
9.1375, 2874
9.14, 2801
9.1425, 2759
9.145, 2762
9.1475, 2779
9.15, 2822
9.1525, 2863
9.155, 2852
9.1575, 2902
9.16, 2907
9.1625, 2853
9.165, 2798
9.1675, 2817
9.17, 2863
9.1725, 2894
9.175, 2900
9.1775, 2845
9.18, 2810
9.1825, 2837
9.185, 2838
9.1875, 2836
9.19, 2816
9.1925, 2855
9.195, 2905
9.1975, 2921
9.2, 2926
9.2025, 2880
9.205, 2808
9.2075, 2797
9.21, 2848
9.2125, 2893
9.215, 2932
9.2175, 2911
9.22, 2840
9.2225, 2851
9.225, 2883
9.2275, 2903
9.23, 2910
9.2325, 2886
9.235, 2901
9.2375, 2872
9.24, 2866
9.2425, 2927
9.245, 2952
9.2475, 2963
9.25, 2982
9.2525, 3038
9.255, 3041
9.2575, 2971
9.26, 2833
9.2625, 2800
9.265, 2748
9.2675, 2696
9.27, 2682
9.2725, 2626
9.275, 2513
9.2775, 2480
9.28, 2486
9.2825, 2500
9.285, 2597
9.2875, 2718
9.29, 2847
9.2925, 2987
9.295, 3053
9.2975, 3056
9.3, 3090
9.3025, 3104
9.305, 3164
9.3075, 3206
9.31, 3149
9.3125, 3076
9.315, 3113
9.3175, 3092
9.32, 3072
9.3225, 3089
9.325, 2983
9.3275, 3018
9.33, 3095
9.3325, 3089
9.335, 3104
9.3375, 3137
9.34, 3113
9.3425, 3042
9.345, 3011
9.3475, 2956
9.35, 3004
9.3525, 3012
9.355, 2996
9.3575, 3020
9.36, 3004
9.3625, 3008
9.365, 3022
9.3675, 3048
9.37, 3025
9.3725, 3028
9.375, 3040
9.3775, 3018
9.38, 3033
9.3825, 3085
9.385, 3134
9.3875, 3119
9.39, 3107
9.3925, 3082
9.395, 3011
9.3975, 2997
9.4, 3009
9.4025, 3042
9.405, 3006
9.4075, 3004
9.41, 3068
9.4125, 3092
9.415, 3065
9.4175, 3069
9.42, 3071
9.4225, 3127
9.425, 3150
9.4275, 3171
9.43, 3135
9.4325, 3124
9.435, 3097
9.4375, 3077
9.44, 3058
9.4425, 3087
9.445, 3138
9.4475, 3132
9.45, 3131
9.4525, 3116
9.455, 3106
9.4575, 3109
9.46, 3150
9.4625, 3202
9.465, 3166
9.4675, 3141
9.47, 3076
9.4725, 3088
9.475, 3086
9.4775, 3122
9.48, 3176
9.4825, 3150
9.485, 3148
9.4875, 3158
9.49, 3179
9.4925, 3139
9.495, 3095
9.4975, 3093
9.5, 3131
9.5025, 3179
9.505, 3195
9.5075, 3195
9.51, 3187
9.5125, 3211
9.515, 3174
9.5175, 3088
9.52, 3174
9.5225, 3218
9.525, 3205
9.5275, 3174
9.53, 3205
9.5325, 3255
9.535, 3150
9.5375, 3115
9.54, 3145
9.5425, 3197
9.545, 3175
9.5475, 3167
9.55, 3140
9.5525, 3143
9.555, 3158
9.5575, 3149
9.56, 3104
9.5625, 3104
9.565, 3122
9.5675, 3137
9.57, 3122
9.5725, 3143
9.575, 3135
9.5775, 3124
9.58, 3120
9.5825, 3109
9.585, 3117
9.5875, 3050
9.59, 3060
9.5925, 3135
9.595, 3144
9.5975, 3089
9.6, 3018
9.6025, 3051
9.605, 3069
9.6075, 3060
9.61, 3040
9.6125, 3035
9.615, 3009
9.6175, 3017
9.62, 3038
9.6225, 3056
9.625, 3067
9.6275, 3043
9.63, 3036
9.6325, 3033
9.635, 3027
9.6375, 3035
9.64, 3009
9.6425, 3001
9.645, 3028
9.6475, 3053
9.65, 3030
9.6525, 2997
9.655, 2998
9.6575, 3019
9.66, 3048
9.6625, 3067
9.665, 3055
9.6675, 3035
9.67, 3040
9.6725, 3042
9.675, 3004
9.6775, 2990
9.68, 2965
9.6825, 2992
9.685, 3001
9.6875, 2987
9.69, 2994
9.6925, 2971
9.695, 2973
9.6975, 2971
9.7, 2986
9.7025, 2994
9.705, 3017
9.7075, 3027
9.71, 2970
9.7125, 2934
9.715, 2966
9.7175, 2981
9.72, 2975
9.7225, 2991
9.725, 2996
9.7275, 2969
9.73, 2947
9.7325, 2977
9.735, 3002
9.7375, 2996
9.74, 3013
9.7425, 3014
9.745, 3001
9.7475, 2988
9.75, 2949
9.7525, 2979
9.755, 2961
9.7575, 2949
9.76, 2970
9.7625, 2975
9.765, 2958
9.7675, 2966
9.77, 2976
9.7725, 2990
9.775, 2996
9.7775, 3007
9.78, 3019
9.7825, 3015
9.785, 3014
9.7875, 3008
9.79, 2952
9.7925, 2987
9.795, 3002
9.7975, 3002
9.8, 3028
9.8025, 3021
9.805, 3014
9.8075, 3013
9.81, 3009
9.8125, 3022
9.815, 3010
9.8175, 3020
9.82, 3012
9.8225, 3016
9.825, 3014
9.8275, 3030
9.83, 3047
9.8325, 3056
9.835, 3067
9.8375, 3081
9.84, 3095
9.8425, 3075
9.845, 3053
9.8475, 3026
9.85, 3026
9.8525, 3038
9.855, 3052
9.8575, 3041
9.86, 3036
9.8625, 3017
9.865, 3036
9.8675, 3023
9.87, 3032
9.8725, 3035
9.875, 3030
9.8775, 3026
9.88, 3022
9.8825, 3005
9.885, 2990
9.8875, 2971
9.89, 2998
9.8925, 3022
9.895, 3044
9.8975, 3016
9.9, 3013
9.9025, 2994
9.905, 3022
9.9075, 3013
9.91, 2989
9.9125, 2991
9.915, 2994
9.9175, 2985
9.92, 2962
9.9225, 2961
9.925, 2927
9.9275, 2918
9.93, 2955
9.9325, 2989
9.935, 2989
9.9375, 2955
9.94, 2959
9.9425, 2964
9.945, 2947
9.9475, 2927
9.95, 2956
9.9525, 2976
9.955, 2966
9.9575, 2958
9.96, 2948
9.9625, 2942
9.965, 2919
9.9675, 2920
9.97, 3004
9.9725, 2966
9.975, 2965
9.9775, 2952
9.98, 2938
9.9825, 2904
9.985, 2889
9.9875, 2927
9.99, 2911
9.9925, 2937
9.995, 2943
9.9975, 2957
10.0, 2977
10.0025, 2984
10.005, 2999
10.0075, 3003
10.01, 3016
10.0125, 3013
10.015, 2988
10.0175, 2942
10.02, 2930
10.0225, 2877
10.025, 2779
10.0275, 2717
10.03, 2673
10.0325, 2612
10.035, 2547
10.0375, 2526
10.04, 2546
10.0425, 2621
10.045, 2727
10.0475, 2825
10.05, 2915
10.0525, 3029
10.055, 3103
10.0575, 3149
10.06, 3157
10.0625, 3195
10.065, 3178
10.0675, 3159
10.07, 3120
10.0725, 3076
10.075, 3034
10.0775, 3001
10.08, 2984
10.0825, 2956
10.085, 2981
10.0875, 2989
10.09, 3021
10.0925, 3055
10.095, 3025
10.0975, 3006
10.1, 3006
10.1025, 3010
10.105, 2999
10.1075, 2988
10.11, 2988
10.1125, 2995
10.115, 2997
10.1175, 2992
10.12, 2999
10.1225, 2982
10.125, 2969
10.1275, 2976
10.13, 2969
10.1325, 2959
10.135, 2946
10.1375, 2931
10.14, 2890
10.1425, 2915
10.145, 2982
10.1475, 2940
10.15, 2900
10.1525, 2930
10.155, 2949
10.1575, 2976
10.16, 2953
10.1625, 2940
10.165, 2900
10.1675, 2903
10.17, 2937
10.1725, 2924
10.175, 2898
10.1775, 2905
10.18, 2909
10.1825, 2881
10.185, 2882
10.1875, 2884
10.19, 2902
10.1925, 2934
10.195, 2917
10.1975, 2899
10.2, 2873
10.2025, 2874
10.205, 2919
10.2075, 2942
10.21, 2920
10.2125, 2888
10.215, 2905
10.2175, 2888
10.22, 2854
10.2225, 2860
10.225, 2872
10.2275, 2913
10.23, 2913
10.2325, 2939
10.235, 2918
10.2375, 2902
10.24, 2904
10.2425, 2887
10.245, 2879
10.2475, 2877
10.25, 2907
10.2525, 2893
10.255, 2883
10.2575, 2858
10.26, 2896
10.2625, 2903
10.265, 2940
10.2675, 2929
10.27, 2948
10.2725, 2931
10.275, 2952
10.2775, 2963
10.28, 2969
10.2825, 2990
10.285, 3017
10.2875, 3015
10.29, 2990
10.2925, 2958
10.295, 2946
10.2975, 2980
10.3, 3017
10.3025, 3039
10.305, 3018
10.3075, 3010
10.31, 3003
10.3125, 3018
10.315, 3056
10.3175, 3048
10.32, 3095
10.3225, 3124
10.325, 3111
10.3275, 3065
10.33, 3034
10.3325, 3070
10.335, 3057
10.3375, 3054
10.34, 3069
10.3425, 3116
10.345, 3131
10.3475, 3108
10.35, 3118
10.3525, 3104
10.355, 3147
10.3575, 3070
10.36, 3057
10.3625, 3114
10.365, 3113
10.3675, 3082
10.37, 3107
10.3725, 3140
10.375, 3114
10.3775, 3131
10.38, 3125
10.3825, 3104
10.385, 3127
10.3875, 3166
10.39, 3151
10.3925, 3121
10.395, 3104
10.3975, 3106
10.4, 3105
10.4025, 3126
10.405, 3179
10.4075, 3197
10.41, 3146
10.4125, 3085
10.415, 3085
10.4175, 3078
10.42, 3125
10.4225, 3097
10.425, 3085
10.4275, 3060
10.43, 3102
10.4325, 3087
10.435, 3095
10.4375, 3068
10.44, 3102
10.4425, 3067
10.445, 3077
10.4475, 3074
10.45, 3063
10.4525, 3066
10.455, 3063
10.4575, 3127
10.46, 3156
10.4625, 3094
10.465, 3096
10.4675, 3085
10.47, 3117
10.4725, 3100
10.475, 3069
10.4775, 3156
10.48, 3098
10.4825, 3099
10.485, 3068
10.4875, 3060
10.49, 3033
10.4925, 3035
10.495, 3172
10.4975, 3100
10.5, 3104
10.5025, 3095
10.505, 3062
10.5075, 3053
10.51, 3023
10.5125, 3015
10.515, 2997
10.5175, 3043
10.52, 3042
10.5225, 3021
10.525, 2977
10.5275, 2997
10.53, 3008
10.5325, 3037
10.535, 3024
10.5375, 3033
10.54, 3033
10.5425, 3026
10.545, 3053
10.5475, 3031
10.55, 2998
10.5525, 2989
10.555, 2988
10.5575, 3048
10.56, 3056
10.5625, 3022
10.565, 3010
10.5675, 2982
10.57, 2990
10.5725, 2986
10.575, 3001
10.5775, 3027
10.58, 3051
10.5825, 3055
10.585, 3015
10.5875, 2977
10.59, 2942
10.5925, 2961
10.595, 2993
10.5975, 2998
10.6, 3077
10.6025, 3028
10.605, 3010
10.6075, 2989
10.61, 3000
10.6125, 3013
10.615, 3006
10.6175, 3100
10.62, 3009
10.6225, 3002
10.625, 2979
10.6275, 2958
10.63, 2965
10.6325, 2955
10.635, 2965
10.6375, 2961
10.64, 2987
10.6425, 3022
10.645, 3012
10.6475, 2997
10.65, 2951
10.6525, 2964
10.655, 2982
10.6575, 3015
10.66, 2986
10.6625, 2991
10.665, 2970
10.6675, 2932
10.67, 2937
10.6725, 2940
10.675, 2977
10.6775, 2972
10.68, 2984
10.6825, 2978
10.685, 2949
10.6875, 2959
10.69, 2985
10.6925, 3014
10.695, 3046
10.6975, 3020
10.7, 3004
10.7025, 2991
10.705, 3008
10.7075, 2976
10.71, 2978
10.7125, 2993
10.715, 3033
10.7175, 2998
10.72, 2986
10.7225, 2991
10.725, 2959
10.7275, 2976
10.73, 2984
10.7325, 3006
10.735, 3005
10.7375, 2974
10.74, 2989
10.7425, 2979
10.745, 2983
10.7475, 2999
10.75, 3011
10.7525, 2987
10.755, 2958
10.7575, 2923
10.76, 2807
10.7625, 2733
10.765, 2655
10.7675, 2581
10.77, 2541
10.7725, 2475
10.775, 2501
10.7775, 2501
10.78, 2611
10.7825, 2741
10.785, 2830
10.7875, 2906
10.79, 2997
10.7925, 3062
10.795, 3053
10.7975, 3068
10.8, 3054
10.8025, 3044
10.805, 3071
10.8075, 3034
10.81, 3017
10.8125, 3002
10.815, 2965
10.8175, 2935
10.82, 2910
10.8225, 2886
10.825, 2842
10.8275, 2873
10.83, 2888
10.8325, 2907
10.835, 2912
10.8375, 2910
10.84, 2899
10.8425, 2883
10.845, 2910
10.8475, 2885
10.85, 2876
10.8525, 2878
10.855, 2882
10.8575, 2888
10.86, 2879
10.8625, 2845
10.865, 2847
10.8675, 2862
10.87, 2867
10.8725, 2869
10.875, 2875
10.8775, 2872
10.88, 2933
10.8825, 2856
10.885, 2836
10.8875, 2845
10.89, 2865
10.8925, 2849
10.895, 2840
10.8975, 2870
10.9, 2822
10.9025, 2801
10.905, 2808
10.9075, 2834
10.91, 2860
10.9125, 2858
10.915, 2876
10.9175, 2847
10.92, 2834
10.9225, 2838
10.925, 2864
10.9275, 2849
10.93, 2843
10.9325, 2861
10.935, 2839
10.9375, 2816
10.94, 2804
10.9425, 2833
10.945, 2838
10.9475, 2835
10.95, 2842
10.9525, 2838
10.955, 2839
10.9575, 2823
10.96, 2848
10.9625, 2869
10.965, 2901
10.9675, 2924
10.97, 2914
10.9725, 2911
10.975, 2907
10.9775, 2898
10.98, 2892
10.9825, 2898
10.985, 2909
10.9875, 2944
10.99, 2965
10.9925, 2963
10.995, 2976
10.9975, 2972
11.0, 2973
11.0025, 3035
11.005, 2988
11.0075, 2999
11.01, 2982
11.0125, 2996
11.015, 2980
11.0175, 2994
11.02, 3021
11.0225, 3016
11.025, 3050
11.0275, 3034
11.03, 3022
11.0325, 3006
11.035, 3010
11.0375, 2999
11.04, 3023
11.0425, 3027
11.045, 3035
11.0475, 3050
11.05, 3023
11.0525, 3032
11.055, 3039
11.0575, 3050
11.06, 3059
11.0625, 3035
11.065, 3078
11.0675, 3124
11.07, 3151
11.0725, 3162
11.075, 3133
11.0775, 3140
11.08, 3138
11.0825, 3143
11.085, 3164
11.0875, 3174
11.09, 3206
11.0925, 3170
11.095, 3139
11.0975, 3150
11.1, 3163
11.1025, 3196
11.105, 3219
11.1075, 3231
11.11, 3227
11.1125, 3188
11.115, 3162
11.1175, 3159
11.12, 3186
11.1225, 3203
11.125, 3236
11.1275, 3206
11.13, 3187
11.1325, 3167
11.135, 3159
11.1375, 3149
11.14, 3165
11.1425, 3194
11.145, 3175
11.1475, 3112
11.15, 3124
11.1525, 3128
11.155, 3114
11.1575, 3103
11.16, 3092
11.1625, 3083
11.165, 3109
11.1675, 3094
11.17, 3091
11.1725, 3116
11.175, 3115
11.1775, 3158
11.18, 3129
11.1825, 3101
11.185, 3077
11.1875, 3099
11.19, 3081
11.1925, 3071
11.195, 3087
11.1975, 3087
11.2, 3102
11.2025, 3078
11.205, 3063
11.2075, 3024
11.21, 3012
11.2125, 3022
11.215, 3021
11.2175, 3025
11.22, 3035
11.2225, 3059
11.225, 3046
11.2275, 3019
11.23, 3031
11.2325, 3053
11.235, 3084
11.2375, 3066
11.24, 3043
11.2425, 3049
11.245, 2996
11.2475, 3041
11.25, 3008
11.2525, 2991
11.255, 3004
11.2575, 3016
11.26, 3051
11.2625, 3031
11.265, 3053
11.2675, 2994
11.27, 3019
11.2725, 3033
11.275, 2994
11.2775, 3017
11.28, 3046
11.2825, 3056
11.285, 3068
11.2875, 3040
11.29, 3050
11.2925, 3008
11.295, 3044
11.2975, 3114
11.3, 3121
11.3025, 3054
11.305, 3073
11.3075, 3065
11.31, 3006
11.3125, 3018
11.315, 3018
11.3175, 3101
11.32, 3123
11.3225, 3110
11.325, 3073
11.3275, 3050
11.33, 3031
11.3325, 3060
11.335, 3069
11.3375, 3072
11.34, 3060
11.3425, 3039
11.345, 3011
11.3475, 3007
11.35, 2994
11.3525, 3059
11.355, 3056
11.3575, 3034
11.36, 3011
11.3625, 3023
11.365, 2990
11.3675, 3016
11.37, 3037
11.3725, 3061
11.375, 3004
11.3775, 2969
11.38, 2927
11.3825, 2929
11.385, 2963
11.3875, 2991
11.39, 2999
11.3925, 3007
11.395, 2975
11.3975, 2963
11.4, 2959
11.4025, 2941
11.405, 2995
11.4075, 3004
11.41, 2981
11.4125, 2992
11.415, 3025
11.4175, 3008
11.42, 2993
11.4225, 2998
11.425, 2943
11.4275, 2938
11.43, 2918
11.4325, 2953
11.435, 2975
11.4375, 2940
11.44, 2883
11.4425, 2821
11.445, 2699
11.4475, 2629
11.45, 2597
11.4525, 2543
11.455, 2547
11.4575, 2588
11.46, 2668
11.4625, 2768
11.465, 2869
11.4675, 2974
11.47, 3120
11.4725, 3119
11.475, 3149
11.4775, 3166
11.48, 3191
11.4825, 3203
11.485, 3175
11.4875, 3158
11.49, 3139
11.4925, 3191
11.495, 3211
11.4975, 3177
11.5, 3194
11.5025, 3173
11.505, 3144
11.5075, 3138
11.51, 3177
11.5125, 3228
11.515, 3176
11.5175, 3142
11.52, 3130
11.5225, 3133
11.525, 3139
11.5275, 3254
11.53, 3204
11.5325, 3222
11.535, 3198
11.5375, 3191
11.54, 3208
11.5425, 3190
11.545, 3232
11.5475, 3205
11.55, 3227
11.5525, 3237
11.555, 3314
11.5575, 3296
11.56, 3336
11.5625, 3316
11.565, 3289
11.5675, 3252
11.57, 3223
11.5725, 3339
11.575, 3358
11.5775, 3403
11.58, 3454
11.5825, 3421
11.585, 3363
11.5875, 3337
11.59, 3359
11.5925, 3407
11.595, 3469
11.5975, 3517
11.6, 3574
11.6025, 3579
11.605, 3518
11.6075, 3577
11.61, 3533
11.6125, 3507
11.615, 3528
11.6175, 3410
11.62, 3403
11.6225, 3409
11.625, 3495
11.6275, 3472
11.63, 3433
11.6325, 3259
11.635, 3253
11.6375, 3273
11.64, 3287
11.6425, 3309
11.645, 3320
11.6475, 3356
11.65, 3475
11.6525, 3333
11.655, 3291
11.6575, 3201
11.66, 3243
11.6625, 3250
11.665, 3293
11.6675, 3294
11.67, 3291
11.6725, 3216
11.675, 3151
11.6775, 3132
11.68, 3177
11.6825, 3161
11.685, 3222
11.6875, 3244
11.69, 3291
11.6925, 3316
11.695, 3309
11.6975, 3230
11.7, 3166
11.7025, 3210
11.705, 3193
11.7075, 3262
11.71, 3268
11.7125, 3198
11.715, 3187
11.7175, 3185
11.72, 3229
11.7225, 3150
11.725, 3108
11.7275, 3139
11.73, 3167
11.7325, 3156
11.735, 3137
11.7375, 3255
11.74, 3274
11.7425, 3219
11.745, 3182
11.7475, 3089
11.75, 3046
11.7525, 3010
11.755, 3059
11.7575, 3108
11.76, 3143
11.7625, 3121
11.765, 3112
11.7675, 3181
11.77, 3239
11.7725, 3180
11.775, 2958
11.7775, 2987
11.78, 2959
11.7825, 2972
11.785, 2881
11.7875, 2892
11.79, 3002
11.7925, 2992
11.795, 3029
11.7975, 3004
11.8, 3013
11.8025, 2985
11.805, 2901
11.8075, 2874
11.81, 2911
11.8125, 2935
11.815, 2911
11.8175, 2890
11.82, 2920
11.8225, 2921
11.825, 2916
11.8275, 2887
11.83, 2896
11.8325, 2897
11.835, 2949
11.8375, 2957
11.84, 2801
11.8425, 2850
11.845, 2872
11.8475, 2852
11.85, 2847
11.8525, 2756
11.855, 2764
11.8575, 2765
11.86, 2817
11.8625, 2817
11.865, 2805
11.8675, 2816
11.87, 2932
11.8725, 2871
11.875, 2717
11.8775, 2744
11.88, 2761
11.8825, 2844
11.885, 2866
11.8875, 2870
11.89, 2833
11.8925, 2772
11.895, 2745
11.8975, 2702
11.9, 2732
11.9025, 2739
11.905, 2772
11.9075, 2782
11.91, 2782
11.9125, 2848
11.915, 2795
11.9175, 2799
11.92, 2811
11.9225, 2796
11.925, 2800
11.9275, 2798
11.93, 2835
11.9325, 2881
11.935, 2852
11.9375, 2860
11.94, 2809
11.9425, 2782
11.945, 2779
11.9475, 2783
11.95, 2799
11.9525, 2815
11.955, 2840
11.9575, 2844
11.96, 2837
11.9625, 2837
11.965, 2832
11.9675, 2805
11.97, 2805
11.9725, 2775
11.975, 2787
11.9775, 2833
11.98, 2843
11.9825, 2849
11.985, 2919
11.9875, 2929
11.99, 2789
11.9925, 2744
11.995, 2778
11.9975, 2735
12.0, 2766
12.0025, 2800
12.005, 2828
12.0075, 2804
12.01, 2859
12.0125, 2870
12.015, 2822
12.0175, 2878
12.02, 2903
12.0225, 2877
12.025, 2812
12.0275, 2831
12.03, 2831
12.0325, 2873
12.035, 2935
12.0375, 2896
12.04, 2861
12.0425, 2870
12.045, 2863
12.0475, 2865
12.05, 2889
12.0525, 2935
12.055, 2889
12.0575, 2883
12.06, 2839
12.0625, 2841
12.065, 2834
12.0675, 2903
12.07, 2891
12.0725, 2854
12.075, 2856
12.0775, 2901
12.08, 2927
12.0825, 2919
12.085, 2915
12.0875, 2924
12.09, 2883
12.0925, 2874
12.095, 2865
12.0975, 2887
12.1, 2889
12.1025, 2871
12.105, 2866
12.1075, 2867
12.11, 2893
12.1125, 2936
12.115, 2890
12.1175, 2894
12.12, 2881
12.1225, 2896
12.125, 2876
12.1275, 2900
12.13, 2914
12.1325, 2942
12.135, 2924
12.1375, 2895
12.14, 2974
12.1425, 2910
12.145, 2882
12.1475, 2885
12.15, 2896
12.1525, 2921
12.155, 2930
12.1575, 2941
12.16, 2963
12.1625, 2984
12.165, 2991
12.1675, 3001
12.17, 2975
12.1725, 2941
12.175, 2987
12.1775, 2829
12.18, 2715
12.1825, 2640
12.185, 2554
12.1875, 2455
12.19, 2366
12.1925, 2386
12.195, 2334
12.1975, 2376
12.2, 2450
12.2025, 2573
12.205, 2803
12.2075, 2968
12.21, 3064
12.2125, 3099
12.215, 3125
12.2175, 3102
12.22, 3060
12.2225, 3047
12.225, 3005
12.2275, 2995
12.23, 2990
12.2325, 2976
12.235, 2967
12.2375, 2984
12.24, 2966
12.2425, 2948
12.245, 2975
12.2475, 2942
12.25, 2974
12.2525, 3036
12.255, 3030
12.2575, 2998
12.26, 2982
12.2625, 2981
12.265, 2953
12.2675, 2939
12.27, 2939
12.2725, 2929
12.275, 2894
12.2775, 2869
12.28, 2857
12.2825, 2857
12.285, 2825
12.2875, 2822
12.29, 2827
12.2925, 2861
12.295, 2867
12.2975, 2853
12.3, 2838
12.3025, 2845
12.305, 2832
12.3075, 2804
12.31, 2738
12.3125, 2736
12.315, 2726
12.3175, 2761
12.32, 2835
12.3225, 2872
12.325, 2878
12.3275, 2849
12.33, 2815
12.3325, 2811
12.335, 2793
12.3375, 2773
12.34, 2788
12.3425, 2773
12.345, 2773
12.3475, 2757
12.35, 2762
12.3525, 2754
12.355, 2724
12.3575, 2716
12.36, 2680
12.3625, 2693
12.365, 2761
12.3675, 2815
12.37, 2831
12.3725, 2831
12.375, 2796
12.3775, 2837
12.38, 2818
12.3825, 2800
12.385, 2809
12.3875, 2781
12.39, 2749
12.3925, 2744
12.395, 2693
12.3975, 2683
12.4, 2708
12.4025, 2694
12.405, 2676
12.4075, 2679
12.41, 2678
12.4125, 2663
12.415, 2633
12.4175, 2598
12.42, 2551
12.4225, 2527
12.425, 2500
12.4275, 2551
12.43, 2571
12.4325, 2569
12.435, 2574
12.4375, 2618
12.44, 2589
12.4425, 2568
12.445, 2551
12.4475, 2559
12.45, 2551
12.4525, 2548
12.455, 2544
12.4575, 2514
12.46, 2512
12.4625, 2542
12.465, 2554
12.4675, 2566
12.47, 2563
12.4725, 2631
12.475, 2640
12.4775, 2655
12.48, 2673
12.4825, 2658
12.485, 2649
12.4875, 2587
12.49, 2590
12.4925, 2539
12.495, 2512
12.4975, 1396
12.5, 821
12.5025, 620
12.505, 530
12.5075, 469
12.51, 434
12.5125, 396
12.515, 373
12.5175, 375
12.52, 393
12.5225, 471
12.525, 537
12.5275, 599
12.53, 664
12.5325, 728
12.535, 766
12.5375, 807
12.54, 865
12.5425, 949
12.545, 1010
12.5475, 1081
12.55, 1170
12.5525, 1252
12.555, 1336
12.5575, 1405
12.56, 1471
12.5625, 1529
12.565, 1622
12.5675, 1723
12.57, 1798
12.5725, 1886
12.575, 1963
12.5775, 2046
12.58, 2122
12.5825, 2211
12.585, 2264
12.5875, 2339
12.59, 2381
12.5925, 2462
12.595, 2552
12.5975, 2618
12.6, 2693
12.6025, 2775
12.605, 2814
12.6075, 2864
12.61, 2917
12.6125, 2997
12.615, 3007
12.6175, 3039
12.62, 3081
12.6225, 3153
12.625, 3198
12.6275, 3225
12.63, 3272
12.6325, 3288
12.635, 3318
12.6375, 3366
12.64, 3387
12.6425, 3422
12.645, 3470
12.6475, 3530
12.65, 3573
12.6525, 3616
12.655, 3641
12.6575, 3674
12.66, 3701
12.6625, 3735
12.665, 3787
12.6675, 3776
12.67, 3785
12.6725, 3817
12.675, 3845
12.6775, 3855
12.68, 3886
12.6825, 3963
12.685, 3960
12.6875, 3970
12.69, 3969
12.6925, 3980
12.695, 4011
12.6975, 4029
12.7, 4059
12.7025, 4054
12.705, 4059
12.7075, 4046
12.71, 4063
12.7125, 4093
12.715, 4123
12.7175, 4158
12.72, 4123
12.7225, 4093
12.725, 4046
12.7275, 4064
12.73, 4095
12.7325, 4097
12.735, 4161
12.7375, 4140
12.74, 4129
12.7425, 4084
12.745, 4067
12.7475, 4056
12.75, 4045
12.7525, 4060
12.755, 4033
12.7575, 4027
12.76, 4055
12.7625, 4050
12.765, 4061
12.7675, 4047
12.77, 4050
12.7725, 3988
12.775, 3953
12.7775, 3941
12.78, 3942
12.7825, 3937
12.785, 3919
12.7875, 3956
12.79, 3938
12.7925, 3925
12.795, 3930
12.7975, 3937
12.8, 3928
12.8025, 3905
12.805, 3901
12.8075, 3886
12.81, 3873
12.8125, 3852
12.815, 3812
12.8175, 3802
12.82, 3807
12.8225, 3849
12.825, 3813
12.8275, 3836
12.83, 3820
12.8325, 3787
12.835, 3776
12.8375, 3773
12.84, 3793
12.8425, 3781
12.845, 3798
12.8475, 3781
12.85, 3769
12.8525, 3765
12.855, 3783
12.8575, 3837
12.86, 3778
12.8625, 3736
12.865, 3683
12.8675, 3561
12.87, 3480
12.8725, 3368
12.875, 3312
12.8775, 3292
12.88, 3175
12.8825, 3051
12.885, 3067
12.8875, 3091
12.89, 3190
12.8925, 3373
12.895, 3463
12.8975, 3572
12.9, 3624
12.9025, 3658
12.905, 3712
12.9075, 3701
12.91, 3743
12.9125, 3672
12.915, 3658
12.9175, 3647
12.92, 3614
12.9225, 3572
12.925, 3565
12.9275, 3573
12.93, 3508
12.9325, 3484
12.935, 3456
12.9375, 3449
12.94, 3473
12.9425, 3440
12.945, 3430
12.9475, 3411
12.95, 3447
12.9525, 3444
12.955, 3434
12.9575, 3416
12.96, 3412
12.9625, 3418
12.965, 3382
12.9675, 3370
12.97, 3351
12.9725, 3373
12.975, 3417
12.9775, 3394
12.98, 3400
12.9825, 3394
12.985, 3389
12.9875, 3320
12.99, 3316
12.9925, 3329
12.995, 3332
12.9975, 3340
13.0, 3300
13.0025, 3299
13.005, 3307
13.0075, 3295
13.01, 3304
13.0125, 3301
13.015, 3290
13.0175, 3261
13.02, 3219
13.0225, 3244
13.025, 3282
13.0275, 3198
13.03, 3211
13.0325, 3244
13.035, 3179
13.0375, 3135
13.04, 3177
13.0425, 3145
13.045, 3200
13.0475, 3171
13.05, 3158
13.0525, 3169
13.055, 3203
13.0575, 3155
13.06, 3136
13.0625, 3096
13.065, 3073
13.0675, 3097
13.07, 3050
13.0725, 3055
13.075, 3120
13.0775, 3124
13.08, 3078
13.0825, 3043
13.085, 3120
13.0875, 3100
13.09, 3051
13.0925, 3012
13.095, 3042
13.0975, 3041
13.1, 3034
13.1025, 3062
13.105, 3037
13.1075, 3039
13.11, 3027
13.1125, 3028
13.115, 3014
13.1175, 3097
13.12, 3128
13.1225, 3112
13.125, 3115
13.1275, 3108
13.13, 3077
13.1325, 3012
13.135, 3018
13.1375, 3047
13.14, 3042
13.1425, 3110
13.145, 3118
13.1475, 2898
13.15, 2924
13.1525, 2907
13.155, 2923
13.1575, 2905
13.16, 2917
13.1625, 2917
13.165, 2907
13.1675, 2904
13.17, 2861
13.1725, 2861
13.175, 2848
13.1775, 2829
13.18, 2819
13.1825, 2799
13.185, 2785
13.1875, 2786
13.19, 2788
13.1925, 2763
13.195, 2734
13.1975, 2718
13.2, 2733
13.2025, 2718
13.205, 2689
13.2075, 2738
13.21, 2711
13.2125, 2693
13.215, 2704
13.2175, 2699
13.22, 2683
13.2225, 2689
13.225, 2690
13.2275, 2668
13.23, 2658
13.2325, 2662
13.235, 2699
13.2375, 2713
13.24, 2679
13.2425, 2645
13.245, 2613
13.2475, 2637
13.25, 2690
13.2525, 2721
13.255, 2739
13.2575, 2741
13.26, 2713
13.2625, 2665
13.265, 2672
13.2675, 2685
13.27, 2684
13.2725, 2703
13.275, 2730
13.2775, 2729
13.28, 2722
13.2825, 2714
13.285, 2723
13.2875, 2726
13.29, 2719
13.2925, 2711
13.295, 2740
13.2975, 2737
13.3, 2732
13.3025, 2773
13.305, 2783
13.3075, 2753
13.31, 2755
13.3125, 2780
13.315, 2766
13.3175, 2794
13.32, 2790
13.3225, 2726
13.325, 2718
13.3275, 2693
13.33, 2706
13.3325, 2716
13.335, 2731
13.3375, 2785
13.34, 2781
13.3425, 2823
13.345, 2819
13.3475, 2846
13.35, 2838
13.3525, 2858
13.355, 2900
13.3575, 2869
13.36, 2863
13.3625, 2844
13.365, 2859
13.3675, 2825
13.37, 2812
13.3725, 2810
13.375, 2787
13.3775, 2772
13.38, 2777
13.3825, 2801
13.385, 2809
13.3875, 2784
13.39, 2821
13.3925, 2852
13.395, 2865
13.3975, 2897
13.4, 2921
13.4025, 2815
13.405, 2755
13.4075, 2791
13.41, 2824
13.4125, 2845
13.415, 2869
13.4175, 2950
13.42, 2967
13.4225, 2979
13.425, 2958
13.4275, 2957
13.43, 2969
13.4325, 2986
13.435, 3008
13.4375, 2976
13.44, 2908
13.4425, 2897
13.445, 2895
13.4475, 2873
13.45, 2872
13.4525, 2870
13.455, 2872
13.4575, 2853
13.46, 2870
13.4625, 2905
13.465, 2930
13.4675, 2964
13.47, 3006
13.4725, 2985
13.475, 3011
13.4775, 2987
13.48, 2991
13.4825, 2973
13.485, 2943
13.4875, 2976
13.49, 3036
13.4925, 2975
13.495, 2945
13.4975, 2970
13.5, 2978
13.5025, 2980
13.505, 2979
13.5075, 2966
13.51, 2975
13.5125, 2926
13.515, 2906
13.5175, 2914
13.52, 2938
13.5225, 2982
13.525, 2956
13.5275, 2953
13.53, 2950
13.5325, 2956
13.535, 2943
13.5375, 2960
13.54, 2981
13.5425, 2962
13.545, 2966
13.5475, 2963
13.55, 2963
13.5525, 2959
13.555, 3013
13.5575, 3094
13.56, 3079
13.5625, 3056
13.565, 2993
13.5675, 2936
13.57, 2846
13.5725, 2742
13.575, 2702
13.5775, 2710
13.58, 2655
13.5825, 2552
13.585, 2554
13.5875, 2548
13.59, 2621
13.5925, 2811
13.595, 2823
13.5975, 2903
13.6, 3011
13.6025, 3082
13.605, 3132
13.6075, 3172
13.61, 3203
13.6125, 3191
13.615, 3174
13.6175, 3139
13.62, 3097
13.6225, 3043
13.625, 3002
13.6275, 2972
13.63, 2956
13.6325, 2967
13.635, 2971
13.6375, 2956
13.64, 2977
13.6425, 2992
13.645, 3043
13.6475, 3008
13.65, 2979
13.6525, 2975
13.655, 2975
13.6575, 2960
13.66, 2945
13.6625, 2966
13.665, 2954
13.6675, 2947
13.67, 2927
13.6725, 2911
13.675, 2887
13.6775, 2866
13.68, 2883
13.6825, 2909
13.685, 2943
13.6875, 2936
13.69, 2920
13.6925, 2886
13.695, 2873
13.6975, 2896
13.7, 2857
13.7025, 2877
13.705, 2898
13.7075, 2890
13.71, 2872
13.7125, 2881
13.715, 2899
13.7175, 2886
13.72, 2870
13.7225, 2868
13.725, 2848
13.7275, 2812
13.73, 2784
13.7325, 2857
13.735, 2844
13.7375, 2849
13.74, 2851
13.7425, 2849
13.745, 2833
13.7475, 2831
13.75, 2815
13.7525, 2807
13.755, 2785
13.7575, 2818
13.76, 2846
13.7625, 2853
13.765, 2846
13.7675, 2866
13.77, 2771
13.7725, 2785
13.775, 2796
13.7775, 2803
13.78, 2824
13.7825, 2797
13.785, 2813
13.7875, 2797
13.79, 2830
13.7925, 2800
13.795, 2808
13.7975, 2816
13.8, 2831
13.8025, 2865
13.805, 2892
13.8075, 2862
13.81, 2846
13.8125, 2839
13.815, 2834
13.8175, 2845
13.82, 2888
13.8225, 2882
13.825, 2896
13.8275, 2879
13.83, 2913
13.8325, 2925
13.835, 2927
13.8375, 2959
13.84, 2935
13.8425, 2927
13.845, 2918
13.8475, 2919
13.85, 2932
13.8525, 2927
13.855, 2955
13.8575, 2909
13.86, 2912
13.8625, 2937
13.865, 2944
13.8675, 2930
13.87, 2932
13.8725, 2937
13.875, 2887
13.8775, 2883
13.88, 2931
13.8825, 2967
13.885, 2976
13.8875, 2979
13.89, 2966
13.8925, 2943
13.895, 2918
13.8975, 2888
13.9, 2888
13.9025, 2883
13.905, 2892
13.9075, 2985
13.91, 2936
13.9125, 2934
13.915, 2929
13.9175, 2916
13.92, 2909
13.9225, 2915
13.925, 2894
13.9275, 2870
13.93, 2872
13.9325, 2865
13.935, 2880
13.9375, 2897
13.94, 2911
13.9425, 2935
13.945, 2927
13.9475, 2931
13.95, 2905
13.9525, 2836
13.955, 2836
13.9575, 2838
13.96, 2885
13.9625, 2861
13.965, 2871
13.9675, 2893
13.97, 2885
13.9725, 2862
13.975, 2865
13.9775, 2897
13.98, 2893
13.9825, 2871
13.985, 2861
13.9875, 2815
13.99, 2806
13.9925, 2841
13.995, 2899
13.9975, 2891
14.0, 2885
14.0025, 2869
14.005, 2893
14.0075, 2888
14.01, 2871
14.0125, 2884
14.015, 2869
14.0175, 2892
14.02, 2884
14.0225, 2877
14.025, 2852
14.0275, 2815
14.03, 2846
14.0325, 2822
14.035, 2850
14.0375, 2882
14.04, 2889
14.0425, 2886
14.045, 2875
14.0475, 2887
14.05, 2900
14.0525, 2881
14.055, 2863
14.0575, 2846
14.06, 2843
14.0625, 2853
14.065, 2892
14.0675, 2870
14.07, 2871
14.0725, 2857
14.075, 2816
14.0775, 2802
14.08, 2807
14.0825, 2876
14.085, 2880
14.0875, 2875
14.09, 2877
14.0925, 2896
14.095, 2876
14.0975, 2894
14.1, 2897
14.1025, 2862
14.105, 2835
14.1075, 2832
14.11, 2854
14.1125, 2866
14.115, 2885
14.1175, 2900
14.12, 2891
14.1225, 2869
14.125, 2835
14.1275, 2771
14.13, 2791
14.1325, 2829
14.135, 2883
14.1375, 2865
14.14, 2883
14.1425, 2838
14.145, 2857
14.1475, 2865
14.15, 2873
14.1525, 2909
14.155, 2867
14.1575, 2807
14.16, 2819
14.1625, 2809
14.165, 2816
14.1675, 2804
14.17, 2849
14.1725, 2853
14.175, 2820
14.1775, 2793
14.18, 2796
14.1825, 2797
14.185, 2799
14.1875, 2843
14.19, 2859
14.1925, 2896
14.195, 2875
14.1975, 2849
14.2, 2822
14.2025, 2833
14.205, 2859
14.2075, 2820
14.21, 2821
14.2125, 2862
14.215, 2856
14.2175, 2852
14.22, 2821
14.2225, 2879
14.225, 2864
14.2275, 2846
14.23, 2874
14.2325, 2864
14.235, 2884
14.2375, 2897
14.24, 2919
14.2425, 2870
14.245, 2842
14.2475, 2808
14.25, 2741
14.2525, 2660
14.255, 2602
14.2575, 2582
14.26, 2518
14.2625, 2416
14.265, 2363
14.2675, 2346
14.27, 2392
14.2725, 2534
14.275, 2694
14.2775, 2745
14.28, 2864
14.2825, 3004
14.285, 3064
14.2875, 3104
14.29, 3102
14.2925, 3139
14.295, 3101
14.2975, 3086
14.3, 3067
14.3025, 3021
14.305, 2944
14.3075, 2964
14.31, 2979
14.3125, 2959
14.315, 2916
14.3175, 2893
14.32, 2907
14.3225, 2914
14.325, 2913
14.3275, 2950
14.33, 2928
14.3325, 2909
14.335, 2919
14.3375, 2936
14.34, 2938
14.3425, 2972
14.345, 2969
14.3475, 2924
14.35, 2908
14.3525, 2967
14.355, 2996
14.3575, 3015
14.36, 3006
14.3625, 3066
14.365, 2995
14.3675, 2992
14.37, 2984
14.3725, 3000
14.375, 2989
14.3775, 3020
14.38, 3059
14.3825, 3033
14.385, 3030
14.3875, 3051
14.39, 3060
14.3925, 3031
14.395, 3030
14.3975, 3020
14.4, 2995
14.4025, 2974
14.405, 2945
14.4075, 2965
14.41, 2983
14.4125, 2996
14.415, 3036
14.4175, 3007
14.42, 3001
14.4225, 3029
14.425, 3052
14.4275, 3052
14.43, 3049
14.4325, 3058
14.435, 3030
14.4375, 3034
14.44, 2990
14.4425, 2997
14.445, 2980
14.4475, 2966
14.45, 2998
14.4525, 2939
14.455, 2925
14.4575, 2928
14.46, 2932
14.4625, 2875
14.465, 2865
14.4675, 2924
14.47, 2923
14.4725, 2913
14.475, 2910
14.4775, 2906
14.48, 2942
14.4825, 2989
14.485, 3019
14.4875, 2996
14.49, 2949
14.4925, 2897
14.495, 2857
14.4975, 2812
14.5, 2820
14.5025, 2817
14.505, 2762
14.5075, 2757
14.51, 2715
14.5125, 2690
14.515, 2671
14.5175, 2637
14.52, 2618
14.5225, 2590
14.525, 2601
14.5275, 2615
14.53, 2627
14.5325, 2627
14.535, 2637
14.5375, 2651
14.54, 2627
14.5425, 2603
14.545, 2568
14.5475, 2565
14.55, 2575
14.5525, 2561
14.555, 2599
14.5575, 2610
14.56, 2632
14.5625, 2663
14.565, 2719
14.5675, 2738
14.57, 2803
14.5725, 2840
14.575, 2851
14.5775, 2837
14.58, 2830
14.5825, 2845
14.585, 2865
14.5875, 2872
14.59, 2899
14.5925, 2888
14.595, 2883
14.5975, 2841
14.6, 2837
14.6025, 2817
14.605, 2802
14.6075, 2805
14.61, 2763
14.6125, 2754
14.615, 2736
14.6175, 2741
14.62, 2734
14.6225, 2722
14.625, 2710
14.6275, 2672
14.63, 2651
14.6325, 2640
14.635, 2605
14.6375, 2566
14.64, 2502
14.6425, 2472
14.645, 2414
14.6475, 2435
14.65, 2446
14.6525, 2433
14.655, 2383
14.6575, 2395
14.66, 2429
14.6625, 2438
14.665, 2436
14.6675, 2423
14.67, 2420
14.6725, 2425
14.675, 2459
14.6775, 2497
14.68, 2520
14.6825, 2539
14.685, 2552
14.6875, 2529
14.69, 2507
14.6925, 2418
14.695, 2421
14.6975, 2381
14.7, 2394
14.7025, 2366
14.705, 2368
14.7075, 2341
14.71, 2311
14.7125, 2329
14.715, 2339
14.7175, 2373
14.72, 2347
14.7225, 2290
14.725, 2243
14.7275, 2174
14.73, 2184
14.7325, 2185
14.735, 2223
14.7375, 2202
14.74, 2188
14.7425, 2168
14.745, 2145
14.7475, 2145
14.75, 2176
14.7525, 2189
14.755, 2216
14.7575, 2231
14.76, 2241
14.7625, 2242
14.765, 2332
14.7675, 2309
14.77, 2302
14.7725, 2316
14.775, 2364
14.7775, 2668
14.78, 2956
14.7825, 3155
14.785, 3233
14.7875, 3263
14.79, 3288
14.7925, 3258
14.795, 3315
14.7975, 3425
14.8, 3558
14.8025, 3560
14.805, 3543
14.8075, 3539
14.81, 3519
14.8125, 3491
14.815, 3501
14.8175, 3535
14.82, 3558
14.8225, 3537
14.825, 3529
14.8275, 3535
14.83, 3515
14.8325, 3484
14.835, 3493
14.8375, 3497
14.84, 3499
14.8425, 3497
14.845, 3475
14.8475, 3435
14.85, 3406
14.8525, 3444
14.855, 3413
14.8575, 3423
14.86, 3414
14.8625, 3450
14.865, 3463
14.8675, 3462
14.87, 3486
14.8725, 3490
14.875, 3482
14.8775, 3432
14.88, 3365
14.8825, 3252
14.885, 3144
14.8875, 3077
14.89, 2939
14.8925, 2880
14.895, 2797
14.8975, 2734
14.9, 2709
14.9025, 2733
14.905, 2873
14.9075, 2969
14.91, 3141
14.9125, 3253
14.915, 3367
14.9175, 3445
14.92, 3464
14.9225, 3520
14.925, 3510
14.9275, 3491
14.93, 3462
14.9325, 3400
14.935, 3380
14.9375, 3382
14.94, 3392
14.9425, 3396
14.945, 3398
14.9475, 3373
14.95, 3384
14.9525, 3394
14.955, 3386
14.9575, 3373
14.96, 3358
14.9625, 3358
14.965, 3371
14.9675, 3371
14.97, 3354
14.9725, 3348
14.975, 3355
14.9775, 3357
14.98, 3357
14.9825, 3357
14.985, 3339
14.9875, 3306
14.99, 3296
14.9925, 3331
14.995, 3303
14.9975, 3319
15.0, 3350
15.0025, 3336
15.005, 3319
15.0075, 3318
15.01, 3382
15.0125, 3316
15.015, 3297
15.0175, 3281
15.02, 3302
15.0225, 3332
15.025, 3313
15.0275, 3334
15.03, 3275
15.0325, 3259
15.035, 3242
15.0375, 3254
15.04, 3240
15.0425, 3215
15.045, 3264
15.0475, 3248
15.05, 3258
15.0525, 3264
15.055, 3260
15.0575, 3261
15.06, 3250
15.0625, 3263
15.065, 3219
15.0675, 3203
15.07, 3199
15.0725, 3217
15.075, 3212
15.0775, 3216
15.08, 3212
15.0825, 3180
15.085, 3179
15.0875, 3166
15.09, 3184
15.0925, 3188
15.095, 3210
15.0975, 3231
15.1, 3216
15.1025, 3194
15.105, 3209
15.1075, 3201
15.11, 3218
15.1125, 3222
15.115, 3258
15.1175, 3258
15.12, 3250
15.1225, 3248
15.125, 3240
15.1275, 3229
15.13, 3245
15.1325, 3284
15.135, 3268
15.1375, 3291
15.14, 3311
15.1425, 3321
15.145, 3340
15.1475, 3312
15.15, 3310
15.1525, 3267
15.155, 3253
15.1575, 3275
15.16, 3279
15.1625, 3307
15.165, 3340
15.1675, 3381
15.17, 3383
15.1725, 3364
15.175, 3318
15.1775, 3298
15.18, 3314
15.1825, 3335
15.185, 3375
15.1875, 3350
15.19, 3330
15.1925, 3336
15.195, 3345
15.1975, 3327
15.2, 3291
15.2025, 3276
15.205, 3256
15.2075, 3247
15.21, 3302
15.2125, 3324
15.215, 3388
15.2175, 3381
15.22, 3393
15.2225, 3350
15.225, 3342
15.2275, 3317
15.23, 3307
15.2325, 3303
15.235, 3272
15.2375, 3302
15.24, 3265
15.2425, 3330
15.245, 3321
15.2475, 3348
15.25, 3347
15.2525, 3344
15.255, 3344
15.2575, 3301
15.26, 3281
15.2625, 3269
15.265, 3265
15.2675, 3288
15.27, 3293
15.2725, 3321
15.275, 3327
15.2775, 3322
15.28, 3303
15.2825, 3299
15.285, 3273
15.2875, 3271
15.29, 3317
15.2925, 3305
15.295, 3299
15.2975, 3287
15.3, 3298
15.3025, 3291
15.305, 3301
15.3075, 3297
15.31, 3247
15.3125, 3288
15.315, 3312
15.3175, 3280
15.32, 3266
15.3225, 3241
15.325, 3291
15.3275, 3281
15.33, 3259
15.3325, 3293
15.335, 3285
15.3375, 3272
15.34, 3257
15.3425, 3313
15.345, 3289
15.3475, 3289
15.35, 3296
15.3525, 3278
15.355, 3262
15.3575, 3258
15.36, 3287
15.3625, 3248
15.365, 3245
15.3675, 3230
15.37, 3258
15.3725, 3265
15.375, 3273
15.3775, 3302
15.38, 3275
15.3825, 3272
15.385, 3270
15.3875, 3263
15.39, 3263
15.3925, 3260
15.395, 3299
15.3975, 3276
15.4, 3247
15.4025, 3239
15.405, 3233
15.4075, 3235
15.41, 3212
15.4125, 3270
15.415, 3218
15.4175, 3261
15.42, 3268
15.4225, 3246
15.425, 3256
15.4275, 3268
15.43, 3287
15.4325, 3229
15.435, 3214
15.4375, 3184
15.44, 3213
15.4425, 3206
15.445, 3172
15.4475, 3186
15.45, 3203
15.4525, 3208
15.455, 3209
15.4575, 3204
15.46, 3195
15.4625, 3200
15.465, 3198
15.4675, 3161
15.47, 3153
15.4725, 3138
15.475, 3176
15.4775, 3164
15.48, 3155
15.4825, 3164
15.485, 3125
15.4875, 3142
15.49, 3128
15.4925, 3140
15.495, 3134
15.4975, 3134
15.5, 3155
15.5025, 3147
15.505, 3155
15.5075, 3158
15.51, 3135
15.5125, 3091
15.515, 3089
15.5175, 3121
15.52, 3122
15.5225, 3151
15.525, 3159
15.5275, 3151
15.53, 3152
15.5325, 3128
15.535, 3170
15.5375, 3093
15.54, 3086
15.5425, 3100
15.545, 3151
15.5475, 3165
15.55, 3159
15.5525, 3210
15.555, 3185
15.5575, 3173
15.56, 3137
15.5625, 3093
15.565, 3047
15.5675, 2948
15.57, 2854
15.5725, 2784
15.575, 2689
15.5775, 2546
15.58, 2466
15.5825, 2449
15.585, 2498
15.5875, 2617
15.59, 2728
15.5925, 2810
15.595, 2946
15.5975, 3088
15.6, 3170
15.6025, 3228
15.605, 3306
15.6075, 3263
15.61, 3235
15.6125, 3207
15.615, 3177
15.6175, 3140
15.62, 3102
15.6225, 3068
15.625, 3053
15.6275, 3053
15.63, 3084
15.6325, 3083
15.635, 3061
15.6375, 3042
15.64, 3068
15.6425, 3039
15.645, 3009
15.6475, 3005
15.65, 3011
15.6525, 2997
15.655, 2986
15.6575, 3010
15.66, 2976
15.6625, 2964
15.665, 2960
15.6675, 2965
15.67, 2980
15.6725, 2980
15.675, 3007
15.6775, 2997
15.68, 2999
15.6825, 2991
15.685, 2978
15.6875, 2978
15.69, 2966
15.6925, 2970
15.695, 2936
15.6975, 2943
15.7, 2949
15.7025, 2951
15.705, 2958
15.7075, 2947
15.71, 2966
15.7125, 2922
15.715, 2910
15.7175, 2922
15.72, 2927
15.7225, 2925
15.725, 2922
15.7275, 2949
15.73, 2921
15.7325, 2919
15.735, 2894
15.7375, 2905
15.74, 2905
15.7425, 2917
15.745, 2913
15.7475, 2896
15.75, 2899
15.7525, 2887
15.755, 2896
15.7575, 2882
15.76, 2868
15.7625, 2906
15.765, 2895
15.7675, 2887
15.77, 2884
15.7725, 2899
15.775, 2910
15.7775, 2925
15.78, 2939
15.7825, 2904
15.785, 2898
15.7875, 2897
15.79, 2906
15.7925, 2904
15.795, 2912
15.7975, 2946
15.8, 2965
15.8025, 2975
15.805, 2962
15.8075, 2965
15.81, 2958
15.8125, 2972
15.815, 3018
15.8175, 3005
15.82, 3016
15.8225, 3010
15.825, 2995
15.8275, 2992
15.83, 2989
15.8325, 3023
15.835, 3022
15.8375, 3050
15.84, 3063
15.8425, 3058
15.845, 3039
15.8475, 3025
15.85, 3077
15.8525, 3030
15.855, 3054
15.8575, 3069
15.86, 3066
15.8625, 3050
15.865, 3053
15.8675, 3084
15.87, 3045
15.8725, 3041
15.875, 3048
15.8775, 3067
15.88, 3059
15.8825, 3053
15.885, 3060
15.8875, 3034
15.89, 3033
15.8925, 3027
15.895, 3024
15.8975, 3018
15.9, 3023
15.9025, 3061
15.905, 3033
15.9075, 3027
15.91, 3016
15.9125, 3027
15.915, 3040
15.9175, 3038
15.92, 3078
15.9225, 3043
15.925, 3029
15.9275, 3018
15.93, 3028
15.9325, 3036
15.935, 3034
15.9375, 3068
15.94, 3024
15.9425, 3010
15.945, 3010
15.9475, 3019
15.95, 3031
15.9525, 3030
15.955, 3053
15.9575, 3001
15.96, 2995
15.9625, 3002
15.965, 3031
15.9675, 3030
15.97, 3018
15.9725, 3037
15.975, 3044
15.9775, 3042
15.98, 3028
15.9825, 3032
15.985, 3012
15.9875, 3007
15.99, 3028
15.9925, 3014
15.995, 3010
15.9975, 3030
16.0, 3024
16.0025, 3021
16.005, 3006
16.0075, 3022
16.01, 3005
16.0125, 3006
16.015, 3012
16.0175, 3020
16.02, 2995
16.0225, 2984
16.025, 3001
16.0275, 2987
16.03, 2994
16.0325, 2996
16.035, 3000
16.0375, 2998
16.04, 3004
16.0425, 3028
16.045, 2986
16.0475, 2992
16.05, 2991
16.0525, 2994
16.055, 2994
16.0575, 3002
16.06, 3023
16.0625, 2990
16.065, 2983
16.0675, 2987
16.07, 3000
16.0725, 3007
16.075, 3011
16.0775, 3022
16.08, 3001
16.0825, 3002
16.085, 2999
16.0875, 3009
16.09, 3000
16.0925, 3006
16.095, 3034
16.0975, 3002
16.1, 3001
16.1025, 2990
16.105, 2996
16.1075, 2988
16.11, 2999
16.1125, 3006
16.115, 3002
16.1175, 2993
16.12, 2987
16.1225, 2990
16.125, 2985
16.1275, 2977
16.13, 3011
16.1325, 2977
16.135, 2977
16.1375, 2963
16.14, 2975
16.1425, 2976
16.145, 2972
16.1475, 2969
16.15, 2971
16.1525, 2964
16.155, 2952
16.1575, 2954
16.16, 2921
16.1625, 2907
16.165, 2966
16.1675, 2973
16.17, 2991
16.1725, 2997
16.175, 2999
16.1775, 2992
16.18, 2979
16.1825, 3004
16.185, 2977
16.1875, 2964
16.19, 2970
16.1925, 2979
16.195, 2981
16.1975, 2985
16.2, 3000
16.2025, 2970
16.205, 2985
16.2075, 2987
16.21, 2980
16.2125, 2977
16.215, 2974
16.2175, 3010
16.22, 2976
16.2225, 2977
16.225, 2981
16.2275, 3016
16.23, 3022
16.2325, 3029
16.235, 3069
16.2375, 3039
16.24, 3011
16.2425, 2985
16.245, 2953
16.2475, 2892
16.25, 2802
16.2525, 2734
16.255, 2646
16.2575, 2543
16.26, 2437
16.2625, 2407
16.265, 2401
16.2675, 2479
16.27, 2597
16.2725, 2680
16.275, 2812
16.2775, 2967
16.28, 3081
16.2825, 3135
16.285, 3180
16.2875, 3232
16.29, 3211
16.2925, 3195
16.295, 3158
16.2975, 3121
16.3, 3092
16.3025, 3063
16.305, 3079
16.3075, 3038
16.31, 3028
16.3125, 3033
16.315, 3044
16.3175, 3033
16.32, 3032
16.3225, 3047
16.325, 3019
16.3275, 3015
16.33, 3015
16.3325, 3012
16.335, 3007
16.3375, 3010
16.34, 3034
16.3425, 3014
16.345, 3008
16.3475, 2985
16.35, 2995
16.3525, 3001
16.355, 2985
16.3575, 3026
16.36, 3008
16.3625, 3011
16.365, 3000
16.3675, 2990
16.37, 2994
16.3725, 2996
16.375, 3008
16.3775, 2972
16.38, 2969
16.3825, 2967
16.385, 2971
16.3875, 2957
16.39, 2962
16.3925, 2991
16.395, 2966
16.3975, 2962
16.4, 2962
16.4025, 2967
16.405, 2962
16.4075, 2963
16.41, 2989
16.4125, 2941
16.415, 2933
16.4175, 2939
16.42, 2933
16.4225, 2924
16.425, 2919
16.4275, 2976
16.43, 2942
16.4325, 2922
16.435, 2902
16.4375, 2902
16.44, 2891
16.4425, 2890
16.445, 2895
16.4475, 2890
16.45, 2898
16.4525, 2909
16.455, 2922
16.4575, 2910
16.46, 2915
16.4625, 2948
16.465, 2923
16.4675, 2924
16.47, 2926
16.4725, 2918
16.475, 2931
16.4775, 2943
16.48, 2988
16.4825, 2976
16.485, 2980
16.4875, 2967
16.49, 2969
16.4925, 2983
16.495, 2990
16.4975, 3030
16.5, 3021
16.5025, 3021
16.505, 3023
16.5075, 3021
16.51, 3019
16.5125, 3014
16.515, 3039
16.5175, 3019
16.52, 3024
16.5225, 3024
16.525, 3037
16.5275, 3041
16.53, 3037
16.5325, 3070
16.535, 3037
16.5375, 3038
16.54, 3035
16.5425, 3027
16.545, 3020
16.5475, 3021
16.55, 3063
16.5525, 3043
16.555, 3043
16.5575, 3045
16.56, 3052
16.5625, 3037
16.565, 3023
16.5675, 3055
16.57, 3021
16.5725, 2997
16.575, 2988
16.5775, 2996
16.58, 3002
16.5825, 3016
16.585, 3047
16.5875, 2993
16.59, 2980
16.5925, 2973
16.595, 3003
16.5975, 3005
16.6, 2995
16.6025, 3017
16.605, 2989
16.6075, 2981
16.61, 2972
16.6125, 2986
16.615, 2979
16.6175, 2981
16.62, 2978
16.6225, 2972
16.625, 2961
16.6275, 2948
16.63, 2951
16.6325, 2951
16.635, 2961
16.6375, 3013
16.64, 2981
16.6425, 2965
16.645, 2946
16.6475, 2940
16.65, 2943
16.6525, 2949
16.655, 2994
16.6575, 2975
16.66, 2954
16.6625, 2947
16.665, 2942
16.6675, 2947
16.67, 2952
16.6725, 2987
16.675, 2955
16.6775, 2967
16.68, 2967
16.6825, 2970
16.685, 2953
16.6875, 2942
16.69, 2972
16.6925, 2949
16.695, 2959
16.6975, 2966
16.7, 2974
16.7025, 2956
16.705, 2950
16.7075, 2981
16.71, 2963
16.7125, 2961
16.715, 2969
16.7175, 2989
16.72, 2981
16.7225, 2970
16.725, 2984
16.7275, 2957
16.73, 2961
16.7325, 2978
16.735, 2973
16.7375, 2966
16.74, 2959
16.7425, 2969
16.745, 2971
16.7475, 2974
16.75, 2982
16.7525, 2987
16.755, 3000
16.7575, 2989
16.76, 3011
16.7625, 2961
16.765, 2960
16.7675, 2957
16.77, 2977
16.7725, 2975
16.775, 2981
16.7775, 3007
16.78, 2988
16.7825, 2980
16.785, 2968
16.7875, 2974
16.79, 2977
16.7925, 2980
16.795, 2999
16.7975, 2995
16.8, 2988
16.8025, 2968
16.805, 2975
16.8075, 2970
16.81, 2986
16.8125, 3021
16.815, 2994
16.8175, 2994
16.82, 2989
16.8225, 2994
16.825, 2977
16.8275, 2981
16.83, 3016
16.8325, 2993
16.835, 2984
16.8375, 2985
16.84, 2981
16.8425, 2965
16.845, 2971
16.8475, 3005
16.85, 2976
16.8525, 2977
16.855, 2973
16.8575, 2971
16.86, 2968
16.8625, 2962
16.865, 2984
16.8675, 2940
16.87, 2950
16.8725, 2974
16.875, 2986
16.8775, 2994
16.88, 2978
16.8825, 3010
16.885, 2984
16.8875, 2987
16.89, 2988
16.8925, 2997
16.895, 2987
16.8975, 2989
16.9, 3019
16.9025, 2986
16.905, 2986
16.9075, 2998
16.91, 3009
16.9125, 3004
16.915, 2996
16.9175, 2996
16.92, 2988
16.9225, 2985
16.925, 2993
16.9275, 3004
16.93, 3011
16.9325, 3012
16.935, 3060
16.9375, 3042
16.94, 3065
16.9425, 3069
16.945, 3060
16.9475, 3028
16.95, 2977
16.9525, 2948
16.955, 2814
16.9575, 2707
16.96, 2635
16.9625, 2571
16.965, 2460
16.9675, 2434
16.97, 2424
16.9725, 2479
16.975, 2612
16.9775, 2718
16.98, 2814
16.9825, 2972
16.985, 3080
16.9875, 3188
16.99, 3197
16.9925, 3214
16.995, 3215
16.9975, 3198
17.0, 3171
17.0025, 3155
17.005, 3159
17.0075, 3112
17.01, 3091
17.0125, 3053
17.015, 3024
17.0175, 3025
17.02, 3046
17.0225, 3100
17.025, 3087
17.0275, 3092
17.03, 3078
17.0325, 3069
17.035, 3071
17.0375, 3060
17.04, 3087
17.0425, 3055
17.045, 3043
17.0475, 3048
17.05, 3047
17.0525, 3050
17.055, 3037
17.0575, 3068
17.06, 3034
17.0625, 3047
17.065, 3037
17.0675, 3038
17.07, 3025
17.0725, 3026
17.075, 3057
17.0775, 3015
17.08, 3022
17.0825, 3025
17.085, 3034
17.0875, 3028
17.09, 3015
17.0925, 3026
17.095, 3017
17.0975, 3006
17.1, 3004
17.1025, 3022
17.105, 3023
17.1075, 3018
17.11, 3035
17.1125, 2997
17.115, 2988
17.1175, 2982
17.12, 2994
17.1225, 2988
17.125, 2992
17.1275, 3026
17.13, 2981
17.1325, 2973
17.135, 2964
17.1375, 2965
17.14, 2959
17.1425, 2957
17.145, 2963
17.1475, 2949
17.15, 2943
17.1525, 2954
17.155, 2962
17.1575, 2965
17.16, 2975
17.1625, 3011
17.165, 2986
17.1675, 2989
17.17, 2976
17.1725, 2977
17.175, 2981
17.1775, 2984
17.18, 3033
17.1825, 3011
17.185, 3015
17.1875, 3015
17.19, 3024
17.1925, 3025
17.195, 3030
17.1975, 3088
17.2, 3052
17.2025, 3065
17.205, 3079
17.2075, 3074
17.21, 3063
17.2125, 3065
17.215, 3100
17.2175, 3082
17.22, 3089
17.2225, 3096
17.225, 3094
17.2275, 3085
17.23, 3089
17.2325, 3132
17.235, 3114
17.2375, 3121
17.24, 3128
17.2425, 3135
17.245, 3127
17.2475, 3118
17.25, 3138
17.2525, 3114
17.255, 3116
17.2575, 3113
17.26, 3125
17.2625, 3129
17.265, 3121
17.2675, 3118
17.27, 3104
17.2725, 3094
17.275, 3107
17.2775, 3117
17.28, 3120
17.2825, 3116
17.285, 3131
17.2875, 3089
17.29, 3096
17.2925, 3094
17.295, 3099
17.2975, 3103
17.3, 3105
17.3025, 3143
17.305, 3104
17.3075, 3090
17.31, 3075
17.3125, 3076
17.315, 3076
17.3175, 3078
17.32, 3095
17.3225, 3096
17.325, 3091
17.3275, 3082
17.33, 3071
17.3325, 3072
17.335, 3070
17.3375, 3110
17.34, 3099
17.3425, 3095
17.345, 3087
17.3475, 3081
17.35, 3073
17.3525, 3064
17.355, 3095
17.3575, 3071
17.36, 3071
17.3625, 3073
17.365, 3076
17.3675, 3057
17.37, 3055
17.3725, 3105
17.375, 3080
17.3775, 3078
17.38, 3076
17.3825, 3072
17.385, 3061
17.3875, 3062
17.39, 3089
17.3925, 3060
17.395, 3071
17.3975, 3070
17.4, 3076
17.4025, 3065
17.405, 3065
17.4075, 3089
17.41, 3062
17.4125, 3067
17.415, 3072
17.4175, 3081
17.42, 3081
17.4225, 3072
17.425, 3101
17.4275, 3063
17.43, 3062
17.4325, 3069
17.435, 3075
17.4375, 3066
17.44, 3063
17.4425, 3070
17.445, 3071
17.4475, 3067
17.45, 3069
17.4525, 3072
17.455, 3075
17.4575, 3071
17.46, 3107
17.4625, 3064
17.465, 3057
17.4675, 3064
17.47, 3067
17.4725, 3062
17.475, 3064
17.4775, 3104
17.48, 3067
17.4825, 3061
17.485, 3046
17.4875, 3055
17.49, 3064
17.4925, 3059
17.495, 3101
17.4975, 3059
17.5, 3036
17.5025, 3037
17.505, 3042
17.5075, 3047
17.51, 3047
17.5125, 3089
17.515, 3069
17.5175, 3066
17.52, 3061
17.5225, 3049
17.525, 3045
17.5275, 3028
17.53, 3062
17.5325, 3036
17.535, 3047
17.5375, 3038
17.54, 3028
17.5425, 3021
17.545, 3020
17.5475, 3057
17.55, 3016
17.5525, 3014
17.555, 3013
17.5575, 3009
17.56, 2999
17.5625, 2999
17.565, 3038
17.5675, 3010
17.57, 3009
17.5725, 3024
17.575, 3026
17.5775, 3025
17.58, 3022
17.5825, 3044
17.585, 3015
17.5875, 3015
17.59, 3019
17.5925, 3029
17.595, 3024
17.5975, 3025
17.6, 3080
17.6025, 3014
17.605, 3015
17.6075, 3010
17.61, 3023
17.6125, 3032
17.615, 3017
17.6175, 3049
17.62, 3015
17.6225, 3018
17.625, 3039
17.6275, 3059
17.63, 3072
17.6325, 3092
17.635, 3124
17.6375, 3078
17.64, 3013
17.6425, 2943
17.645, 2877
17.6475, 2779
17.65, 2723
17.6525, 2675
17.655, 2528
17.6575, 2437
17.66, 2429
17.6625, 2446
17.665, 2523
17.6675, 2625
17.67, 2764
17.6725, 2901
17.675, 3039
17.6775, 3124
17.68, 3187
17.6825, 3233
17.685, 3232
17.6875, 3268
17.69, 3209
17.6925, 3182
17.695, 3154
17.6975, 3133
17.7, 3099
17.7025, 3073
17.705, 3106
17.7075, 3091
17.71, 3105
17.7125, 3091
17.715, 3094
17.7175, 3084
17.72, 3075
17.7225, 3120
17.725, 3072
17.7275, 3078
17.73, 3077
17.7325, 3063
17.735, 3065
17.7375, 3062
17.74, 3094
17.7425, 3060
17.745, 3048
17.7475, 3055
17.75, 3065
17.7525, 3057
17.755, 3030
17.7575, 3051
17.76, 3009
17.7625, 3019
17.765, 3026
17.7675, 3031
17.77, 3036
17.7725, 3037
17.775, 3063
17.7775, 3027
17.78, 3020
17.7825, 3029
17.785, 3027
17.7875, 3023
17.79, 3020
17.7925, 3008
17.795, 3002
17.7975, 2997
17.8, 2995
17.8025, 3000
17.805, 3005
17.8075, 3008
17.81, 3032
17.8125, 2987
17.815, 2983
17.8175, 2974
17.82, 2983
17.8225, 2968
17.825, 2958
17.8275, 2984
17.83, 2948
17.8325, 2940
17.835, 2929
17.8375, 2929
17.84, 2925
17.8425, 2940
17.845, 2999
17.8475, 2974
17.85, 2980
17.8525, 2946
17.855, 2941
17.8575, 2942
17.86, 2949
17.8625, 3016
17.865, 3001
17.8675, 3006
17.87, 3006
17.8725, 3001
17.875, 3005
17.8775, 3010
17.88, 3045
17.8825, 3021
17.885, 3021
17.8875, 3023
17.89, 3058
17.8925, 3069
17.895, 3084
17.8975, 3119
17.9, 3093
17.9025, 3093
17.905, 3084
17.9075, 3097
17.91, 3111
17.9125, 3098
17.915, 3102
17.9175, 3115
17.92, 3127
17.9225, 3133
17.925, 3140
17.9275, 3134
17.93, 3127
17.9325, 3159
17.935, 3118
17.9375, 3122
17.94, 3120
17.9425, 3134
17.945, 3126
17.9475, 3117
17.95, 3166
17.9525, 3138
17.955, 3129
17.9575, 3139
17.96, 3140
17.9625, 3147
17.965, 3140
17.9675, 3127
17.97, 3120
17.9725, 3114
17.975, 3115
17.9775, 3125
17.98, 3135
17.9825, 3143
17.985, 3170
17.9875, 3121
17.99, 3118
17.9925, 3109
17.995, 3101
17.9975, 3101
18.0, 3099
18.0025, 3156
18.005, 3109
18.0075, 3089
18.01, 3086
18.0125, 3065
18.015, 3060
18.0175, 3061
18.02, 3125
18.0225, 3094
18.025, 3076
18.0275, 3056
18.03, 3062
18.0325, 3059
18.035, 3067
18.0375, 3105
18.04, 3064
18.0425, 3064
18.045, 3061
18.0475, 3045
18.05, 3067
18.0525, 3058
18.055, 3095
18.0575, 3045
18.06, 3043
18.0625, 3038
18.065, 3046
18.0675, 3042
18.07, 3039
18.0725, 3072
18.075, 3022
18.0775, 3010
18.08, 3012
18.0825, 3011
18.085, 3021
18.0875, 3011
18.09, 3017
18.0925, 3009
18.095, 3004
18.0975, 3006
18.1, 3009
18.1025, 3004
18.105, 2999
18.1075, 3014
18.11, 2978
18.1125, 2987
18.115, 2993
18.1175, 3002
18.12, 3008
18.1225, 3001
18.125, 3040
18.1275, 2988
18.13, 2985
18.1325, 3005
18.135, 3007
18.1375, 3039
18.14, 3038
18.1425, 3074
18.145, 3042
18.1475, 3043
18.15, 3041
18.1525, 3045
18.155, 3051
18.1575, 3059
18.16, 3101
18.1625, 3062
18.165, 3067
18.1675, 3049
18.17, 3052
18.1725, 3055
18.175, 3054
18.1775, 3092
18.18, 3049
18.1825, 3047
18.185, 3044
18.1875, 3044
18.19, 3032
18.1925, 3042
18.195, 3074
18.1975, 3032
18.2, 3041
18.2025, 3024
18.205, 3023
18.2075, 3008
18.21, 3006
18.2125, 3035
18.215, 2993
18.2175, 2997
18.22, 2994
18.2225, 2998
18.225, 3006
18.2275, 3004
18.23, 3043
18.2325, 3006
18.235, 2981
18.2375, 2982
18.24, 2984
18.2425, 2966
18.245, 2958
18.2475, 3005
18.25, 2978
18.2525, 2973
18.255, 2970
18.2575, 2977
18.26, 2977
18.2625, 2979
18.265, 2984
18.2675, 2977
18.27, 2957
18.2725, 2956
18.275, 2942
18.2775, 2929
18.28, 2938
18.2825, 2986
18.285, 2944
18.2875, 2933
18.29, 2928
18.2925, 2928
18.295, 2946
18.2975, 2976
18.3, 3030
18.3025, 2980
18.305, 2968
18.3075, 2951
18.31, 2943
18.3125, 2931
18.315, 2926
18.3175, 3001
18.32, 2934
18.3225, 2927
18.325, 2923
18.3275, 2938
18.33, 2952
18.3325, 2952
18.335, 3008
18.3375, 2973
18.34, 3004
18.3425, 2995
18.345, 2983
18.3475, 2961
18.35, 2921
18.3525, 2897
18.355, 2772
18.3575, 2664
18.36, 2599
18.3625, 2530
18.365, 2416
18.3675, 2345
18.37, 2369
18.3725, 2384
18.375, 2501
18.3775, 2614
18.38, 2699
18.3825, 2849
18.385, 2985
18.3875, 3101
18.39, 3083
18.3925, 3098
18.395, 3093
18.3975, 3099
18.4, 3084
18.4025, 3057
18.405, 3067
18.4075, 3006
18.41, 2996
18.4125, 2982
18.415, 2974
18.4175, 2975
18.42, 2970
18.4225, 3031
18.425, 2975
18.4275, 2972
18.43, 2965
18.4325, 2966
18.435, 2966
18.4375, 2962
18.44, 2959
18.4425, 2954
18.445, 2955
18.4475, 2949
18.45, 2946
18.4525, 2948
18.455, 2946
18.4575, 2992
18.46, 2943
18.4625, 2943
18.465, 2945
18.4675, 2957
18.47, 2954
18.4725, 2948
18.475, 2983
18.4775, 2927
18.48, 2935
18.4825, 2929
18.485, 2944
18.4875, 2950
18.49, 2952
18.4925, 2957
18.495, 2948
18.4975, 2952
18.5, 2948
18.5025, 2949
18.505, 2949
18.5075, 2940
18.51, 2991
18.5125, 2941
18.515, 2929
18.5175, 2922
18.52, 2924
18.5225, 2921
18.525, 2923
18.5275, 3000
18.53, 2927
18.5325, 2931
18.535, 2930
18.5375, 2942
18.54, 2940
18.5425, 2953
18.545, 3011
18.5475, 2974
18.55, 2976
18.5525, 2975
18.555, 2987
18.5575, 2976
18.56, 2988
18.5625, 2995
18.565, 2989
18.5675, 3014
18.57, 3018
18.5725, 3026
18.575, 3028
18.5775, 3038
18.58, 3118
18.5825, 3052
18.585, 3049
18.5875, 3049
18.59, 3057
18.5925, 3049
18.595, 3049
18.5975, 3104
18.6, 3058
18.6025, 3056
18.605, 3066
18.6075, 3068
18.61, 3075
18.6125, 3078
18.615, 3126
18.6175, 3068
18.62, 3073
18.6225, 3080
18.625, 3083
18.6275, 3083
18.63, 3077
18.6325, 3143
18.635, 3060
18.6375, 3060
18.64, 3057
18.6425, 3051
18.645, 3048
18.6475, 3044
18.65, 3118
18.6525, 3066
18.655, 3071
18.6575, 3080
18.66, 3080
18.6625, 3064
18.665, 2046
18.6675, 1735
18.67, 1672
18.6725, 1645
18.675, 1610
18.6775, 1562
18.68, 1530
18.6825, 1511
18.685, 1516
18.6875, 1491
18.69, 1486
18.6925, 1491
18.695, 1474
18.6975, 1478
18.7, 1495
18.7025, 1516
18.705, 1505
18.7075, 1513
18.71, 1528
18.7125, 1543
18.715, 1569
18.7175, 1580
18.72, 1625
18.7225, 1622
18.725, 1646
18.7275, 1663
18.73, 1683
18.7325, 1710
18.735, 1717
18.7375, 1771
18.74, 1775
18.7425, 1783
18.745, 1805
18.7475, 1832
18.75, 1832
18.7525, 1855
18.755, 1906
18.7575, 1892
18.76, 1918
18.7625, 1940
18.765, 1957
18.7675, 1982
18.77, 2012
18.7725, 2080
18.775, 2054
18.7775, 2081
18.78, 2110
18.7825, 2141
18.785, 2159
18.7875, 2190
18.79, 2248
18.7925, 2229
18.795, 2243
18.7975, 2267
18.8, 2292
18.8025, 2319
18.805, 2346
18.8075, 2417
18.81, 2399
18.8125, 2415
18.815, 2437
18.8175, 2462
18.82, 2476
18.8225, 2484
18.825, 2549
18.8275, 2536
18.83, 2543
18.8325, 2567
18.835, 2589
18.8375, 2606
18.84, 2614
18.8425, 2691
18.845, 2659
18.8475, 2665
18.85, 2676
18.8525, 2690
18.855, 2708
18.8575, 2716
18.86, 2785
18.8625, 2754
18.865, 2764
18.8675, 2779
18.87, 2787
18.8725, 2798
18.875, 2803
18.8775, 2859
18.88, 2846
18.8825, 2870
18.885, 2868
18.8875, 2886
18.89, 2876
18.8925, 2892
18.895, 2981
18.8975, 2922
18.9, 2929
18.9025, 2945
18.905, 2946
18.9075, 2959
18.91, 2963
18.9125, 2973
18.915, 2989
18.9175, 2997
18.92, 3008
18.9225, 3030
18.925, 3043
18.9275, 3032
18.93, 3100
18.9325, 3060
18.935, 3059
18.9375, 3068
18.94, 3094
18.9425, 3100
18.945, 3114
18.9475, 3180
18.95, 3135
18.9525, 3145
18.955, 3157
18.9575, 3180
18.96, 3171
18.9625, 3187
18.965, 3205
18.9675, 3211
18.97, 3217
18.9725, 3218
18.975, 3231
18.9775, 3240
18.98, 3248
18.9825, 3315
18.985, 3272
18.9875, 3275
18.99, 3274
18.9925, 3291
18.995, 3298
18.9975, 3316
19.0, 3385
19.0025, 3346
19.005, 3371
19.0075, 3393
19.01, 3409
19.0125, 3397
19.015, 3381
19.0175, 3388
19.02, 3264
19.0225, 3170
19.025, 3061
19.0275, 3009
19.03, 2961
19.0325, 2864
19.035, 2851
19.0375, 2795
19.04, 2840
19.0425, 2973
19.045, 3130
19.0475, 3244
19.05, 3382
19.0525, 3542
19.055, 3546
19.0575, 3569
19.06, 3587
19.0625, 3600
19.065, 3583
19.0675, 3564
19.07, 3605
19.0725, 3523
19.075, 3503
19.0775, 3465
19.08, 3451
19.0825, 3447
19.085, 3440
19.0875, 3445
19.09, 3445
19.0925, 3441
19.095, 3433
19.0975, 3434
19.1, 3428
19.1025, 3421
19.105, 3478
19.1075, 3437
19.11, 3433
19.1125, 3428
19.115, 3436
19.1175, 3412
19.12, 3412
19.1225, 3462
19.125, 3410
19.1275, 3409
19.13, 3411
19.1325, 3411
19.135, 3404
19.1375, 3398
19.14, 3447
19.1425, 3370
19.145, 3374
19.1475, 3380
19.15, 3390
19.1525, 3387
19.155, 3383
19.1575, 3491
19.16, 3383
19.1625, 3373
19.165, 3364
19.1675, 3357
19.17, 3349
19.1725, 3352
19.175, 3431
19.1775, 3358
19.18, 3352
19.1825, 3351
19.185, 3347
19.1875, 3338
19.19, 3339
19.1925, 3380
19.195, 3313
19.1975, 3312
19.2, 3299
19.2025, 3301
19.205, 3310
19.2075, 3297
19.21, 3306
19.2125, 3288
19.215, 3289
19.2175, 3285
19.22, 3291
19.2225, 3290
19.225, 3286
19.2275, 3285
19.23, 3300
19.2325, 3298
19.235, 3287
19.2375, 3292
19.24, 3293
19.2425, 3310
19.245, 3359
19.2475, 3319
19.25, 3317
19.2525, 3316
19.255, 3324
19.2575, 3321
19.26, 3324
19.2625, 3345
19.265, 3343
19.2675, 3345
19.27, 3353
19.2725, 3359
19.275, 3358
19.2775, 3360
19.28, 3441
19.2825, 3377
19.285, 3383
19.2875, 3378
19.29, 3388
19.2925, 3380
19.295, 3377
19.2975, 3453
19.3, 3366
19.3025, 3377
19.305, 3385
19.3075, 3394
19.31, 3380
19.3125, 3381
19.315, 3419
19.3175, 3361
19.32, 3362
19.3225, 3362
19.325, 3372
19.3275, 3373
19.33, 3361
19.3325, 3407
19.335, 3354
19.3375, 3342
19.34, 3332
19.3425, 3333
19.345, 3334
19.3475, 3333
19.35, 3335
19.3525, 3329
19.355, 3315
19.3575, 3315
19.36, 3315
19.3625, 3314
19.365, 3309
19.3675, 3363
19.37, 3302
19.3725, 3291
19.375, 3283
19.3775, 3285
19.38, 3285
19.3825, 3284
19.385, 3287
19.3875, 3281
19.39, 3282
19.3925, 3273
19.395, 3269
19.3975, 3270
19.4, 3258
19.4025, 3307
19.405, 3255
19.4075, 3254
19.41, 3254
19.4125, 3256
19.415, 3250
19.4175, 3252
19.42, 3299
19.4225, 3249
19.425, 3249
19.4275, 3250
19.43, 3255
19.4325, 3238
19.435, 3229
19.4375, 3276
19.44, 3222
19.4425, 3229
19.445, 3226
19.4475, 3225
19.45, 3220
19.4525, 3211
19.455, 3263
19.4575, 3215
19.46, 3209
19.4625, 3212
19.465, 3213
19.4675, 3211
19.47, 3207
19.4725, 3192
19.475, 3187
19.4775, 3196
19.48, 3190
19.4825, 3209
19.485, 3199
19.4875, 3193
19.49, 3248
19.4925, 3189
19.495, 3186
19.4975, 3184
19.5, 3195
19.5025, 3187
19.505, 3188
19.5075, 3192
19.51, 3170
19.5125, 3173
19.515, 3155
19.5175, 3164
19.52, 3167
19.5225, 3165
19.525, 3224
19.5275, 3165
19.53, 3163
19.5325, 3159
19.535, 3161
19.5375, 3160
19.54, 3157
19.5425, 3203
19.545, 3151
19.5475, 3147
19.55, 3151
19.5525, 3139
19.555, 3131
19.5575, 3137
19.56, 3145
19.5625, 3140
19.565, 3143
19.5675, 3138
19.57, 3139
19.5725, 3139
19.575, 3131
19.5775, 3178
19.58, 3114
19.5825, 3106
19.585, 3100
19.5875, 3112
19.59, 3102
19.5925, 3104
19.595, 3151
19.5975, 3104
19.6, 3096
19.6025, 3081
19.605, 3093
19.6075, 3093
19.61, 3099
19.6125, 3149
19.615, 3086
19.6175, 3095
19.62, 3077
19.6225, 3082
19.625, 3079
19.6275, 3084
19.63, 3137
19.6325, 3096
19.635, 3089
19.6375, 3077
19.64, 3080
19.6425, 3088
19.645, 3093
19.6475, 3139
19.65, 3088
19.6525, 3087
19.655, 3094
19.6575, 3096
19.66, 3092
19.6625, 3076
19.665, 3132
19.6675, 3079
19.67, 3075
19.6725, 3080
19.675, 3100
19.6775, 3114
19.68, 3128
19.6825, 3185
19.685, 3129
19.6875, 3099
19.69, 3071
19.6925, 3031
19.695, 2955
19.6975, 2849
19.7, 2813
19.7025, 2699
19.705, 2611
19.7075, 2511
19.71, 2505
19.7125, 2507
19.715, 2606
19.7175, 2771
19.72, 2819
19.7225, 2944
19.725, 3084
19.7275, 3170
19.73, 3210
19.7325, 3247
19.735, 3254
19.7375, 3244
19.74, 3217
19.7425, 3186
19.745, 3166
19.7475, 3136
19.75, 3110
19.7525, 3150
19.755, 3087
19.7575, 3078
19.76, 3069
19.7625, 3069
19.765, 3067
19.7675, 3069
19.77, 3117
19.7725, 3064
19.775, 3062
19.7775, 3064
19.78, 3061
19.7825, 3052
19.785, 3037
19.7875, 3093
19.79, 3037
19.7925, 3044
19.795, 3041
19.7975, 3041
19.8, 3042
19.8025, 3031
19.805, 3088
19.8075, 3035
19.81, 3031
19.8125, 3031
19.815, 3031
19.8175, 3015
19.82, 3011
19.8225, 3056
19.825, 3005
19.8275, 2997
19.83, 2997
19.8325, 2997
19.835, 2989
19.8375, 2980
19.84, 3033
19.8425, 2977
19.845, 2974
19.8475, 2972
19.85, 2966
19.8525, 2959
19.855, 2961
19.8575, 3010
19.86, 2950
19.8625, 2942
19.865, 2941
19.8675, 2942
19.87, 2937
19.8725, 2949
19.875, 2993
19.8775, 2925
19.88, 2917
19.8825, 2919
19.885, 2926
19.8875, 2925
19.89, 2925
19.8925, 2974
19.895, 2918
19.8975, 2917
19.9, 2918
19.9025, 2914
19.905, 2916
19.9075, 2918
19.91, 2927
19.9125, 2925
19.915, 2938
19.9175, 2937
19.92, 2942
19.9225, 2944
19.925, 2945
19.9275, 3032
19.93, 2966
19.9325, 2976
19.935, 2974
19.9375, 2988
19.94, 2985
19.9425, 2985
19.945, 3070
19.9475, 3022
19.95, 3029
19.9525, 3026
19.955, 3023
19.9575, 3026
19.96, 3029
19.9625, 3084
19.965, 3040
19.9675, 3039
19.97, 3043
19.9725, 3048
19.975, 3041
19.9775, 3043
19.98, 3098
19.9825, 3037
19.985, 3040
19.9875, 3051
19.99, 3059
19.9925, 3056
19.995, 3049
19.9975, 3100
20.0, 3046
20.0025, 3044
20.005, 3046
20.0075, 3037
20.01, 3033
20.0125, 3040
20.015, 3101
20.0175, 3036
20.02, 3021
20.0225, 3020
20.025, 3020
20.0275, 3029
20.03, 3019
20.0325, 3019
20.035, 3017
20.0375, 3005
20.04, 2993
20.0425, 3006
20.045, 3003
20.0475, 3007
20.05, 3063
20.0525, 3007
20.055, 3004
20.0575, 3000
20.06, 2988
20.0625, 2988
20.065, 2989
20.0675, 3080
20.07, 2956
20.0725, 2716
20.075, 2544
20.0775, 2430
20.08, 2356
20.0825, 2304
20.085, 2311
20.0875, 2255
20.09, 2246
20.0925, 2231
20.095, 2225
20.0975, 2212
20.1, 2215
20.1025, 2246
20.105, 2217
20.1075, 2212
20.11, 2213
20.1125, 2215
20.115, 2218
20.1175, 2235
20.12, 2239
20.1225, 2246
20.125, 2256
20.1275, 2258
20.13, 2272
20.1325, 2276
20.135, 2274
20.1375, 2320
20.14, 2290
20.1425, 2301
20.145, 2312
20.1475, 2323
20.15, 2319
20.1525, 2338
20.155, 2350
20.1575, 2366
20.16, 2378
20.1625, 2386
20.165, 2406
20.1675, 2413
20.17, 2421
20.1725, 2480
20.175, 2456
20.1775, 2461
20.18, 2471
20.1825, 2476
20.185, 2484
20.1875, 2495
20.19, 2558
20.1925, 2511
20.195, 2523
20.1975, 2530
20.2, 2533
20.2025, 2540
20.205, 2551
20.2075, 2625
20.21, 2587
20.2125, 2590
20.215, 2595
20.2175, 2612
20.22, 2614
20.2225, 2622
20.225, 2690
20.2275, 2646
20.23, 2652
20.2325, 2654
20.235, 2662
20.2375, 2678
20.24, 2685
20.2425, 2698
20.245, 2706
20.2475, 2718
20.25, 2721
20.2525, 2715
20.255, 2719
20.2575, 2731
20.26, 2748
20.2625, 2761
20.265, 2760
20.2675, 2763
20.27, 2775
20.2725, 2765
20.275, 2782
20.2775, 2872
20.28, 2828
20.2825, 2834
20.285, 2826
20.2875, 2849
20.29, 2849
20.2925, 2844
20.295, 2901
20.2975, 2854
20.3, 2852
20.3025, 2864
20.305, 2884
20.3075, 2893
20.31, 2891
20.3125, 2950
20.315, 2908
20.3175, 2919
20.32, 2926
20.3225, 2938
20.325, 2941
20.3275, 2943
20.33, 2995
20.3325, 2957
20.335, 2965
20.3375, 2977
20.34, 2994
20.3425, 2992
20.345, 2997
20.3475, 3063
20.35, 3024
20.3525, 3036
20.355, 3033
20.3575, 3039
20.36, 3040
20.3625, 3046
20.365, 3108
20.3675, 3061
20.37, 3063
20.3725, 3064
20.375, 3078
20.3775, 3083
20.38, 3091
20.3825, 3098
20.385, 3090
20.3875, 3103
20.39, 3105
20.3925, 3133
20.395, 3151
20.3975, 3175
20.4, 3264
20.4025, 3208
20.405, 3176
20.4075, 3155
20.41, 3132
20.4125, 3074
20.415, 2998
20.4175, 2960
20.42, 2841
20.4225, 2772
20.425, 2651
20.4275, 2603
20.43, 2594
20.4325, 2649
20.435, 2785
20.4375, 2881
20.44, 2975
20.4425, 3135
20.445, 3246
20.4475, 3315
20.45, 3359
20.4525, 3452
20.455, 3390
20.4575, 3364
20.46, 3346
20.4625, 3313
20.465, 3272
20.4675, 3242
20.47, 3322
20.4725, 3223
20.475, 3213
20.4775, 3215
20.48, 3212
20.4825, 3198
20.485, 3193
20.4875, 3258
20.49, 3191
20.4925, 3179
20.495, 3188
20.4975, 3186
20.5, 3166
20.5025, 3154
20.505, 3209
20.5075, 3146
20.51, 3153
20.5125, 3149
20.515, 3152
20.5175, 3146
20.52, 3143
20.5225, 3137
20.525, 3137
20.5275, 3140
20.53, 3144
20.5325, 3156
20.535, 3155
20.5375, 3153
20.54, 3200
20.5425, 3122
20.545, 3105
20.5475, 3079
20.55, 3067
20.5525, 3025
20.555, 2975
20.5575, 2925
20.56, 2872
20.5625, 2832
20.565, 2799
20.5675, 2758
20.57, 2721
20.5725, 2693
20.575, 2713
20.5775, 2623
20.58, 2606
20.5825, 2585
20.585, 2573
20.5875, 2566
20.59, 2543
20.5925, 2593
20.595, 2531
20.5975, 2511
20.6, 2480
20.6025, 2465
20.605, 2439
20.6075, 2419
20.61, 2410
20.6125, 2394
20.615, 2390
20.6175, 2366
20.62, 2355
20.6225, 2341
20.625, 2341
20.6275, 2394
20.63, 2362
20.6325, 2364
20.635, 2371
20.6375, 2381
20.64, 2381
20.6425, 2376
20.645, 2436
20.6475, 2413
20.65, 2618
20.6525, 2809
20.655, 2951
20.6575, 3050
20.66, 3129
20.6625, 3272
20.665, 3280
20.6675, 3330
20.67, 3376
20.6725, 3414
20.675, 3445
20.6775, 3469
20.68, 3567
20.6825, 3506
20.685, 3528
20.6875, 3541
20.69, 3556
20.6925, 3573
20.695, 3588
20.6975, 3667
20.7, 3597
20.7025, 3609
20.705, 3610
20.7075, 3625
20.71, 3627
20.7125, 3619
20.715, 3718
20.7175, 3621
20.72, 3613
20.7225, 3607
20.725, 3611
20.7275, 3609
20.73, 3612
20.7325, 3605
20.735, 3606
20.7375, 3602
20.74, 3596
20.7425, 3603
20.745, 3601
20.7475, 3597
20.75, 3677
20.7525, 3602
20.755, 3598
20.7575, 3592
20.76, 3586
20.7625, 3580
20.765, 3584
20.7675, 3662
20.77, 3587
20.7725, 3576
20.775, 3564
20.7775, 3561
20.78, 3556
20.7825, 3546
20.785, 3557
20.7875, 3557
20.79, 3555
20.7925, 3542
20.795, 3535
20.7975, 3527
20.8, 3521
20.8025, 3599
20.805, 3511
20.8075, 3503
20.81, 3499
20.8125, 3471
20.815, 3449
20.8175, 3432
20.82, 3499
20.8225, 3426
20.825, 3418
20.8275, 3416
20.83, 3406
20.8325, 3383
20.835, 3364
20.8375, 3360
20.84, 3341
20.8425, 3331
20.845, 3327
20.8475, 3327
20.85, 3312
20.8525, 3292
20.855, 3352
20.8575, 3269
20.86, 3264
20.8625, 3246
20.865, 3236
20.8675, 3227
20.87, 3212
20.8725, 3271
20.875, 3187
20.8775, 3166
20.88, 3164
20.8825, 3133
20.885, 3118
20.8875, 3099
20.89, 3125
20.8925, 3036
20.895, 3004
20.8975, 2980
20.9, 2953
20.9025, 2917
20.905, 2890
20.9075, 2929
20.91, 2843
20.9125, 2812
20.915, 2786
20.9175, 2778
20.92, 2751
20.9225, 2755
20.925, 2823
20.9275, 2741
20.93, 2747
20.9325, 2736
20.935, 2729
20.9375, 2727
20.94, 2728
20.9425, 2780
20.945, 2723
20.9475, 2708
20.95, 2712
20.9525, 2713
20.955, 2709
20.9575, 2710
20.96, 2775
20.9625, 2721
20.965, 2728
20.9675, 2725
20.97, 2727
20.9725, 2719
20.975, 2729
20.9775, 2806
20.98, 2746
20.9825, 2751
20.985, 2749
20.9875, 2758
20.99, 2769
20.9925, 2769
20.995, 2833
20.9975, 2801
21.0, 2804
21.0025, 2810
21.005, 2824
21.0075, 2820
21.01, 2811
21.0125, 2827
21.015, 2836
21.0175, 2859
21.02, 2873
21.0225, 2890
21.025, 2891
21.0275, 2904
21.03, 2988
21.0325, 2910
21.035, 2921
21.0375, 2933
21.04, 2963
21.0425, 2973
21.045, 2969
21.0475, 3031
21.05, 2981
21.0525, 2971
21.055, 2984
21.0575, 2999
21.06, 3013
21.0625, 3013
21.065, 3072
21.0675, 3023
21.07, 3030
21.0725, 3041
21.075, 3059
21.0775, 3077
21.08, 3094
21.0825, 3167
21.085, 3107
21.0875, 3107
21.09, 3183
21.0925, 3349
21.095, 3448
21.0975, 3520
21.1, 3681
21.1025, 3673
21.105, 3712
21.1075, 3758
21.11, 3803
21.1125, 3834
21.115, 3861
21.1175, 3962
21.12, 3908
21.1225, 3929
21.125, 3935
21.1275, 3962
21.13, 3979
21.1325, 3982
21.135, 4079
21.1375, 3993
21.14, 4020
21.1425, 4007
21.145, 4010
21.1475, 4010
21.15, 4008
21.1525, 4104
21.155, 4005
21.1575, 4013
21.16, 4003
21.1625, 3991
21.165, 3976
21.1675, 3959
21.17, 4045
21.1725, 3954
21.175, 3945
21.1775, 3941
21.18, 3928
21.1825, 3907
21.185, 3889
21.1875, 3874
21.19, 3858
21.1925, 3853
21.195, 3840
21.1975, 3846
21.2, 3838
21.2025, 3838
21.205, 3925
21.2075, 3835
21.21, 3802
21.2125, 3775
21.215, 3719
21.2175, 3637
21.22, 3539
21.2225, 3497
21.225, 3347
21.2275, 3249
21.23, 3125
21.2325, 3061
21.235, 3049
21.2375, 3071
21.24, 3263
21.2425, 3271
21.245, 3349
21.2475, 3480
21.25, 3576
21.2525, 3626
21.255, 3664
21.2575, 3766
21.26, 3677
21.2625, 3641
21.265, 3595
21.2675, 3547
21.27, 3496
21.2725, 3461
21.275, 3535
21.2775, 3430
21.28, 3404
21.2825, 3391
21.285, 3382
21.2875, 3368
21.29, 3351
21.2925, 3416
21.295, 3336
21.2975, 3320
21.3, 3294
21.3025, 3273
21.305, 3243
21.3075, 3230
21.31, 3215
21.3125, 3208
21.315, 3188
21.3175, 3162
21.32, 3144
21.3225, 3102
21.325, 3075
21.3275, 3129
21.33, 3042
21.3325, 3020
21.335, 2995
21.3375, 2963
21.34, 2917
21.3425, 2898
21.345, 2966
21.3475, 2879
21.35, 2866
21.3525, 2856
21.355, 2851
21.3575, 2828
21.36, 2816
21.3625, 2868
21.365, 2806
21.3675, 2799
21.37, 2800
21.3725, 2778
21.375, 2763
21.3775, 2747
21.38, 2795
21.3825, 2707
21.385, 2703
21.3875, 2698
21.39, 2702
21.3925, 2707
21.395, 2700
21.3975, 2752
21.4, 2700
21.4025, 2687
21.405, 2690
21.4075, 2699
21.41, 2691
21.4125, 2693
21.415, 2739
21.4175, 2660
21.42, 2648
21.4225, 2632
21.425, 2619
21.4275, 2594
21.43, 2584
21.4325, 2597
21.435, 2593
21.4375, 2578
21.44, 2576
21.4425, 2570
21.445, 2569
21.4475, 2580
21.45, 2642
21.4525, 2581
21.455, 2562
21.4575, 2553
21.46, 2555
21.4625, 2547
21.465, 2553
21.4675, 2613
21.47, 2555
21.4725, 2565
21.475, 2569
21.4775, 2573
21.48, 2579
21.4825, 2581
21.485, 2644
21.4875, 2596
21.49, 2607
21.4925, 2598
21.495, 2591
21.4975, 2585
21.5, 2586
21.5025, 2679
21.505, 2634
21.5075, 2642
21.51, 2643
21.5125, 2650
21.515, 2645
21.5175, 2640
21.52, 2697
21.5225, 2658
21.525, 2682
21.5275, 2712
21.53, 2746
21.5325, 2751
21.535, 2767
21.5375, 2827
21.54, 2765
21.5425, 2756
21.545, 2760
21.5475, 2773
21.55, 2777
21.5525, 2792
21.555, 2856
21.5575, 2769
21.56, 2766
21.5625, 2752
21.565, 2729
21.5675, 2701
21.57, 2701
21.5725, 2764
21.575, 2700
21.5775, 2681
21.58, 2692
21.5825, 2694
21.585, 2682
21.5875, 2668
21.59, 2734
21.5925, 2672
21.595, 2678
21.5975, 2668
21.6, 2688
21.6025, 2681
21.605, 2679
21.6075, 2691
21.61, 2693
21.6125, 2696
21.615, 2703
21.6175, 2711
21.62, 2713
21.6225, 2730
21.625, 2817
21.6275, 2758
21.63, 2756
21.6325, 2764
21.635, 2779
21.6375, 2784
21.64, 2797
21.6425, 2899
21.645, 2840
21.6475, 2850
21.65, 2840
21.6525, 2842
21.655, 2848
21.6575, 2849
21.66, 2927
21.6625, 2875
21.665, 2889
21.6675, 2887
21.67, 2898
21.6725, 2919
21.675, 2930
21.6775, 3020
21.68, 2963
21.6825, 2973
21.685, 2997
21.6875, 3001
21.69, 3006
21.6925, 3009
21.695, 3077
21.6975, 3021
21.7, 3021
21.7025, 3033
21.705, 3040
21.7075, 3033
21.71, 3034
21.7125, 3111
21.715, 3036
21.7175, 3033
21.72, 3047
21.7225, 3047
21.725, 3046
21.7275, 3031
21.73, 3101
21.7325, 3034
21.735, 3049
21.7375, 3055
21.74, 3072
21.7425, 3076
21.745, 3076
21.7475, 3149
21.75, 3061
21.7525, 3045
21.755, 3042
21.7575, 3040
21.76, 3042
21.7625, 3042
21.765, 3124
21.7675, 3038
21.77, 3025
21.7725, 2999
21.775, 2997
21.7775, 2992
21.78, 2984
21.7825, 2984
21.785, 2966
21.7875, 2958
21.79, 2950
21.7925, 2954
21.795, 2957
21.7975, 2957
21.8, 3037
21.8025, 2972
21.805, 2967
21.8075, 2966
21.81, 2959
21.8125, 2955
21.815, 2960
21.8175, 3032
21.82, 2965
21.8225, 2966
21.825, 2959
21.8275, 2957
21.83, 2949
21.8325, 2953
21.835, 3020
21.8375, 2943
21.84, 2952
21.8425, 2956
21.845, 2949
21.8475, 2949
21.85, 2948
21.8525, 3029
21.855, 2964
21.8575, 2966
21.86, 2966
21.8625, 2968
21.865, 2965
21.8675, 2971
21.87, 3039
21.8725, 2960
21.875, 2968
21.8775, 2977
21.88, 2988
21.8825, 2974
21.885, 2942
21.8875, 3018
21.89, 2939
21.8925, 2931
21.895, 2930
21.8975, 2938
21.9, 2944
21.9025, 3006
21.905, 3091
21.9075, 3148
21.91, 3209
21.9125, 3248
21.915, 3292
21.9175, 3316
21.92, 3333
21.9225, 3424
21.925, 3342
21.9275, 3349
21.93, 3330
21.9325, 3338
21.935, 3327
21.9375, 3323
21.94, 3401
21.9425, 3309
21.945, 3285
21.9475, 3264
21.95, 3260
21.9525, 3265
21.955, 3248
21.9575, 3327
21.96, 3237
21.9625, 3211
21.965, 3200
21.9675, 3182
21.97, 3191
21.9725, 3170
21.975, 3260
21.9775, 3179
21.98, 3164
21.9825, 3155
21.985, 3157
21.9875, 3137
21.99, 3135
21.9925, 3201
21.995, 3130
21.9975, 3121
22.0, 3100
22.0025, 3086
22.005, 3071
22.0075, 3070
22.01, 3141
22.0125, 3066
22.015, 3060
22.0175, 3047
22.02, 3050
22.0225, 3059
22.025, 3051
22.0275, 3058
22.03, 3064
22.0325, 3071
22.035, 3062
22.0375, 3044
22.04, 3022
22.0425, 2993
22.045, 2991
22.0475, 2830
22.05, 2723
22.0525, 2636
22.055, 2581
22.0575, 2486
22.06, 2428
22.0625, 2447
22.065, 2483
22.0675, 2578
22.07, 2705
22.0725, 2819
22.075, 2933
22.0775, 3035
22.08, 3117
22.0825, 3145
22.085, 3175
22.0875, 3183
22.09, 3179
22.0925, 3151
22.095, 3144
22.0975, 3211
22.1, 3084
22.1025, 3052
22.105, 3044
22.1075, 3041
22.11, 3048
22.1125, 3040
22.115, 3139
22.1175, 3069
22.12, 3075
22.1225, 3059
22.125, 3075
22.1275, 3078
22.13, 3073
22.1325, 3159
22.135, 3086
22.1375, 3090
22.14, 3083
22.1425, 3072
22.145, 3078
22.1475, 3081
22.15, 3191
22.1525, 3089
22.155, 3082
22.1575, 3082
22.16, 3090
22.1625, 3079
22.165, 3076
22.1675, 3163
22.17, 3090
22.1725, 3082
22.175, 3078
22.1775, 3076
22.18, 3087
22.1825, 3087
22.185, 3180
22.1875, 3085
22.19, 3071
22.1925, 3066
22.195, 3080
22.1975, 3085
22.2, 3096
22.2025, 3169
22.205, 3061
22.2075, 3030
22.21, 3004
22.2125, 2955
22.215, 2910
22.2175, 2894
22.22, 2925
22.2225, 2845
22.225, 2832
22.2275, 2830
22.23, 2831
22.2325, 2844
22.235, 2863
22.2375, 2933
22.24, 2879
22.2425, 2917
22.245, 2947
22.2475, 2987
22.25, 3042
22.2525, 3058
22.255, 3081
22.2575, 3103
22.26, 3138
22.2625, 3185
22.265, 3252
22.2675, 3291
22.27, 3340
22.2725, 3464
22.275, 3391
22.2775, 3406
22.28, 3424
22.2825, 3469
22.285, 3508
22.2875, 3542
22.29, 3691
22.2925, 3613
22.295, 3640
22.2975, 3695
22.3, 3707
22.3025, 3731
22.305, 3736
22.3075, 3849
22.31, 3760
22.3125, 3768
22.315, 3791
22.3175, 3792
22.32, 3815
22.3225, 3823
22.325, 3924
22.3275, 3823
22.33, 3801
22.3325, 3790
22.335, 3788
22.3375, 3762
22.34, 3748
22.3425, 3844
22.345, 3733
22.3475, 3739
22.35, 3728
22.3525, 3703
22.355, 3669
22.3575, 3665
22.36, 3763
22.3625, 3675
22.365, 3676
22.3675, 3655
22.37, 3654
22.3725, 3631
22.375, 3603
22.3775, 3593
22.38, 3595
22.3825, 3593
22.385, 3577
22.3875, 3549
22.39, 3541
22.3925, 3519
22.395, 3637
22.3975, 3504
22.4, 3470
22.4025, 3460
22.405, 3441
22.4075, 3426
22.41, 3412
22.4125, 3490
22.415, 3392
22.4175, 3374
22.42, 3345
22.4225, 3317
22.425, 3309
22.4275, 3306
22.43, 3300
22.4325, 3269
22.435, 3250
22.4375, 3244
22.44, 3250
22.4425, 3251
22.445, 3232
22.4475, 3296
22.45, 3199
22.4525, 3157
22.455, 3145
22.4575, 3164
22.46, 3147
22.4625, 3119
22.465, 3196
22.4675, 3109
22.47, 3107
22.4725, 3096
22.475, 3092
22.4775, 3080
22.48, 3065
22.4825, 3155
22.485, 3067
22.4875, 3051
22.49, 3036
22.4925, 3011
22.495, 2991
22.4975, 3015
22.5, 3111
22.5025, 3033
22.505, 3037
22.5075, 3035
22.51, 3012
22.5125, 2985
22.515, 2985
22.5175, 3050
22.52, 2945
22.5225, 2947
22.525, 2972
22.5275, 2971
22.53, 2957
22.5325, 2950
22.535, 3027
22.5375, 2926
22.54, 2908
22.5425, 2917
22.545, 2915
22.5475, 2901
22.55, 2868
22.5525, 2853
22.555, 2890
22.5575, 2929
22.56, 2906
22.5625, 2892
22.565, 2875
22.5675, 2873
22.57, 2950
22.5725, 2875
22.575, 2878
22.5775, 2866
22.58, 2851
22.5825, 2836
22.585, 2818
22.5875, 2818
22.59, 2796
22.5925, 2805
22.595, 2816
22.5975, 2810
22.6, 2818
22.6025, 2809
22.605, 2880
22.6075, 2796
22.61, 2787
22.6125, 2818
22.615, 2820
22.6175, 2822
22.62, 2832
22.6225, 2919
22.625, 2820
22.6275, 2775
22.63, 2778
22.6325, 2780
22.635, 2785
22.6375, 2777
22.64, 2832
22.6425, 2753
22.645, 2747
22.6475, 2757
22.65, 2777
22.6525, 2756
22.655, 2763
22.6575, 2862
22.66, 2785
22.6625, 2759
22.665, 2759
22.6675, 2760
22.67, 2754
22.6725, 2751
22.675, 2869
22.6775, 2788
22.68, 2776
22.6825, 2769
22.685, 2794
22.6875, 2790
22.69, 2789
22.6925, 2867
22.695, 2785
22.6975, 2798
22.7, 2816
22.7025, 2773
22.705, 2743
22.7075, 2772
22.71, 2855
22.7125, 2761
22.715, 2757
22.7175, 2787
22.72, 2774
22.7225, 2758
22.725, 2764
22.7275, 2757
22.73, 2764
22.7325, 2798
22.735, 2809
22.7375, 2828
22.74, 2835
22.7425, 2821
22.745, 2875
22.7475, 2732
22.75, 2648
22.7525, 2557
22.755, 2431
22.7575, 2376
22.76, 2330
22.7625, 2299
22.765, 2148
22.7675, 2141
22.77, 2171
22.7725, 2330
22.775, 2515
22.7775, 2652
22.78, 2855
22.7825, 2886
22.785, 2943
22.7875, 2940
22.79, 2939
22.7925, 2937
22.795, 2941
22.7975, 3007
22.8, 2913
22.8025, 2885
22.805, 2846
22.8075, 2813
22.81, 2789
22.8125, 2787
22.815, 2851
22.8175, 2772
22.82, 2786
22.8225, 2789
22.825, 2798
22.8275, 2782
22.83, 2797
22.8325, 2887
22.835, 2781
22.8375, 2771
22.84, 2777
22.8425, 2757
22.845, 2749
22.8475, 2764
22.85, 2780
22.8525, 2782
22.855, 2767
22.8575, 2767
22.86, 2772
22.8625, 2763
22.865, 2746
22.8675, 2818
22.87, 2739
22.8725, 2773
22.875, 2797
22.8775, 2778
22.88, 2783
22.8825, 2755
22.885, 2832
22.8875, 2747
22.89, 2735
22.8925, 2713
22.895, 2711
22.8975, 2711
22.9, 2718
22.9025, 2703
22.905, 2694
22.9075, 2708
22.91, 2704
22.9125, 2702
22.915, 2708
22.9175, 2701
22.92, 2807
22.9225, 2725
22.925, 2722
22.9275, 2705
22.93, 2700
22.9325, 2668
22.935, 2665
22.9375, 2753
22.94, 2678
22.9425, 2669
22.945, 2696
22.9475, 2708
22.95, 2695
22.9525, 2688
22.955, 2777
22.9575, 2693
22.96, 2690
22.9625, 2669
22.965, 2703
22.9675, 2733
22.97, 2737
22.9725, 2775
22.975, 2771
22.9775, 2775
22.98, 2779
22.9825, 2778
22.985, 2787
22.9875, 2784
22.99, 2891
22.9925, 2812
22.995, 2838
22.9975, 2869
23.0, 2899
23.0025, 2896
23.005, 2923
23.0075, 3019
23.01, 2944
23.0125, 2950
23.015, 2954
23.0175, 2950
23.02, 2964
23.0225, 2972
23.025, 3067
23.0275, 2995
23.03, 2993
23.0325, 2996
23.035, 3011
23.0375, 3019
23.04, 3034
23.0425, 3153
23.045, 3061
23.0475, 3068
23.05, 3058
23.0525, 3066
23.055, 3043
23.0575, 3043
23.06, 3129
23.0625, 3056
23.065, 3054
23.0675, 3061
23.07, 3053
23.0725, 3032
23.075, 3031
23.0775, 3030
23.08, 3025
23.0825, 3001
23.085, 3025
23.0875, 3066
23.09, 3070
23.0925, 3068
23.095, 3153
23.0975, 3056
23.1, 3033
23.1025, 3035
23.105, 3035
23.1075, 3032
23.11, 3011
23.1125, 3166
23.115, 3029
23.1175, 3013
23.12, 3000
23.1225, 3003
23.125, 2999
23.1275, 2991
23.13, 3061
23.1325, 2978
23.135, 2969
23.1375, 3001
23.14, 3000
23.1425, 2990
23.145, 2958
23.1475, 3044
23.15, 2957
23.1525, 2973
23.155, 2963
23.1575, 2965
23.16, 2962
23.1625, 2980
23.165, 3093
23.1675, 3001
23.17, 2992
23.1725, 2995
23.175, 2984
23.1775, 2982
23.18, 2995
23.1825, 3108
23.185, 3022
23.1875, 2998
23.19, 3000
23.1925, 3003
23.195, 3009
23.1975, 3007
23.2, 3024
23.2025, 3029
23.205, 3017
23.2075, 3006
23.21, 3011
23.2125, 3018
23.215, 3039
23.2175, 3148
23.22, 3046
23.2225, 3031
23.225, 3035
23.2275, 3046
23.23, 3046
23.2325, 3040
23.235, 3058
23.2375, 3064
23.24, 3068
23.2425, 3060
23.245, 3073
23.2475, 3051
23.25, 3032
23.2525, 3019
23.255, 3031
23.2575, 3040
23.26, 3031
23.2625, 3035
23.265, 3024
23.2675, 3043
23.27, 3147
23.2725, 3052
23.275, 3032
23.2775, 3003
23.28, 3012
23.2825, 3040
23.285, 3035
23.2875, 3146
23.29, 3040
23.2925, 3027
23.295, 3017
23.2975, 3011
23.3, 3022
23.3025, 3026
23.305, 3139
23.3075, 3036
23.31, 3026
23.3125, 3025
23.315, 3019
23.3175, 3034
23.32, 3039
23.3225, 3140
23.325, 3039
23.3275, 3044
23.33, 3048
23.3325, 3045
23.335, 3040
23.3375, 3043
23.34, 3143
23.3425, 3057
23.345, 3059
23.3475, 3058
23.35, 3063
23.3525, 3052
23.355, 3060
23.3575, 3058
23.36, 3078
23.3625, 3071
23.365, 3049
23.3675, 3044
23.37, 3041
23.3725, 3031
23.375, 3116
23.3775, 3032
23.38, 3044
23.3825, 3060
23.385, 3057
23.3875, 3052
23.39, 3037
23.3925, 3132
23.395, 3036
23.3975, 3051
23.4, 3051
23.4025, 3053
23.405, 3052
23.4075, 3044
23.41, 3142
23.4125, 3035
23.415, 3016
23.4175, 3002
23.42, 2997
23.4225, 3003
23.425, 2996
23.4275, 3086
23.43, 2996
23.4325, 2999
23.435, 2997
23.4375, 2999
23.44, 2983
23.4425, 2973
