0.0025, 3071
0.005, 3070
0.0075, 3075
0.01, 3071
0.0125, 3071
0.015, 3070
0.0175, 3077
0.02, 3073
0.0225, 3072
0.025, 3080
0.0275, 3075
0.03, 3073
0.0325, 3072
0.035, 3073
0.0375, 3072
0.04, 3072
0.0425, 3081
0.045, 3073
0.0475, 3073
0.05, 3072
0.0525, 3075
0.055, 3073
0.0575, 3073
0.06, 3080
0.0625, 3074
0.065, 3073
0.0675, 3072
0.07, 3075
0.0725, 3073
0.075, 3072
0.0775, 3079
0.08, 3074
0.0825, 3073
0.085, 3073
0.0875, 3076
0.09, 3074
0.0925, 3072
0.095, 3077
0.0975, 3074
0.1, 3073
0.1025, 3072
0.105, 3075
0.1075, 3074
0.11, 3073
0.1125, 3082
0.115, 3075
0.1175, 3075
0.12, 3073
0.1225, 3076
0.125, 3075
0.1275, 3074
0.13, 3083
0.1325, 3075
0.135, 3074
0.1375, 3073
0.14, 3077
0.1425, 3075
0.145, 3074
0.1475, 3082
0.15, 3076
0.1525, 3073
0.155, 3074
0.1575, 3074
0.16, 3074
0.1625, 3073
0.165, 3082
0.1675, 3075
0.17, 3074
0.1725, 3074
0.175, 3077
0.1775, 3074
0.18, 3074
0.1825, 3083
0.185, 3077
0.1875, 3075
0.19, 3074
0.1925, 3078
0.195, 3076
0.1975, 3074
0.2, 3083
0.2025, 3077
0.205, 3076
0.2075, 3074
0.21, 3075
0.2125, 3076
0.215, 3074
0.2175, 3083
0.22, 3075
0.2225, 3075
0.225, 3074
0.2275, 3078
0.23, 3076
0.2325, 3075
0.235, 3083
0.2375, 3077
0.24, 3075
0.2425, 3075
0.245, 3079
0.2475, 3076
0.25, 3075
0.2525, 3083
0.255, 3077
0.2575, 3076
0.26, 3075
0.2625, 3079
0.265, 3077
0.2675, 3077
0.27, 3079
0.2725, 3077
0.275, 3075
0.2775, 3074
0.28, 3078
0.2825, 3076
0.285, 3075
0.2875, 3083
0.29, 3076
0.2925, 3075
0.295, 3074
0.2975, 3077
0.3, 3074
0.3025, 3074
0.305, 3083
0.3075, 3076
0.31, 3074
0.3125, 3074
0.315, 3077
0.3175, 3076
0.32, 3075
0.3225, 3083
0.325, 3076
0.3275, 3074
0.33, 3074
0.3325, 3073
0.335, 3073
0.3375, 3074
0.34, 3083
0.3425, 3076
0.345, 3078
0.3475, 3079
0.35, 3083
0.3525, 3084
0.355, 3085
0.3575, 3097
0.36, 3090
0.3625, 3087
0.365, 3083
0.3675, 3085
0.37, 3081
0.3725, 3077
0.375, 3082
0.3775, 3076
0.38, 3073
0.3825, 3072
0.385, 3075
0.3875, 3074
0.39, 3073
0.3925, 3076
0.395, 3075
0.3975, 3074
0.4, 3075
0.4025, 3076
0.405, 3075
0.4075, 3075
0.41, 3083
0.4125, 3076
0.415, 3075
0.4175, 3075
0.42, 3078
0.4225, 3077
0.425, 3074
0.4275, 3082
0.43, 3076
0.4325, 3075
0.435, 3075
0.4375, 3079
0.44, 3079
0.4425, 3078
0.445, 3083
0.4475, 3079
0.45, 3079
0.4525, 3077
0.455, 3080
0.4575, 3078
0.46, 3078
0.4625, 3086
0.465, 3078
0.4675, 3077
0.47, 3076
0.4725, 3080
0.475, 3077
0.4775, 3077
0.48, 3085
0.4825, 3079
0.485, 3078
0.4875, 3076
0.49, 3081
0.4925, 3078
0.495, 3078
0.4975, 3085
0.5, 3080
0.5025, 3078
0.505, 3078
0.5075, 3079
0.51, 3078
0.5125, 3078
0.515, 3084
0.5175, 3079
0.52, 3077
0.5225, 3077
0.525, 3080
0.5275, 3078
0.53, 3076
0.5325, 3085
0.535, 3078
0.5375, 3078
0.54, 3077
0.5425, 3079
0.545, 3079
0.5475, 3077
0.55, 3086
0.5525, 3079
0.555, 3079
0.5575, 3077
0.56, 3079
0.5625, 3078
0.565, 3078
0.5675, 3086
0.57, 3079
0.5725, 3079
0.575, 3078
0.5775, 3081
0.58, 3079
0.5825, 3078
0.585, 3087
0.5875, 3079
0.59, 3078
0.5925, 3077
0.595, 3081
0.5975, 3078
0.6, 3077
0.6025, 3085
0.605, 3079
0.6075, 3077
0.61, 3075
0.6125, 3079
0.615, 3077
0.6175, 3075
0.62, 3080
0.6225, 3077
0.625, 3076
0.6275, 3075
0.63, 3077
0.6325, 3076
0.635, 3075
0.6375, 3084
0.64, 3076
0.6425, 3075
0.645, 3075
0.6475, 3078
0.65, 3077
0.6525, 3076
0.655, 3084
0.6575, 3077
0.66, 3076
0.6625, 3076
0.665, 3079
0.6675, 3077
0.67, 3076
0.6725, 3086
0.675, 3077
0.6775, 3077
0.68, 3075
0.6825, 3076
0.685, 3076
0.6875, 3075
0.69, 3084
0.6925, 3077
0.695, 3075
0.6975, 3075
0.7, 3078
0.7025, 3076
0.705, 3076
0.7075, 3084
0.71, 3078
0.7125, 3076
0.715, 3077
0.7175, 3079
0.72, 3077
0.7225, 3076
0.725, 3084
0.7275, 3079
0.73, 3077
0.7325, 3076
0.735, 3077
0.7375, 3077
0.74, 3075
0.7425, 3084
0.745, 3078
0.7475, 3077
0.75, 3075
0.7525, 3079
0.755, 3077
0.7575, 3077
0.76, 3084
0.7625, 3077
0.765, 3077
0.7675, 3076
0.77, 3079
0.7725, 3077
0.775, 3075
0.7775, 3085
0.78, 3078
0.7825, 3078
0.785, 3077
0.7875, 3080
0.79, 3077
0.7925, 3077
0.795, 3081
0.7975, 3077
0.8, 3076
0.8025, 3076
0.805, 3079
0.8075, 3077
0.81, 3077
0.8125, 3086
0.815, 3078
0.8175, 3077
0.82, 3076
0.8225, 3080
0.825, 3078
0.8275, 3077
0.83, 3086
0.8325, 3079
0.835, 3077
0.8375, 3076
0.84, 3079
0.8425, 3078
0.845, 3076
0.8475, 3081
0.85, 3077
0.8525, 3076
0.855, 3076
0.8575, 3078
0.86, 3076
0.8625, 3076
0.865, 3085
0.8675, 3078
0.87, 3078
0.8725, 3076
0.875, 3080
0.8775, 3077
0.88, 3077
0.8825, 3085
0.885, 3078
0.8875, 3078
0.89, 3077
0.8925, 3079
0.895, 3078
0.8975, 3076
0.9, 3086
0.9025, 3079
0.905, 3078
0.9075, 3076
0.91, 3077
0.9125, 3077
0.915, 3076
0.9175, 3084
0.92, 3078
0.9225, 3077
0.925, 3076
0.9275, 3079
0.93, 3077
0.9325, 3077
0.935, 3085
0.9375, 3078
0.94, 3077
0.9425, 3076
0.945, 3079
0.9475, 3078
0.95, 3076
0.9525, 3086
0.955, 3079
0.9575, 3078
0.96, 3077
0.9625, 3080
0.965, 3079
0.9675, 3078
0.97, 3082
0.9725, 3078
0.975, 3077
0.9775, 3077
0.98, 3079
0.9825, 3078
0.985, 3078
0.9875, 3086
0.99, 3079
0.9925, 3078
0.995, 3076
0.9975, 3081
1.0, 3078
1.0025, 3078
1.005, 3086
1.0075, 3079
1.01, 3078
1.0125, 3077
1.015, 3081
1.0175, 3079
1.02, 3078
1.0225, 3086
1.025, 3080
1.0275, 3079
1.03, 3078
1.0325, 3080
1.035, 3077
1.0375, 3078
1.04, 3087
1.0425, 3079
1.045, 3079
1.0475, 3078
1.05, 3080
1.0525, 3078
1.055, 3078
1.0575, 3086
1.06, 3080
1.0625, 3079
1.065, 3079
1.0675, 3081
1.07, 3079
1.0725, 3077
1.075, 3086
1.0775, 3079
1.08, 3078
1.0825, 3077
1.085, 3078
1.0875, 3079
1.09, 3077
1.0925, 3086
1.095, 3080
1.0975, 3078
1.1, 3078
1.1025, 3082
1.105, 3079
1.1075, 3078
1.11, 3087
1.1125, 3080
1.115, 3079
1.1175, 3078
1.12, 3081
1.1225, 3079
1.125, 3078
1.1275, 3088
1.13, 3080
1.1325, 3080
1.135, 3077
1.1375, 3082
1.14, 3080
1.1425, 3079
1.145, 3081
1.1475, 3079
1.15, 3077
1.1525, 3078
1.155, 3080
1.1575, 3079
1.16, 3077
1.1625, 3086
1.165, 3080
1.1675, 3079
1.17, 3078
1.1725, 3082
1.175, 3079
1.1775, 3079
1.18, 3087
1.1825, 3080
1.185, 3079
1.1875, 3079
1.19, 3082
1.1925, 3081
1.195, 3079
1.1975, 3088
1.2, 3081
1.2025, 3080
1.205, 3079
1.2075, 3079
1.21, 3079
1.2125, 3079
1.215, 3089
1.2175, 3080
1.22, 3081
1.2225, 3079
1.225, 3083
1.2275, 3079
1.23, 3079
1.2325, 3088
1.235, 3081
1.2375, 3078
1.24, 3078
1.2425, 3082
1.245, 3079
1.2475, 3078
1.25, 3088
1.2525, 3081
1.255, 3080
1.2575, 3078
1.26, 3080
1.2625, 3079
1.265, 3079
1.2675, 3087
1.27, 3082
1.2725, 3080
1.275, 3080
1.2775, 3083
1.28, 3080
1.2825, 3080
1.285, 3088
1.2875, 3081
1.29, 3078
1.2925, 3078
1.295, 3081
1.2975, 3080
1.3, 3078
1.3025, 3088
1.305, 3082
1.3075, 3083
1.31, 3084
1.3125, 3089
1.315, 3090
1.3175, 3092
1.32, 3096
1.3225, 3091
1.325, 3089
1.3275, 3085
1.33, 3088
1.3325, 3083
1.335, 3079
1.3375, 3085
1.34, 3078
1.3425, 3077
1.345, 3076
1.3475, 3080
1.35, 3077
1.3525, 3079
1.355, 3088
1.3575, 3081
1.36, 3079
1.3625, 3079
1.365, 3083
1.3675, 3080
1.37, 3080
1.3725, 3088
1.375, 3081
1.3775, 3080
1.38, 3079
1.3825, 3078
1.385, 3079
1.3875, 3078
1.39, 3087
1.3925, 3079
1.395, 3079
1.3975, 3078
1.4, 3081
1.4025, 3080
1.405, 3079
1.4075, 3088
1.41, 3081
1.4125, 3079
1.415, 3079
1.4175, 3082
1.42, 3081
1.4225, 3078
1.425, 3087
1.4275, 3081
1.43, 3080
1.4325, 3079
1.435, 3080
1.4375, 3080
1.44, 3079
1.4425, 3088
1.445, 3081
1.4475, 3080
1.45, 3079
1.4525, 3083
1.455, 3080
1.4575, 3081
1.46, 3088
1.4625, 3081
1.465, 3080
1.4675, 3079
1.47, 3082
1.4725, 3081
1.475, 3080
1.4775, 3088
1.48, 3082
1.4825, 3081
1.485, 3080
1.4875, 3083
1.49, 3082
1.4925, 3081
1.495, 3084
1.4975, 3081
1.5, 3080
1.5025, 3080
1.505, 3084
1.5075, 3081
1.51, 3081
1.5125, 3089
1.515, 3083
1.5175, 3080
1.52, 3080
1.5225, 3083
1.525, 3082
1.5275, 3080
1.53, 3089
1.5325, 3082
1.535, 3082
1.5375, 3079
1.54, 3083
1.5425, 3080
1.545, 3080
1.5475, 3083
1.55, 3080
1.5525, 3080
1.555, 3079
1.5575, 3082
1.56, 3081
1.5625, 3080
1.565, 3087
1.5675, 3080
1.57, 3079
1.5725, 3078
1.575, 3082
1.5775, 3079
1.58, 3079
1.5825, 3087
1.585, 3080
1.5875, 3078
1.59, 3078
1.5925, 3081
1.595, 3079
1.5975, 3078
1.6, 3086
1.6025, 3080
1.605, 3078
1.6075, 3077
1.61, 3078
1.6125, 3077
1.615, 3076
1.6175, 3085
1.62, 3078
1.6225, 3077
1.625, 3076
1.6275, 3079
1.63, 3080
1.6325, 3077
1.635, 3086
1.6375, 3079
1.64, 3077
1.6425, 3077
1.645, 3081
1.6475, 3079
1.65, 3078
1.6525, 3087
1.655, 3080
1.6575, 3079
1.66, 3077
1.6625, 3081
1.665, 3079
1.6675, 3078
1.67, 3082
1.6725, 3078
1.675, 3078
1.6775, 3077
1.68, 3080
1.6825, 3079
1.685, 3079
1.6875, 3086
1.69, 3079
1.6925, 3078
1.695, 3077
1.6975, 3080
1.7, 3078
1.7025, 3077
1.705, 3086
1.7075, 3080
1.71, 3077
1.7125, 3077
1.715, 3081
1.7175, 3079
1.72, 3078
1.7225, 3086
1.725, 3080
1.7275, 3078
1.73, 3078
1.7325, 3078
1.735, 3079
1.7375, 3078
1.74, 3086
1.7425, 3079
1.745, 3078
1.7475, 3078
1.75, 3080
1.7525, 3079
1.755, 3078
1.7575, 3087
1.76, 3080
1.7625, 3078
1.765, 3078
1.7675, 3081
1.77, 3079
1.7725, 3077
1.775, 3086
1.7775, 3080
1.78, 3078
1.7825, 3078
1.785, 3080
1.7875, 3078
1.79, 3078
1.7925, 3086
1.795, 3080
1.7975, 3078
1.8, 3078
1.8025, 3081
1.805, 3080
1.8075, 3079
1.81, 3087
1.8125, 3081
1.815, 3079
1.8175, 3079
1.82, 3083
1.8225, 3080
1.825, 3079
1.8275, 3088
1.83, 3082
1.8325, 3080
1.835, 3079
1.8375, 3082
1.84, 3081
1.8425, 3080
1.845, 3083
1.8475, 3080
1.85, 3079
1.8525, 3078
1.855, 3081
1.8575, 3078
1.86, 3078
1.8625, 3088
1.865, 3080
1.8675, 3080
1.87, 3078
1.8725, 3082
1.875, 3079
1.8775, 3079
1.88, 3087
1.8825, 3081
1.885, 3079
1.8875, 3079
1.89, 3081
1.8925, 3080
1.895, 3079
1.8975, 3089
1.9, 3081
1.9025, 3081
1.905, 3079
1.9075, 3080
1.91, 3079
1.9125, 3079
1.915, 3087
1.9175, 3081
1.92, 3079
1.9225, 3079
1.925, 3081
1.9275, 3080
1.93, 3078
1.9325, 3089
1.935, 3080
1.9375, 3079
1.94, 3079
1.9425, 3081
1.945, 3080
1.9475, 3078
1.95, 3088
1.9525, 3081
1.955, 3080
1.9575, 3079
1.96, 3081
1.9625, 3081
1.965, 3079
1.9675, 3083
1.97, 3080
1.9725, 3080
1.975, 3079
1.9775, 3080
1.98, 3080
1.9825, 3079
1.985, 3088
1.9875, 3080
1.99, 3080
1.9925, 3079
1.995, 3082
1.9975, 3079
2.0, 3079
2.0025, 3087
2.005, 3081
2.0075, 3079
2.01, 3078
2.0125, 3081
2.015, 3079
2.0175, 3079
2.02, 3087
2.0225, 3081
2.025, 3079
2.0275, 3078
2.03, 3078
2.0325, 3079
2.035, 3078
2.0375, 3087
2.04, 3080
2.0425, 3079
2.045, 3079
2.0475, 3082
2.05, 3080
2.0525, 3079
2.055, 3087
2.0575, 3081
2.06, 3078
2.0625, 3079
2.065, 3081
2.0675, 3080
2.07, 3077
2.0725, 3087
2.075, 3080
2.0775, 3079
2.08, 3077
2.0825, 3079
2.085, 3078
2.0875, 3078
2.09, 3087
2.0925, 3079
2.095, 3079
2.0975, 3077
2.1, 3081
2.1025, 3079
2.105, 3078
2.1075, 3087
2.11, 3081
2.1125, 3079
2.115, 3079
2.1175, 3083
2.12, 3080
2.1225, 3079
2.125, 3088
2.1275, 3081
2.13, 3079
2.1325, 3078
2.135, 3082
2.1375, 3080
2.14, 3080
2.1425, 3083
2.145, 3080
2.1475, 3078
2.15, 3078
2.1525, 3080
2.155, 3080
2.1575, 3077
2.16, 3087
2.1625, 3079
2.165, 3079
2.1675, 3077
2.17, 3080
2.1725, 3079
2.175, 3078
2.1775, 3088
2.18, 3080
2.1825, 3078
2.185, 3078
2.1875, 3082
2.19, 3079
2.1925, 3078
2.195, 3088
2.1975, 3080
2.2, 3080
2.2025, 3077
2.205, 3080
2.2075, 3078
2.21, 3078
2.2125, 3087
2.215, 3079
2.2175, 3078
2.22, 3077
2.2225, 3080
2.225, 3078
2.2275, 3077
2.23, 3087
2.2325, 3081
2.235, 3079
2.2375, 3082
2.24, 3087
2.2425, 3086
2.245, 3088
2.2475, 3099
2.25, 3092
2.2525, 3089
2.255, 3086
2.2575, 3086
2.26, 3084
2.2625, 3079
2.265, 3081
2.2675, 3076
2.27, 3075
2.2725, 3075
2.275, 3077
2.2775, 3077
2.28, 3077
2.2825, 3085
2.285, 3078
2.2875, 3078
2.29, 3078
2.2925, 3081
2.295, 3080
2.2975, 3079
2.3, 3088
2.3025, 3079
2.305, 3079
2.3075, 3078
2.31, 3082
2.3125, 3079
2.315, 3079
2.3175, 3081
2.32, 3079
2.3225, 3077
2.325, 3077
2.3275, 3081
2.33, 3078
2.3325, 3078
2.335, 3086
2.3375, 3079
2.34, 3078
2.3425, 3078
2.345, 3081
2.3475, 3079
2.35, 3079
2.3525, 3087
2.355, 3080
2.3575, 3079
2.36, 3079
2.3625, 3081
2.365, 3079
2.3675, 3078
2.37, 3087
2.3725, 3081
2.375, 3078
2.3775, 3078
2.38, 3079
2.3825, 3080
2.385, 3078
2.3875, 3086
2.39, 3079
2.3925, 3079
2.395, 3078
2.3975, 3082
2.4, 3077
2.4025, 3078
2.405, 3087
2.4075, 3079
2.41, 3079
2.4125, 3079
2.415, 3082
2.4175, 3080
2.42, 3080
2.4225, 3087
2.425, 3082
2.4275, 3081
2.43, 3079
2.4325, 3082
2.435, 3080
2.4375, 3080
2.44, 3083
2.4425, 3080
2.445, 3080
2.4475, 3079
2.45, 3083
2.4525, 3080
2.455, 3080
2.4575, 3089
2.46, 3082
2.4625, 3080
2.465, 3080
2.4675, 3082
2.47, 3081
2.4725, 3079
2.475, 3088
2.4775, 3081
2.48, 3079
2.4825, 3079
2.485, 3081
2.4875, 3081
2.49, 3079
2.4925, 3083
2.495, 3078
2.4975, 3077
2.5, 3077
2.5025, 3080
2.505, 3079
2.5075, 3077
2.51, 3085
2.5125, 3078
2.515, 3078
2.5175, 3077
2.52, 3080
2.5225, 3078
2.525, 3076
2.5275, 3086
2.53, 3078
2.5325, 3078
2.535, 3076
2.5375, 3081
2.54, 3079
2.5425, 3077
2.545, 3086
2.5475, 3079
2.55, 3078
2.5525, 3076
2.555, 3077
2.5575, 3077
2.56, 3076
2.5625, 3085
2.565, 3078
2.5675, 3077
2.57, 3077
2.5725, 3080
2.575, 3077
2.5775, 3077
2.58, 3086
2.5825, 3079
2.585, 3078
2.5875, 3077
2.59, 3080
2.5925, 3079
2.595, 3078
2.5975, 3086
2.6, 3079
2.6025, 3078
2.605, 3077
2.6075, 3080
2.61, 3078
2.6125, 3077
2.615, 3082
2.6175, 3078
2.62, 3078
2.6225, 3077
2.625, 3079
2.6275, 3078
2.63, 3077
2.6325, 3086
2.635, 3078
2.6375, 3079
2.64, 3077
2.6425, 3081
2.645, 3080
2.6475, 3078
2.65, 3086
2.6525, 3079
2.655, 3079
2.6575, 3079
2.66, 3082
2.6625, 3079
2.665, 3079
2.6675, 3087
2.67, 3080
2.6725, 3078
2.675, 3078
2.6775, 3080
2.68, 3078
2.6825, 3078
2.685, 3086
2.6875, 3080
2.69, 3077
2.6925, 3078
2.695, 3080
2.6975, 3078
2.7, 3076
2.7025, 3085
2.705, 3079
2.7075, 3078
2.71, 3077
2.7125, 3080
2.715, 3079
2.7175, 3077
2.72, 3087
2.7225, 3080
2.725, 3079
2.7275, 3077
2.73, 3078
2.7325, 3078
2.735, 3077
2.7375, 3087
2.74, 3080
2.7425, 3079
2.745, 3078
2.7475, 3080
2.75, 3078
2.7525, 3078
2.755, 3089
2.7575, 3080
2.76, 3079
2.7625, 3079
2.765, 3082
2.7675, 3079
2.77, 3079
2.7725, 3087
2.775, 3081
2.7775, 3079
2.78, 3078
2.7825, 3081
2.785, 3080
2.7875, 3078
2.79, 3081
2.7925, 3080
2.795, 3079
2.7975, 3078
2.8, 3082
2.8025, 3081
2.805, 3078
2.8075, 3087
2.81, 3081
2.8125, 3080
2.815, 3080
2.8175, 3082
2.82, 3081
2.8225, 3079
2.825, 3087
2.8275, 3080
2.83, 3079
2.8325, 3078
2.835, 3081
2.8375, 3080
2.84, 3078
2.8425, 3082
2.845, 3079
2.8475, 3077
2.85, 3076
2.8525, 3080
2.855, 3079
2.8575, 3078
2.86, 3086
2.8625, 3079
2.865, 3077
2.8675, 3077
2.87, 3081
2.8725, 3077
2.875, 3078
2.8775, 3086
2.88, 3081
2.8825, 3077
2.885, 3078
2.8875, 3081
2.89, 3079
2.8925, 3078
2.895, 3087
2.8975, 3080
2.9, 3079
2.9025, 3078
2.905, 3077
2.9075, 3078
2.91, 3077
2.9125, 3086
2.915, 3080
2.9175, 3078
2.92, 3078
2.9225, 3080
2.925, 3079
2.9275, 3078
2.93, 3086
2.9325, 3079
2.935, 3078
2.9375, 3078
2.94, 3081
2.9425, 3078
2.945, 3077
2.9475, 3086
2.95, 3079
2.9525, 3079
2.955, 3078
2.9575, 3082
2.96, 3078
2.9625, 3078
2.965, 3081
2.9675, 3079
2.97, 3079
2.9725, 3078
2.975, 3081
2.9775, 3079
2.98, 3078
2.9825, 3088
2.985, 3080
2.9875, 3079
2.99, 3078
2.9925, 3081
2.995, 3079
2.9975, 3078
3.0, 3088
3.0025, 3080
3.005, 3079
3.0075, 3077
3.01, 3080
3.0125, 3079
3.015, 3078
3.0175, 3082
3.02, 3077
3.0225, 3078
3.025, 3078
3.0275, 3079
3.03, 3079
3.0325, 3079
3.035, 3087
3.0375, 3079
3.04, 3078
3.0425, 3077
3.045, 3081
3.0475, 3078
3.05, 3077
3.0525, 3085
3.055, 3078
3.0575, 3079
3.06, 3077
3.0625, 3081
3.065, 3081
3.0675, 3081
3.07, 3095
3.0725, 3087
3.075, 3088
3.0775, 3089
3.08, 3090
3.0825, 3089
3.085, 3087
3.0875, 3091
3.09, 3083
3.0925, 3079
3.095, 3075
3.0975, 3077
3.1, 3075
3.1025, 3074
3.105, 3083
3.1075, 3076
3.11, 3074
3.1125, 3075
3.115, 3078
3.1175, 3078
3.12, 3076
3.1225, 3086
3.125, 3079
3.1275, 3077
3.13, 3078
3.1325, 3078
3.135, 3078
3.1375, 3077
3.14, 3086
3.1425, 3078
3.145, 3077
3.1475, 3077
3.15, 3080
3.1525, 3078
3.155, 3077
3.1575, 3086
3.16, 3079
3.1625, 3078
3.165, 3077
3.1675, 3081
3.17, 3078
3.1725, 3077
3.175, 3087
3.1775, 3078
3.18, 3079
3.1825, 3077
3.185, 3081
3.1875, 3080
3.19, 3079
3.1925, 3082
3.195, 3079
3.1975, 3077
3.2, 3077
3.2025, 3080
3.205, 3079
3.2075, 3079
3.21, 3087
3.2125, 3080
3.215, 3078
3.2175, 3078
3.22, 3082
3.2225, 3079
3.225, 3079
3.2275, 3088
3.23, 3080
3.2325, 3079
3.235, 3078
3.2375, 3081
3.24, 3080
3.2425, 3078
3.245, 3087
3.2475, 3080
3.25, 3079
3.2525, 3077
3.255, 3078
3.2575, 3079
3.26, 3078
3.2625, 3088
3.265, 3081
3.2675, 3080
3.27, 3078
3.2725, 3083
3.275, 3080
3.2775, 3080
3.28, 3089
3.2825, 3082
3.285, 3081
3.2875, 3080
3.29, 3083
3.2925, 3080
3.295, 3079
3.2975, 3089
3.3, 3082
3.3025, 3081
3.305, 3079
3.3075, 3084
3.31, 3081
3.3125, 3081
3.315, 3082
3.3175, 3080
3.32, 3079
3.3225, 3077
3.325, 3081
3.3275, 3079
3.33, 3077
3.3325, 3086
3.335, 3079
3.3375, 3078
3.34, 3076
3.3425, 3081
3.345, 3079
3.3475, 3076
3.35, 3086
3.3525, 3079
3.355, 3077
3.3575, 3076
3.36, 3080
3.3625, 3079
3.365, 3077
3.3675, 3081
3.37, 3077
3.3725, 3077
3.375, 3075
3.3775, 3079
3.38, 3079
3.3825, 3077
3.385, 3086
3.3875, 3078
3.39, 3078
3.3925, 3075
3.395, 3079
3.3975, 3076
3.4, 3077
3.4025, 3085
3.405, 3078
3.4075, 3075
3.41, 3076
3.4125, 3079
3.415, 3076
3.4175, 3076
3.42, 3085
3.4225, 3079
3.425, 3076
3.4275, 3076
3.43, 3077
3.4325, 3077
3.435, 3077
3.4375, 3085
3.44, 3079
3.4425, 3077
3.445, 3077
3.4475, 3080
3.45, 3077
3.4525, 3077
3.455, 3086
3.4575, 3080
3.46, 3078
3.4625, 3077
3.465, 3080
3.4675, 3079
3.47, 3077
3.4725, 3086
3.475, 3079
3.4775, 3079
3.48, 3077
3.4825, 3081
3.485, 3078
3.4875, 3076
3.49, 3079
3.4925, 3078
3.495, 3077
3.4975, 3077
3.5, 3079
3.5025, 3077
3.505, 3077
3.5075, 3085
3.51, 3079
3.5125, 3078
3.515, 3077
3.5175, 3081
3.52, 3079
3.5225, 3079
3.525, 3088
3.5275, 3080
3.53, 3079
3.5325, 3078
3.535, 3082
3.5375, 3079
3.54, 3078
3.5425, 3082
3.545, 3080
3.5475, 3078
3.55, 3077
3.5525, 3079
3.555, 3079
3.5575, 3078
3.56, 3086
3.5625, 3078
3.565, 3078
3.5675, 3077
3.57, 3080
3.5725, 3077
3.575, 3077
3.5775, 3087
3.58, 3079
3.5825, 3078
3.585, 3077
3.5875, 3080
3.59, 3080
3.5925, 3078
3.595, 3088
3.5975, 3081
3.6, 3079
3.6025, 3079
3.605, 3078
3.6075, 3079
3.61, 3078
3.6125, 3088
3.615, 3079
3.6175, 3079
3.62, 3079
3.6225, 3082
3.625, 3080
3.6275, 3078
3.63, 3087
3.6325, 3079
3.635, 3078
3.6375, 3077
3.64, 3080
3.6425, 3078
3.645, 3077
3.6475, 3086
3.65, 3080
3.6525, 3079
3.655, 3077
3.6575, 3079
3.66, 3078
3.6625, 3078
3.665, 3087
3.6675, 3079
3.67, 3078
3.6725, 3079
3.675, 3081
3.6775, 3080
3.68, 3079
3.6825, 3087
3.685, 3080
3.6875, 3078
3.69, 3079
3.6925, 3081
3.695, 3080
3.6975, 3078
3.7, 3087
3.7025, 3080
3.705, 3078
3.7075, 3077
3.71, 3081
3.7125, 3079
3.715, 3077
3.7175, 3080
3.72, 3078
3.7225, 3077
3.725, 3077
3.7275, 3080
3.73, 3079
3.7325, 3078
3.735, 3087
3.7375, 3079
3.74, 3079
3.7425, 3077
3.745, 3083
3.7475, 3080
3.75, 3079
3.7525, 3088
3.755, 3080
3.7575, 3078
3.76, 3078
3.7625, 3082
3.765, 3080
3.7675, 3079
3.77, 3087
3.7725, 3081
3.775, 3079
3.7775, 3079
3.78, 3078
3.7825, 3078
3.785, 3077
3.7875, 3086
3.79, 3079
3.7925, 3078
3.795, 3077
3.7975, 3079
3.8, 3079
3.8025, 3077
3.805, 3087
3.8075, 3080
3.81, 3079
3.8125, 3077
3.815, 3081
3.8175, 3079
3.82, 3076
3.8225, 3087
3.825, 3080
3.8275, 3080
3.83, 3078
3.8325, 3081
3.835, 3079
3.8375, 3079
3.84, 3081
3.8425, 3078
3.845, 3077
3.8475, 3076
3.85, 3079
3.8525, 3078
3.855, 3078
3.8575, 3088
3.86, 3083
3.8625, 3082
3.865, 3083
3.8675, 3089
3.87, 3088
3.8725, 3092
3.875, 3099
3.8775, 3091
3.88, 3086
3.8825, 3084
3.885, 3085
3.8875, 3082
3.89, 3077
3.8925, 3085
3.895, 3077
3.8975, 3076
3.9, 3075
3.9025, 3076
3.905, 3077
3.9075, 3077
3.91, 3086
3.9125, 3080
3.915, 3078
3.9175, 3077
3.92, 3081
3.9225, 3080
3.925, 3079
3.9275, 3088
3.93, 3081
3.9325, 3080
3.935, 3078
3.9375, 3082
3.94, 3080
3.9425, 3078
3.945, 3088
3.9475, 3080
3.95, 3078
3.9525, 3077
3.955, 3078
3.9575, 3079
3.96, 3078
3.9625, 3087
3.965, 3081
3.9675, 3079
3.97, 3079
3.9725, 3082
3.975, 3079
3.9775, 3079
3.98, 3088
3.9825, 3081
3.985, 3079
3.9875, 3080
3.99, 3082
3.9925, 3080
3.995, 3080
3.9975, 3089
4.0, 3081
4.0025, 3080
4.005, 3079
4.0075, 3082
4.01, 3082
4.0125, 3080
4.015, 3083
4.0175, 3080
4.02, 3080
4.0225, 3079
4.025, 3082
4.0275, 3079
4.03, 3079
4.0325, 3089
4.035, 3081
4.0375, 3081
4.04, 3081
4.0425, 3084
4.045, 3081
4.0475, 3081
4.05, 3089
4.0525, 3082
4.055, 3082
4.0575, 3081
4.06, 3083
4.0625, 3082
4.065, 3081
4.0675, 3091
4.07, 3082
4.0725, 3082
4.075, 3080
4.0775, 3083
4.08, 3081
4.0825, 3080
4.085, 3090
4.0875, 3082
4.09, 3081
4.0925, 3080
4.095, 3083
4.0975, 3081
4.1, 3080
4.1025, 3089
4.105, 3081
4.1075, 3079
4.11, 3079
4.1125, 3082
4.115, 3081
4.1175, 3080
4.12, 3088
4.1225, 3081
4.125, 3080
4.1275, 3079
4.13, 3080
4.1325, 3079
4.135, 3077
4.1375, 3086
4.14, 3079
4.1425, 3079
4.145, 3078
4.1475, 3081
4.15, 3079
4.1525, 3078
4.155, 3088
4.1575, 3080
4.16, 3079
4.1625, 3077
4.165, 3082
4.1675, 3080
4.17, 3077
4.1725, 3088
4.175, 3080
4.1775, 3078
4.18, 3077
4.1825, 3080
4.185, 3078
4.1875, 3078
4.19, 3082
4.1925, 3079
4.195, 3077
4.1975, 3077
4.2, 3080
4.2025, 3079
4.205, 3078
4.2075, 3087
4.21, 3080
4.2125, 3079
4.215, 3079
4.2175, 3081
4.22, 3080
4.2225, 3079
4.225, 3088
4.2275, 3080
4.23, 3078
4.2325, 3078
4.235, 3081
4.2375, 3080
4.24, 3078
4.2425, 3083
4.245, 3079
4.2475, 3078
4.25, 3077
4.2525, 3080
4.255, 3078
4.2575, 3078
4.26, 3088
4.2625, 3079
4.265, 3079
4.2675, 3077
4.27, 3082
4.2725, 3079
4.275, 3078
4.2775, 3087
4.28, 3080
4.2825, 3079
4.285, 3078
4.2875, 3082
4.29, 3080
4.2925, 3080
4.295, 3088
4.2975, 3080
4.3, 3079
4.3025, 3078
4.305, 3081
4.3075, 3079
4.31, 3078
4.3125, 3088
4.315, 3080
4.3175, 3079
4.32, 3079
4.3225, 3081
4.325, 3080
4.3275, 3078
4.33, 3087
4.3325, 3080
4.335, 3079
4.3375, 3078
4.34, 3081
4.3425, 3080
4.345, 3077
4.3475, 3088
4.35, 3081
4.3525, 3079
4.355, 3078
4.3575, 3080
4.36, 3079
4.3625, 3078
4.365, 3087
4.3675, 3080
4.37, 3079
4.3725, 3079
4.375, 3082
4.3775, 3080
4.38, 3079
4.3825, 3088
4.385, 3080
4.3875, 3080
4.39, 3079
4.3925, 3083
4.395, 3080
4.3975, 3080
4.4, 3088
4.4025, 3080
4.405, 3079
4.4075, 3079
4.41, 3081
4.4125, 3080
4.415, 3078
4.4175, 3083
4.42, 3079
4.4225, 3078
4.425, 3078
4.4275, 3081
4.43, 3079
4.4325, 3079
4.435, 3088
4.4375, 3080
4.44, 3080
4.4425, 3079
4.445, 3082
4.4475, 3081
4.45, 3080
4.4525, 3089
4.455, 3081
4.4575, 3080
4.46, 3079
4.4625, 3083
4.465, 3081
4.4675, 3080
4.47, 3090
4.4725, 3081
4.475, 3082
4.4775, 3080
4.48, 3082
4.4825, 3079
4.485, 3080
4.4875, 3088
4.49, 3080
4.4925, 3079
4.495, 3078
4.4975, 3081
4.5, 3079
4.5025, 3080
4.505, 3089
4.5075, 3081
4.51, 3080
4.5125, 3080
4.515, 3082
4.5175, 3080
4.52, 3080
4.5225, 3089
4.525, 3081
4.5275, 3080
4.53, 3079
4.5325, 3081
4.535, 3080
4.5375, 3080
4.54, 3089
4.5425, 3081
4.545, 3080
4.5475, 3080
4.55, 3083
4.5525, 3082
4.555, 3080
4.5575, 3089
4.56, 3081
4.5625, 3080
4.565, 3079
4.5675, 3083
4.57, 3080
4.5725, 3080
4.575, 3089
4.5775, 3081
4.58, 3081
4.5825, 3079
4.585, 3083
4.5875, 3081
4.59, 3081
4.5925, 3083
4.595, 3080
4.5975, 3080
4.6, 3078
4.6025, 3082
4.605, 3081
4.6075, 3080
4.61, 3089
4.6125, 3081
4.615, 3080
4.6175, 3079
4.62, 3082
4.6225, 3080
4.625, 3080
4.6275, 3090
4.63, 3082
4.6325, 3079
4.635, 3079
4.6375, 3081
4.64, 3079
4.6425, 3078
4.645, 3088
4.6475, 3080
4.65, 3081
4.6525, 3081
4.655, 3085
4.6575, 3087
4.66, 3086
4.6625, 3099
4.665, 3093
4.6675, 3092
4.67, 3090
4.6725, 3091
4.675, 3086
4.6775, 3083
4.68, 3089
4.6825, 3079
4.685, 3079
4.6875, 3077
4.69, 3079
4.6925, 3077
4.695, 3077
4.6975, 3088
4.7, 3080
4.7025, 3080
4.705, 3079
4.7075, 3080
4.71, 3079
4.7125, 3079
4.715, 3087
4.7175, 3081
4.72, 3078
4.7225, 3078
4.725, 3082
4.7275, 3079
4.73, 3079
4.7325, 3088
4.735, 3081
4.7375, 3079
4.74, 3079
4.7425, 3082
4.745, 3081
4.7475, 3079
4.75, 3089
4.7525, 3082
4.755, 3080
4.7575, 3079
4.76, 3083
4.7625, 3081
4.765, 3080
4.7675, 3082
4.77, 3081
4.7725, 3078
4.775, 3079
4.7775, 3082
4.78, 3081
4.7825, 3080
4.785, 3090
4.7875, 3082
4.79, 3081
4.7925, 3079
4.795, 3083
4.7975, 3081
4.8, 3081
4.8025, 3089
4.805, 3082
4.8075, 3080
4.81, 3080
4.8125, 3084
4.815, 3081
4.8175, 3081
4.82, 3083
4.8225, 3082
4.825, 3080
4.8275, 3080
4.83, 3083
4.8325, 3081
4.835, 3081
4.8375, 3090
4.84, 3082
4.8425, 3081
4.845, 3080
4.8475, 3084
4.85, 3082
4.8525, 3081
4.855, 3090
4.8575, 3084
4.86, 3081
4.8625, 3082
4.865, 3084
4.8675, 3083
4.87, 3081
4.8725, 3091
4.875, 3083
4.8775, 3082
4.88, 3080
4.8825, 3082
4.885, 3081
4.8875, 3080
4.89, 3090
4.8925, 3082
4.895, 3082
4.8975, 3080
4.9, 3084
4.9025, 3082
4.905, 3080
4.9075, 3089
4.91, 3082
4.9125, 3080
4.915, 3080
4.9175, 3082
4.92, 3081
4.9225, 3080
4.925, 3089
4.9275, 3080
4.93, 3080
4.9325, 3078
4.935, 3082
4.9375, 3080
4.94, 3079
4.9425, 3083
4.945, 3079
4.9475, 3077
4.95, 3078
4.9525, 3079
4.955, 3079
4.9575, 3077
4.96, 3087
4.9625, 3080
4.965, 3078
4.9675, 3078
4.97, 3081
4.9725, 3080
4.975, 3078
4.9775, 3088
4.98, 3080
4.9825, 3079
4.985, 3079
4.9875, 3082
4.99, 3080
4.9925, 3077
4.995, 3087
4.9975, 3080
5.0, 3079
5.0025, 3079
5.005, 3079
5.0075, 3080
5.01, 3078
5.0125, 3088
5.015, 3080
5.0175, 3080
5.02, 3078
5.0225, 3082
5.025, 3079
5.0275, 3079
5.03, 3089
5.0325, 3080
5.035, 3078
5.0375, 3078
5.04, 3082
5.0425, 3080
5.045, 3079
5.0475, 3087
5.05, 3081
5.0525, 3079
5.055, 3079
5.0575, 3083
5.06, 3081
5.0625, 3080
5.065, 3083
5.0675, 3080
5.07, 3079
5.0725, 3080
5.075, 3082
5.0775, 3081
5.08, 3080
5.0825, 3089
5.085, 3080
5.0875, 3079
5.09, 3080
5.0925, 3082
5.095, 3081
5.0975, 3079
5.1, 3089
5.1025, 3081
5.105, 3080
5.1075, 3079
5.11, 3083
5.1125, 3080
5.115, 3079
5.1175, 3089
5.12, 3081
5.1225, 3080
5.125, 3079
5.1275, 3082
5.13, 3079
5.1325, 3080
5.135, 3088
5.1375, 3081
5.14, 3080
5.1425, 3079
5.145, 3082
5.1475, 3081
5.15, 3080
5.1525, 3090
5.155, 3082
5.1575, 3080
5.16, 3079
5.1625, 3083
5.165, 3081
5.1675, 3080
5.17, 3088
5.1725, 3082
5.175, 3080
5.1775, 3079
5.18, 3080
5.1825, 3080
5.185, 3078
5.1875, 3088
5.19, 3080
5.1925, 3079
5.195, 3079
5.1975, 3082
5.2, 3080
5.2025, 3079
5.205, 3090
5.2075, 3082
5.21, 3081
5.2125, 3080
5.215, 3083
5.2175, 3081
5.22, 3079
5.2225, 3089
5.225, 3081
5.2275, 3080
5.23, 3080
5.2325, 3083
5.235, 3081
5.2375, 3080
5.24, 3084
5.2425, 3080
5.245, 3081
5.2475, 3080
5.25, 3083
5.2525, 3080
5.255, 3080
5.2575, 3089
5.26, 3081
5.2625, 3080
5.265, 3078
5.2675, 3082
5.27, 3080
5.2725, 3080
5.275, 3090
5.2775, 3082
5.28, 3081
5.2825, 3081
5.285, 3082
5.2875, 3082
5.29, 3079
5.2925, 3089
5.295, 3082
5.2975, 3081
5.3, 3080
5.3025, 3081
5.305, 3081
5.3075, 3080
5.31, 3089
5.3125, 3082
5.315, 3079
5.3175, 3080
5.32, 3082
5.3225, 3081
5.325, 3079
5.3275, 3088
5.33, 3081
5.3325, 3080
5.335, 3079
5.3375, 3082
5.34, 3080
5.3425, 3079
5.345, 3089
5.3475, 3081
5.35, 3080
5.3525, 3079
5.355, 3083
5.3575, 3081
5.36, 3080
5.3625, 3081
5.365, 3081
5.3675, 3079
5.37, 3079
5.3725, 3081
5.375, 3080
5.3775, 3079
5.38, 3088
5.3825, 3080
5.385, 3078
5.3875, 3079
5.39, 3082
5.3925, 3080
5.395, 3082
5.3975, 3093
5.4, 3087
5.4025, 3086
5.405, 3089
5.4075, 3095
5.41, 3093
5.4125, 3092
5.415, 3099
5.4175, 3087
5.42, 3084
5.4225, 3080
5.425, 3079
5.4275, 3077
5.43, 3076
5.4325, 3085
5.435, 3076
5.4375, 3077
5.44, 3076
5.4425, 3081
5.445, 3079
5.4475, 3080
5.45, 3089
5.4525, 3081
5.455, 3080
5.4575, 3079
5.46, 3082
5.4625, 3080
5.465, 3079
5.4675, 3089
5.47, 3081
5.4725, 3081
5.475, 3079
5.4775, 3079
5.48, 3080
5.4825, 3080
5.485, 3089
5.4875, 3082
5.49, 3079
5.4925, 3079
5.495, 3082
5.4975, 3080
5.5, 3079
5.5025, 3089
5.505, 3082
5.5075, 3080
5.51, 3079
5.5125, 3082
5.515, 3081
5.5175, 3079
5.52, 3090
5.5225, 3082
5.525, 3081
5.5275, 3080
5.53, 3084
5.5325, 3081
5.535, 3080
5.5375, 3084
5.54, 3080
5.5425, 3080
5.545, 3079
5.5475, 3082
5.55, 3081
5.5525, 3080
5.555, 3090
5.5575, 3082
5.56, 3081
5.5625, 3081
5.565, 3083
5.5675, 3081
5.57, 3080
5.5725, 3091
5.575, 3082
5.5775, 3080
5.58, 3080
5.5825, 3083
5.585, 3081
5.5875, 3081
5.59, 3084
5.5925, 3082
5.595, 3080
5.5975, 3080
5.6, 3083
5.6025, 3082
5.605, 3082
5.6075, 3091
5.61, 3084
5.6125, 3082
5.615, 3081
5.6175, 3085
5.62, 3082
5.6225, 3082
5.625, 3091
5.6275, 3084
5.63, 3082
5.6325, 3082
5.635, 3085
5.6375, 3083
5.64, 3081
5.6425, 3091
5.645, 3082
5.6475, 3082
5.65, 3080
5.6525, 3081
5.655, 3080
5.6575, 3078
5.66, 3089
5.6625, 3080
5.665, 3080
5.6675, 3079
5.67, 3083
5.6725, 3079
5.675, 3079
5.6775, 3088
5.68, 3081
5.6825, 3080
5.685, 3079
5.6875, 3083
5.69, 3079
5.6925, 3080
5.695, 3089
5.6975, 3080
5.7, 3079
5.7025, 3078
5.705, 3083
5.7075, 3080
5.71, 3079
5.7125, 3083
5.715, 3080
5.7175, 3078
5.72, 3079
5.7225, 3079
5.725, 3079
5.7275, 3079
5.73, 3087
5.7325, 3079
5.735, 3078
5.7375, 3079
5.74, 3082
5.7425, 3078
5.745, 3079
5.7475, 3088
5.75, 3081
5.7525, 3080
5.755, 3078
5.7575, 3081
5.76, 3081
5.7625, 3079
5.765, 3088
5.7675, 3081
5.77, 3080
5.7725, 3079
5.775, 3081
5.7775, 3080
5.78, 3079
5.7825, 3089
5.785, 3080
5.7875, 3079
5.79, 3079
5.7925, 3082
5.795, 3080
5.7975, 3080
5.8, 3089
5.8025, 3081
5.805, 3079
5.8075, 3080
5.81, 3082
5.8125, 3080
5.815, 3078
5.8175, 3090
5.82, 3082
5.8225, 3081
5.825, 3078
5.8275, 3080
5.83, 3079
5.8325, 3079
5.835, 3089
5.8375, 3081
5.84, 3080
5.8425, 3080
5.845, 3083
5.8475, 3080
5.85, 3080
5.8525, 3090
5.855, 3082
5.8575, 3080
5.86, 3080
5.8625, 3082
5.865, 3080
5.8675, 3079
5.87, 3089
5.8725, 3081
5.875, 3080
5.8775, 3079
5.88, 3082
5.8825, 3080
5.885, 3080
5.8875, 3091
5.89, 3081
5.8925, 3081
5.895, 3079
5.8975, 3082
5.9, 3081
5.9025, 3079
5.905, 3088
5.9075, 3082
5.91, 3080
5.9125, 3080
5.915, 3083
5.9175, 3080
5.92, 3081
5.9225, 3089
5.925, 3082
5.9275, 3080
5.93, 3079
5.9325, 3083
5.935, 3081
5.9375, 3080
5.94, 3089
5.9425, 3082
5.945, 3080
5.9475, 3081
5.95, 3082
5.9525, 3081
5.955, 3080
5.9575, 3082
5.96, 3080
5.9625, 3079
5.965, 3078
5.9675, 3081
5.97, 3080
5.9725, 3079
5.975, 3089
5.9775, 3081
5.98, 3081
5.9825, 3079
5.985, 3083
5.9875, 3080
5.99, 3079
5.9925, 3089
5.995, 3083
5.9975, 3081
6.0, 3079
6.0025, 3083
6.005, 3081
6.0075, 3080
6.01, 3091
6.0125, 3082
6.015, 3082
6.0175, 3080
6.02, 3083
6.0225, 3080
6.025, 3081
6.0275, 3090
6.03, 3082
6.0325, 3081
6.035, 3080
6.0375, 3083
6.04, 3082
6.0425, 3079
6.045, 3090
6.0475, 3082
6.05, 3080
6.0525, 3081
6.055, 3083
6.0575, 3081
6.06, 3078
6.0625, 3090
6.065, 3082
6.0675, 3080
6.07, 3080
6.0725, 3081
6.075, 3081
6.0775, 3080
6.08, 3090
6.0825, 3081
6.085, 3080
6.0875, 3080
6.09, 3083
6.0925, 3083
6.095, 3080
6.0975, 3091
6.1, 3081
6.1025, 3081
6.105, 3079
6.1075, 3082
6.11, 3079
6.1125, 3079
6.115, 3089
6.1175, 3081
6.12, 3080
6.1225, 3080
6.125, 3086
6.1275, 3086
6.13, 3088
6.1325, 3093
6.135, 3093
6.1375, 3093
6.14, 3093
6.1425, 3093
6.145, 3089
6.1475, 3086
6.15, 3094
6.1525, 3081
6.155, 3079
6.1575, 3078
6.16, 3080
6.1625, 3078
6.165, 3078
6.1675, 3088
6.17, 3081
6.1725, 3080
6.175, 3080
6.1775, 3083
6.18, 3082
6.1825, 3080
6.185, 3083
6.1875, 3080
6.19, 3080
6.1925, 3079
6.195, 3082
6.1975, 3079
6.2, 3079
6.2025, 3089
6.205, 3081
6.2075, 3081
6.21, 3080
6.2125, 3084
6.215, 3080
6.2175, 3080
6.22, 3090
6.2225, 3082
6.225, 3081
6.2275, 3080
6.23, 3083
6.2325, 3081
6.235, 3081
6.2375, 3090
6.24, 3082
6.2425, 3082
6.245, 3080
6.2475, 3082
6.25, 3081
6.2525, 3080
6.255, 3090
6.2575, 3083
6.26, 3081
6.2625, 3081
6.265, 3083
6.2675, 3082
6.27, 3080
6.2725, 3090
6.275, 3082
6.2775, 3080
6.28, 3080
6.2825, 3084
6.285, 3083
6.2875, 3080
6.29, 3092
6.2925, 3083
6.295, 3082
6.2975, 3081
6.3, 3084
6.3025, 3083
6.305, 3083
6.3075, 3086
6.31, 3083
6.3125, 3081
6.315, 3080
6.3175, 3083
6.32, 3083
6.3225, 3082
6.325, 3092
6.3275, 3083
6.33, 3083
6.3325, 3081
6.335, 3085
6.3375, 3083
6.34, 3082
6.3425, 3091
6.345, 3083
6.3475, 3081
6.35, 3082
6.3525, 3084
6.355, 3082
6.3575, 3081
6.36, 3092
6.3625, 3085
6.365, 3083
6.3675, 3082
6.37, 3082
6.3725, 3082
6.375, 3081
6.3775, 3090
6.38, 3083
6.3825, 3082
6.385, 3081
6.3875, 3083
6.39, 3080
6.3925, 3080
6.395, 3091
6.3975, 3083
6.4, 3079
6.4025, 3080
6.405, 3082
6.4075, 3081
6.41, 3080
6.4125, 3089
6.415, 3081
6.4175, 3081
6.42, 3079
6.4225, 3080
6.425, 3079
6.4275, 3079
6.43, 3088
6.4325, 3080
6.435, 3080
6.4375, 3078
6.44, 3083
6.4425, 3081
6.445, 3079
6.4475, 3089
6.45, 3082
6.4525, 3080
6.455, 3080
6.4575, 3083
6.46, 3080
6.4625, 3080
6.465, 3089
6.4675, 3081
6.47, 3080
6.4725, 3079
6.475, 3084
6.4775, 3081
6.48, 3081
6.4825, 3083
6.485, 3081
6.4875, 3080
6.49, 3080
6.4925, 3082
6.495, 3081
6.4975, 3079
6.5, 3090
6.5025, 3082
6.505, 3080
6.5075, 3079
6.51, 3083
6.5125, 3081
6.515, 3080
6.5175, 3091
6.52, 3083
6.5225, 3080
6.525, 3080
6.5275, 3084
6.53, 3081
6.5325, 3080
6.535, 3091
6.5375, 3083
6.54, 3081
6.5425, 3081
6.545, 3081
6.5475, 3081
6.55, 3080
6.5525, 3090
6.555, 3082
6.5575, 3082
6.56, 3080
6.5625, 3084
6.565, 3080
6.5675, 3081
6.57, 3091
6.5725, 3083
6.575, 3082
6.5775, 3081
6.58, 3084
6.5825, 3082
6.585, 3080
6.5875, 3089
6.59, 3083
6.5925, 3081
6.595, 3081
6.5975, 3084
6.6, 3083
6.6025, 3081
6.605, 3084
6.6075, 3081
6.61, 3081
6.6125, 3081
6.615, 3084
6.6175, 3082
6.62, 3082
6.6225, 3091
6.625, 3083
6.6275, 3081
6.63, 3082
6.6325, 3084
6.635, 3084
6.6375, 3081
6.64, 3092
6.6425, 3082
6.645, 3082
6.6475, 3080
6.65, 3084
6.6525, 3082
6.655, 3082
6.6575, 3086
6.66, 3085
6.6625, 3083
6.665, 3081
6.6675, 3084
6.67, 3083
6.6725, 3083
6.675, 3091
6.6775, 3084
6.68, 3082
6.6825, 3082
6.685, 3084
6.6875, 3083
6.69, 3083
6.6925, 3093
6.695, 3084
6.6975, 3083
6.7, 3081
6.7025, 3085
6.705, 3083
6.7075, 3083
6.71, 3093
6.7125, 3084
6.715, 3083
6.7175, 3083
6.72, 3083
6.7225, 3083
6.725, 3082
6.7275, 3092
6.73, 3084
6.7325, 3082
6.735, 3081
6.7375, 3086
6.74, 3082
6.7425, 3082
6.745, 3092
6.7475, 3084
6.75, 3083
6.7525, 3082
6.755, 3086
6.7575, 3083
6.76, 3082
6.7625, 3092
6.765, 3084
6.7675, 3083
6.77, 3082
6.7725, 3083
6.775, 3083
6.7775, 3081
6.78, 3092
6.7825, 3083
6.785, 3083
6.7875, 3081
6.79, 3085
6.7925, 3082
6.795, 3083
6.7975, 3093
6.8, 3084
6.8025, 3082
6.805, 3081
6.8075, 3085
6.81, 3083
6.8125, 3081
6.815, 3091
6.8175, 3083
6.82, 3081
6.8225, 3081
6.825, 3084
6.8275, 3083
6.83, 3081
6.8325, 3084
6.835, 3081
6.8375, 3081
6.84, 3079
6.8425, 3083
6.845, 3082
6.8475, 3081
6.85, 3093
6.8525, 3086
6.855, 3087
6.8575, 3089
6.86, 3093
6.8625, 3094
6.865, 3095
6.8675, 3105
6.87, 3096
6.8725, 3091
6.875, 3086
6.8775, 3089
6.88, 3083
6.8825, 3080
6.885, 3082
6.8875, 3080
6.89, 3078
6.8925, 3079
6.895, 3081
6.8975, 3079
6.9, 3080
6.9025, 3090
6.905, 3083
6.9075, 3082
6.91, 3082
6.9125, 3084
6.915, 3082
6.9175, 3082
6.92, 3092
6.9225, 3084
6.925, 3082
6.9275, 3082
6.93, 3085
6.9325, 3083
6.935, 3082
6.9375, 3092
6.94, 3085
6.9425, 3083
6.945, 3084
6.9475, 3082
6.95, 3084
6.9525, 3082
6.955, 3092
6.9575, 3083
6.96, 3083
6.9625, 3081
6.965, 3085
6.9675, 3083
6.97, 3082
6.9725, 3092
6.975, 3083
6.9775, 3082
6.98, 3081
6.9825, 3086
6.985, 3083
6.9875, 3082
6.99, 3092
6.9925, 3084
6.995, 3083
6.9975, 3081
7.0, 3083
7.0025, 3083
7.005, 3082
7.0075, 3092
7.01, 3083
7.0125, 3083
7.015, 3082
7.0175, 3086
7.02, 3084
7.0225, 3083
7.025, 3092
7.0275, 3085
7.03, 3083
7.0325, 3083
7.035, 3085
7.0375, 3084
7.04, 3082
7.0425, 3093
7.045, 3084
7.0475, 3083
7.05, 3082
7.0525, 3085
7.055, 3083
7.0575, 3083
7.06, 3087
7.0625, 3084
7.065, 3084
7.0675, 3082
7.07, 3085
7.0725, 3084
7.075, 3083
7.0775, 3092
7.08, 3084
7.0825, 3083
7.085, 3083
7.0875, 3085
7.09, 3084
7.0925, 3082
7.095, 3093
7.0975, 3084
7.1, 3083
7.1025, 3081
7.105, 3085
7.1075, 3082
7.11, 3082
7.1125, 3092
7.115, 3083
7.1175, 3081
7.12, 3080
7.1225, 3081
7.125, 3080
7.1275, 3079
7.13, 3090
7.1325, 3082
7.135, 3080
7.1375, 3080
7.14, 3083
7.1425, 3081
7.145, 3080
7.1475, 3091
7.15, 3082
7.1525, 3081
7.155, 3080
7.1575, 3084
7.16, 3082
7.1625, 3081
7.165, 3092
7.1675, 3082
7.17, 3082
7.1725, 3082
7.175, 3084
7.1775, 3083
7.18, 3081
7.1825, 3086
7.185, 3082
7.1875, 3082
7.19, 3081
7.1925, 3084
7.195, 3081
7.1975, 3082
7.2, 3091
7.2025, 3082
7.205, 3081
7.2075, 3080
7.21, 3084
7.2125, 3082
7.215, 3082
7.2175, 3090
7.22, 3083
7.2225, 3082
7.225, 3081
7.2275, 3083
7.23, 3083
7.2325, 3081
7.235, 3093
7.2375, 3083
7.24, 3082
7.2425, 3081
7.245, 3083
7.2475, 3082
7.25, 3081
7.2525, 3092
7.255, 3084
7.2575, 3082
7.26, 3082
7.2625, 3084
7.265, 3081
7.2675, 3082
7.27, 3091
7.2725, 3083
7.275, 3083
7.2775, 3081
7.28, 3085
7.2825, 3082
7.285, 3080
7.2875, 3092
7.29, 3083
7.2925, 3082
7.295, 3081
7.2975, 3086
7.3, 3082
7.3025, 3082
7.305, 3083
7.3075, 3083
7.31, 3082
7.3125, 3082
7.315, 3083
7.3175, 3083
7.32, 3082
7.3225, 3092
7.325, 3083
7.3275, 3082
7.33, 3081
7.3325, 3086
7.335, 3083
7.3375, 3083
7.34, 3092
7.3425, 3084
7.345, 3082
7.3475, 3082
7.35, 3084
7.3525, 3083
7.355, 3082
7.3575, 3086
7.36, 3082
7.3625, 3080
7.365, 3081
7.3675, 3083
7.37, 3084
7.3725, 3081
7.375, 3092
7.3775, 3082
7.38, 3083
7.3825, 3081
7.385, 3085
7.3875, 3083
7.39, 3082
7.3925, 3092
7.395, 3084
7.3975, 3081
7.4, 3081
7.4025, 3084
7.405, 3083
7.4075, 3081
7.41, 3093
7.4125, 3083
7.415, 3083
7.4175, 3081
7.42, 3082
7.4225, 3082
7.425, 3081
7.4275, 3091
7.43, 3083
7.4325, 3081
7.435, 3081
7.4375, 3084
7.44, 3082
7.4425, 3081
7.445, 3092
7.4475, 3083
7.45, 3082
7.4525, 3082
7.455, 3084
7.4575, 3083
7.46, 3082
7.4625, 3091
7.465, 3084
7.4675, 3083
7.47, 3082
7.4725, 3085
7.475, 3083
7.4775, 3082
7.48, 3085
7.4825, 3082
7.485, 3081
7.4875, 3082
7.49, 3083
7.4925, 3082
7.495, 3081
7.4975, 3091
7.5, 3080
7.5025, 3081
7.505, 3080
7.5075, 3083
7.51, 3080
7.5125, 3080
7.515, 3090
7.5175, 3080
7.52, 3080
7.5225, 3079
7.525, 3082
7.5275, 3081
7.53, 3080
7.5325, 3082
7.535, 3080
7.5375, 3078
7.54, 3079
7.5425, 3082
7.545, 3079
7.5475, 3080
7.55, 3089
7.5525, 3080
7.555, 3079
7.5575, 3079
7.56, 3082
7.5625, 3079
7.565, 3079
7.5675, 3089
7.57, 3080
7.5725, 3078
7.575, 3077
7.5775, 3080
7.58, 3078
7.5825, 3077
7.585, 3087
7.5875, 3080
7.59, 3081
7.5925, 3082
7.595, 3085
7.5975, 3086
7.6, 3086
7.6025, 3101
7.605, 3092
7.6075, 3091
7.61, 3087
7.6125, 3087
7.615, 3082
7.6175, 3080
7.62, 3086
7.6225, 3077
7.625, 3075
7.6275, 3075
7.63, 3079
7.6325, 3076
7.635, 3077
7.6375, 3087
7.64, 3079
7.6425, 3079
7.645, 3078
7.6475, 3082
7.65, 3079
7.6525, 3079
7.655, 3083
7.6575, 3079
7.66, 3078
7.6625, 3078
7.665, 3080
7.6675, 3079
7.67, 3077
7.6725, 3087
7.675, 3079
7.6775, 3078
7.68, 3078
7.6825, 3081
7.685, 3080
7.6875, 3078
7.69, 3089
7.6925, 3080
7.695, 3078
7.6975, 3077
7.7, 3080
7.7025, 3079
7.705, 3077
7.7075, 3081
7.71, 3078
7.7125, 3078
7.715, 3077
7.7175, 3078
7.72, 3078
7.7225, 3077
7.725, 3088
7.7275, 3079
7.73, 3079
7.7325, 3076
7.735, 3080
7.7375, 3077
7.74, 3077
7.7425, 3088
7.745, 3080
7.7475, 3076
7.75, 3077
7.7525, 3080
7.755, 3078
7.7575, 3078
7.76, 3088
7.7625, 3081
7.765, 3079
7.7675, 3078
7.77, 3079
7.7725, 3078
7.775, 3078
7.7775, 3088
7.78, 3080
7.7825, 3079
7.785, 3080
7.7875, 3082
7.79, 3080
7.7925, 3078
7.795, 3089
7.7975, 3081
7.8, 3079
7.8025, 3079
7.805, 3082
7.8075, 3080
7.81, 3078
7.8125, 3088
7.815, 3079
7.8175, 3079
7.82, 3078
7.8225, 3082
7.825, 3079
7.8275, 3079
7.83, 3082
7.8325, 3078
7.835, 3078
7.8375, 3077
7.84, 3081
7.8425, 3078
7.845, 3077
7.8475, 3086
7.85, 3077
7.8525, 3076
7.855, 3079
7.8575, 3083
7.86, 3081
7.8625, 3081
7.865, 3091
7.8675, 3083
7.87, 3081
7.8725, 3080
7.875, 3084
7.8775, 3081
7.88, 3080
7.8825, 3091
7.885, 3082
7.8875, 3080
7.89, 3079
7.8925, 3079
7.895, 3079
7.8975, 3078
7.9, 3088
7.9025, 3079
7.905, 3079
7.9075, 3078
7.91, 3083
7.9125, 3080
7.915, 3079
7.9175, 3089
7.92, 3081
7.9225, 3079
7.925, 3078
7.9275, 3082
7.93, 3081
7.9325, 3079
7.935, 3090
7.9375, 3082
7.94, 3079
7.9425, 3079
7.945, 3082
7.9475, 3080
7.95, 3078
7.9525, 3083
7.955, 3079
7.9575, 3080
7.96, 3078
7.9625, 3081
7.965, 3079
7.9675, 3078
7.97, 3088
7.9725, 3080
7.975, 3079
7.9775, 3079
7.98, 3080
7.9825, 3078
7.985, 3078
7.9875, 3088
7.99, 3080
7.9925, 3079
7.995, 3078
7.9975, 3082
8.0, 3079
8.0025, 3079
8.005, 3082
8.0075, 3079
8.01, 3079
8.0125, 3079
8.015, 3080
8.0175, 3080
8.02, 3078
8.0225, 3089
8.025, 3080
8.0275, 3079
8.03, 3079
8.0325, 3081
8.035, 3080
8.0375, 3078
8.04, 3088
8.0425, 3079
8.045, 3079
8.0475, 3077
8.05, 3081
8.0525, 3078
8.055, 3077
8.0575, 3089
8.06, 3079
8.0625, 3079
8.065, 3077
8.0675, 3078
8.07, 3079
8.0725, 3078
8.075, 3087
8.0775, 3079
8.08, 3078
8.0825, 3077
8.085, 3081
8.0875, 3078
8.09, 3078
8.0925, 3088
8.095, 3080
8.0975, 3080
8.1, 3078
8.1025, 3081
8.105, 3078
8.1075, 3078
8.11, 3089
8.1125, 3081
8.115, 3079
8.1175, 3078
8.12, 3081
8.1225, 3079
8.125, 3078
8.1275, 3082
8.13, 3079
8.1325, 3079
8.135, 3077
8.1375, 3079
8.14, 3079
8.1425, 3077
8.145, 3088
8.1475, 3080
8.15, 3079
8.1525, 3078
8.155, 3082
8.1575, 3079
8.16, 3078
8.1625, 3088
8.165, 3080
8.1675, 3080
8.17, 3079
8.1725, 3082
8.175, 3080
8.1775, 3078
8.18, 3089
8.1825, 3079
8.185, 3080
8.1875, 3078
8.19, 3079
8.1925, 3079
8.195, 3078
8.1975, 3087
8.2, 3080
8.2025, 3078
8.205, 3078
8.2075, 3081
8.21, 3079
8.2125, 3077
8.215, 3088
8.2175, 3080
8.22, 3078
8.2225, 3077
8.225, 3082
8.2275, 3080
8.23, 3078
8.2325, 3089
8.235, 3080
8.2375, 3080
8.24, 3079
8.2425, 3082
8.245, 3080
8.2475, 3080
8.25, 3084
8.2525, 3080
8.255, 3079
8.2575, 3078
8.26, 3081
8.2625, 3080
8.265, 3079
8.2675, 3089
8.27, 3079
8.2725, 3079
8.275, 3078
8.2775, 3082
8.28, 3079
8.2825, 3080
8.285, 3090
8.2875, 3081
8.29, 3078
8.2925, 3078
8.295, 3082
8.2975, 3079
8.3, 3079
8.3025, 3089
8.305, 3081
8.3075, 3079
8.31, 3080
8.3125, 3080
8.315, 3079
8.3175, 3078
8.32, 3089
8.3225, 3081
8.325, 3079
8.3275, 3079
8.33, 3082
8.3325, 3079
8.335, 3078
8.3375, 3089
8.34, 3081
8.3425, 3079
8.345, 3078
8.3475, 3080
8.35, 3079
8.3525, 3077
8.355, 3087
8.3575, 3079
8.36, 3080
8.3625, 3079
8.365, 3086
8.3675, 3086
8.37, 3086
8.3725, 3093
8.375, 3091
8.3775, 3092
8.38, 3091
8.3825, 3092
8.385, 3086
8.3875, 3085
8.39, 3091
8.3925, 3080
8.395, 3077
8.3975, 3076
8.4, 3080
8.4025, 3077
8.405, 3078
8.4075, 3088
8.41, 3080
8.4125, 3080
8.415, 3079
8.4175, 3083
8.42, 3081
8.4225, 3080
8.425, 3091
8.4275, 3082
8.43, 3081
8.4325, 3080
8.435, 3081
8.4375, 3080
8.44, 3079
8.4425, 3089
8.445, 3080
8.4475, 3079
8.45, 3079
8.4525, 3083
8.455, 3081
8.4575, 3080
8.46, 3091
8.4625, 3081
8.465, 3080
8.4675, 3080
8.47, 3084
8.4725, 3082
8.475, 3079
8.4775, 3092
8.48, 3083
8.4825, 3081
8.485, 3081
8.4875, 3082
8.49, 3081
8.4925, 3080
8.495, 3091
8.4975, 3082
8.5, 3081
8.5025, 3080
8.505, 3084
8.5075, 3082
8.51, 3080
8.5125, 3091
8.515, 3081
8.5175, 3081
8.52, 3080
8.5225, 3083
8.525, 3082
8.5275, 3081
8.53, 3092
8.5325, 3083
8.535, 3082
8.5375, 3081
8.54, 3084
8.5425, 3083
8.545, 3082
8.5475, 3086
8.55, 3083
8.5525, 3081
8.555, 3081
8.5575, 3084
8.56, 3082
8.5625, 3082
8.565, 3093
8.5675, 3084
8.57, 3082
8.5725, 3082
8.575, 3085
8.5775, 3085
8.58, 3082
8.5825, 3093
8.585, 3083
8.5875, 3083
8.59, 3081
8.5925, 3085
8.595, 3082
8.5975, 3082
8.6, 3085
8.6025, 3082
8.605, 3081
8.6075, 3080
8.61, 3084
8.6125, 3082
8.615, 3081
8.6175, 3092
8.62, 3082
8.6225, 3081
8.625, 3081
8.6275, 3084
8.63, 3080
8.6325, 3081
8.635, 3091
8.6375, 3082
8.64, 3080
8.6425, 3079
8.645, 3082
8.6475, 3080
8.65, 3080
8.6525, 3089
8.655, 3082
8.6575, 3080
8.66, 3081
8.6625, 3080
8.665, 3080
8.6675, 3078
8.67, 3089
8.6725, 3080
8.675, 3079
8.6775, 3078
8.68, 3082
8.6825, 3080
8.685, 3079
8.6875, 3090
8.69, 3081
8.6925, 3081
8.695, 3079
8.6975, 3083
8.7, 3081
8.7025, 3080
8.705, 3091
8.7075, 3083
8.71, 3081
8.7125, 3080
8.715, 3083
8.7175, 3081
8.72, 3080
8.7225, 3086
8.725, 3080
8.7275, 3081
8.73, 3079
8.7325, 3083
8.735, 3081
8.7375, 3082
8.74, 3091
8.7425, 3082
8.745, 3080
8.7475, 3080
8.75, 3083
8.7525, 3081
8.755, 3079
8.7575, 3091
8.76, 3082
8.7625, 3080
8.765, 3080
8.7675, 3083
8.77, 3082
8.7725, 3081
8.775, 3084
8.7775, 3081
8.78, 3081
8.7825, 3080
8.785, 3083
8.7875, 3081
8.79, 3081
8.7925, 3091
8.795, 3083
8.7975, 3081
8.8, 3081
8.8025, 3084
8.805, 3082
8.8075, 3081
8.81, 3091
8.8125, 3082
8.815, 3082
8.8175, 3081
8.82, 3084
8.8225, 3081
8.825, 3081
8.8275, 3091
8.83, 3082
8.8325, 3081
8.835, 3079
8.8375, 3082
8.84, 3081
8.8425, 3081
8.845, 3091
8.8475, 3083
8.85, 3081
8.8525, 3081
8.855, 3084
8.8575, 3082
8.86, 3081
8.8625, 3091
8.865, 3083
8.8675, 3082
8.87, 3081
8.8725, 3085
8.875, 3082
8.8775, 3081
8.88, 3092
8.8825, 3083
8.885, 3081
8.8875, 3081
8.89, 3084
8.8925, 3083
8.895, 3081
8.8975, 3085
8.9, 3081
8.9025, 3081
8.905, 3080
8.9075, 3084
8.91, 3081
8.9125, 3080
8.915, 3092
8.9175, 3082
8.92, 3082
8.9225, 3081
8.925, 3085
8.9275, 3081
8.93, 3082
8.9325, 3093
8.935, 3084
8.9375, 3082
8.94, 3081
8.9425, 3084
8.945, 3083
8.9475, 3081
8.95, 3092
8.9525, 3083
8.955, 3082
8.9575, 3081
8.96, 3081
8.9625, 3082
8.965, 3081
8.9675, 3093
8.97, 3084
8.9725, 3082
8.975, 3082
8.9775, 3084
8.98, 3083
8.9825, 3081
8.985, 3092
8.9875, 3083
8.99, 3082
8.9925, 3081
8.995, 3085
8.9975, 3083
9.0, 3082
9.0025, 3093
9.005, 3083
9.0075, 3083
9.01, 3081
9.0125, 3083
9.015, 3083
9.0175, 3082
9.02, 3093
9.0225, 3083
9.025, 3083
9.0275, 3082
9.03, 3085
9.0325, 3084
9.035, 3083
9.0375, 3093
9.04, 3083
9.0425, 3083
9.045, 3082
9.0475, 3086
9.05, 3083
9.0525, 3083
9.055, 3093
9.0575, 3083
9.06, 3082
9.0625, 3081
9.065, 3085
9.0675, 3083
9.07, 3082
9.0725, 3086
9.075, 3083
9.0775, 3082
9.08, 3081
9.0825, 3082
9.085, 3083
9.0875, 3082
9.09, 3093
9.0925, 3085
9.095, 3082
9.0975, 3082
9.1, 3085
9.1025, 3083
9.105, 3083
9.1075, 3095
9.11, 3084
9.1125, 3083
9.115, 3083
9.1175, 3085
9.12, 3084
9.1225, 3082
9.125, 3094
9.1275, 3085
9.13, 3083
9.1325, 3082
9.135, 3084
9.1375, 3083
9.14, 3082
9.1425, 3094
9.145, 3084
9.1475, 3083
9.15, 3082
9.1525, 3086
9.155, 3084
9.1575, 3083
9.16, 3094
9.1625, 3085
9.165, 3082
9.1675, 3082
9.17, 3086
9.1725, 3084
9.175, 3083
9.1775, 3094
9.18, 3085
9.1825, 3084
9.185, 3083
9.1875, 3084
9.19, 3083
9.1925, 3083
9.195, 3095
9.1975, 3086
9.2, 3083
9.2025, 3083
9.205, 3086
9.2075, 3085
9.21, 3083
9.2125, 3094
9.215, 3085
9.2175, 3084
9.22, 3083
9.2225, 3087
9.225, 3084
9.2275, 3083
9.23, 3094
9.2325, 3084
9.235, 3084
9.2375, 3083
9.24, 3087
9.2425, 3084
9.245, 3084
9.2475, 3087
9.25, 3084
9.2525, 3083
9.255, 3082
9.2575, 3084
9.26, 3084
9.2625, 3083
9.265, 3094
9.2675, 3084
9.27, 3083
9.2725, 3082
9.275, 3086
9.2775, 3083
9.28, 3083
9.2825, 3094
9.285, 3083
9.2875, 3081
9.29, 3081
9.2925, 3084
9.295, 3085
9.2975, 3083
9.3, 3096
9.3025, 3089
9.305, 3089
9.3075, 3091
9.31, 3095
9.3125, 3096
9.315, 3094
9.3175, 3105
9.32, 3092
9.3225, 3088
9.325, 3088
9.3275, 3087
9.33, 3083
9.3325, 3081
9.335, 3092
9.3375, 3082
9.34, 3079
9.3425, 3079
9.345, 3084
9.3475, 3083
9.35, 3082
9.3525, 3094
9.355, 3084
9.3575, 3083
9.36, 3082
9.3625, 3084
9.365, 3083
9.3675, 3082
9.37, 3093
9.3725, 3084
9.375, 3083
9.3775, 3082
9.38, 3085
9.3825, 3084
9.385, 3083
9.3875, 3094
9.39, 3085
9.3925, 3083
9.395, 3083
9.3975, 3085
9.4, 3084
9.4025, 3084
9.405, 3094
9.4075, 3085
9.41, 3084
9.4125, 3083
9.415, 3087
9.4175, 3084
9.42, 3085
9.4225, 3088
9.425, 3084
9.4275, 3083
9.43, 3083
9.4325, 3085
9.435, 3085
9.4375, 3083
9.44, 3095
9.4425, 3083
9.445, 3084
9.4475, 3084
9.45, 3087
9.4525, 3085
9.455, 3085
9.4575, 3095
9.46, 3086
9.4625, 3084
9.465, 3083
9.4675, 3087
9.47, 3084
9.4725, 3085
9.475, 3095
9.4775, 3087
9.48, 3085
9.4825, 3084
9.485, 3084
9.4875, 3085
9.49, 3084
9.4925, 3095
9.495, 3086
9.4975, 3085
9.5, 3084
9.5025, 3088
9.505, 3085
9.5075, 3085
9.51, 3097
9.5125, 3087
9.515, 3085
9.5175, 3085
9.52, 3088
9.5225, 3086
9.525, 3085
9.5275, 3095
9.53, 3087
9.5325, 3085
9.535, 3085
9.5375, 3087
9.54, 3087
9.5425, 3085
9.545, 3088
9.5475, 3085
9.55, 3085
9.5525, 3084
9.555, 3086
9.5575, 3086
9.56, 3084
9.5625, 3096
9.565, 3085
9.5675, 3084
9.57, 3084
9.5725, 3087
9.575, 3084
9.5775, 3083
9.58, 3095
9.5825, 3085
9.585, 3084
9.5875, 3082
9.59, 3086
9.5925, 3084
9.595, 3084
9.5975, 3086
9.6, 3083
9.6025, 3081
9.605, 3082
9.6075, 3083
9.61, 3082
9.6125, 3082
9.615, 3093
9.6175, 3085
9.62, 3082
9.6225, 3082
9.625, 3085
9.6275, 3084
9.63, 3082
9.6325, 3093
9.635, 3085
9.6375, 3082
9.64, 3082
9.6425, 3085
9.645, 3083
9.6475, 3083
9.65, 3094
9.6525, 3084
9.655, 3083
9.6575, 3083
9.66, 3083
9.6625, 3083
9.665, 3082
9.6675, 3094
9.67, 3083
9.6725, 3083
9.675, 3082
9.6775, 3085
9.68, 3084
9.6825, 3083
9.685, 3095
9.6875, 3084
9.69, 3082
9.6925, 3082
9.695, 3086
9.6975, 3084
9.7, 3083
9.7025, 3094
9.705, 3086
9.7075, 3083
9.71, 3083
9.7125, 3087
9.715, 3085
9.7175, 3084
9.72, 3086
9.7225, 3084
9.725, 3084
9.7275, 3082
9.73, 3087
9.7325, 3085
9.735, 3084
9.7375, 3096
9.74, 3087
9.7425, 3084
9.745, 3084
9.7475, 3085
9.75, 3086
9.7525, 3084
9.755, 3094
9.7575, 3085
9.76, 3083
9.7625, 3083
9.765, 3086
9.7675, 3084
9.77, 3084
9.7725, 3096
9.775, 3085
9.7775, 3085
9.78, 3083
9.7825, 3086
9.785, 3084
9.7875, 3084
9.79, 3094
9.7925, 3086
9.795, 3084
9.7975, 3083
9.8, 3087
9.8025, 3086
9.805, 3084
9.8075, 3096
9.81, 3086
9.8125, 3085
9.815, 3084
9.8175, 3089
9.82, 3085
9.8225, 3085
9.825, 3095
9.8275, 3086
9.83, 3084
9.8325, 3083
9.835, 3084
9.8375, 3084
9.84, 3083
9.8425, 3095
9.845, 3085
9.8475, 3085
9.85, 3084
9.8525, 3087
9.855, 3086
9.8575, 3084
9.86, 3095
9.8625, 3086
9.865, 3085
9.8675, 3085
9.87, 3088
9.8725, 3085
9.875, 3084
9.8775, 3095
9.88, 3087
9.8825, 3085
9.885, 3086
9.8875, 3087
9.89, 3086
9.8925, 3085
9.895, 3088
9.8975, 3084
9.9, 3085
9.9025, 3084
9.905, 3086
9.9075, 3085
9.91, 3083
9.9125, 3096
9.915, 3086
9.9175, 3084
9.92, 3083
9.9225, 3087
9.925, 3085
9.9275, 3085
9.93, 3096
9.9325, 3086
9.935, 3083
9.9375, 3084
9.94, 3087
9.9425, 3086
9.945, 3084
9.9475, 3096
9.95, 3085
9.9525, 3085
9.955, 3084
9.9575, 3086
9.96, 3084
9.9625, 3085
9.965, 3095
9.9675, 3087
9.97, 3084
9.9725, 3084
9.975, 3087
9.9775, 3086
9.98, 3084
9.9825, 3096
9.985, 3086
9.9875, 3084
9.99, 3084
9.9925, 3087
9.995, 3086
9.9975, 3085
10.0, 3096
10.0025, 3086
10.005, 3087
10.0075, 3083
10.01, 3088
10.0125, 3085
10.015, 3085
10.0175, 3088
10.02, 3086
10.0225, 3085
10.025, 3084
10.0275, 3087
10.03, 3085
10.0325, 3084
10.035, 3095
10.0375, 3086
10.04, 3086
10.0425, 3084
10.045, 3088
10.0475, 3085
10.05, 3085
10.0525, 3096
10.055, 3087
10.0575, 3085
10.06, 3084
10.0625, 3092
10.065, 3088
10.0675, 3086
10.07, 3096
10.0725, 3088
10.075, 3086
10.0775, 3085
10.08, 3086
10.0825, 3086
10.085, 3084
10.0875, 3096
10.09, 3086
10.0925, 3086
10.095, 3084
10.0975, 3087
10.1, 3086
10.1025, 3085
10.105, 3096
10.1075, 3086
10.11, 3085
10.1125, 3084
10.115, 3088
10.1175, 3087
10.12, 3085
10.1225, 3096
10.125, 3087
10.1275, 3086
10.13, 3083
10.1325, 3086
10.135, 3085
10.1375, 3084
10.14, 3096
10.1425, 3086
10.145, 3085
10.1475, 3085
10.15, 3088
10.1525, 3085
10.155, 3084
10.1575, 3097
10.16, 3087
10.1625, 3084
10.165, 3085
10.1675, 3087
10.17, 3086
10.1725, 3084
10.175, 3096
10.1775, 3087
10.18, 3086
10.1825, 3086
10.185, 3088
10.1875, 3086
10.19, 3086
10.1925, 3090
10.195, 3087
10.1975, 3085
10.2, 3085
10.2025, 3087
10.205, 3086
10.2075, 3084
10.21, 3210
10.2125, 3090
10.215, 3087
10.2175, 3086
10.22, 3089
10.2225, 3086
10.225, 3086
10.2275, 3097
10.23, 3087
10.2325, 3085
10.235, 3086
10.2375, 3089
10.24, 3087
10.2425, 3086
10.245, 3096
10.2475, 3088
10.25, 3086
10.2525, 3086
10.255, 3087
10.2575, 3086
10.26, 3085
10.2625, 3096
10.265, 3087
10.2675, 3086
10.27, 3084
10.2725, 3089
10.275, 3087
10.2775, 3087
10.28, 3098
10.2825, 3088
10.285, 3086
10.2875, 3085
10.29, 3088
10.2925, 3086
10.295, 3084
10.2975, 3096
10.3, 3086
10.3025, 3084
10.305, 3082
10.3075, 3087
10.31, 3085
10.3125, 3085
10.315, 3091
10.3175, 3089
10.32, 3091
10.3225, 3091
10.325, 3096
10.3275, 3098
10.33, 3098
10.3325, 3109
10.335, 3098
10.3375, 3093
10.34, 3089
10.3425, 3091
10.345, 3086
10.3475, 3082
10.35, 3094
10.3525, 3083
10.355, 3084
10.3575, 3082
10.36, 3086
10.3625, 3084
10.365, 3084
10.3675, 3088
10.37, 3086
10.3725, 3084
10.375, 3083
10.3775, 3086
10.38, 3086
10.3825, 3084
10.385, 3096
10.3875, 3086
10.39, 3085
10.3925, 3085
10.395, 3088
10.3975, 3087
10.4, 3083
10.4025, 3096
10.405, 3087
10.4075, 3086
10.41, 3086
10.4125, 3088
10.415, 3086
10.4175, 3085
10.42, 3098
10.4225, 3087
10.425, 3086
10.4275, 3086
10.43, 3085
10.4325, 3086
10.435, 3085
10.4375, 3097
10.44, 3087
10.4425, 3086
10.445, 3085
10.4475, 3089
10.45, 3086
10.4525, 3086
10.455, 3098
10.4575, 3088
10.46, 3087
10.4625, 3085
10.465, 3089
10.4675, 3087
10.47, 3087
10.4725, 3097
10.475, 3089
10.4775, 3087
10.48, 3086
10.4825, 3089
10.485, 3088
10.4875, 3087
10.49, 3091
10.4925, 3087
10.495, 3087
10.4975, 3086
10.5, 3089
10.5025, 3087
10.505, 3087
10.5075, 3098
10.51, 3090
10.5125, 3087
10.515, 3087
10.5175, 3091
10.52, 3089
10.5225, 3087
10.525, 3099
10.5275, 3090
10.53, 3088
10.5325, 3087
10.535, 3090
10.5375, 3089
10.54, 3087
10.5425, 3092
10.545, 3088
10.5475, 3088
10.55, 3087
10.5525, 3089
10.555, 3088
10.5575, 3088
10.56, 3098
10.5625, 3088
10.565, 3088
10.5675, 3087
10.57, 3091
10.5725, 3089
10.575, 3087
10.5775, 3098
10.58, 3088
10.5825, 3087
10.585, 3085
10.5875, 3090
10.59, 3087
10.5925, 3087
10.595, 3097
10.5975, 3087
10.6, 3085
10.6025, 3085
10.605, 3087
10.6075, 3085
10.61, 3084
10.6125, 3096
10.615, 3087
10.6175, 3085
10.62, 3084
10.6225, 3087
10.625, 3087
10.6275, 3085
10.63, 3097
10.6325, 3086
10.635, 3086
10.6375, 3085
10.64, 3088
10.6425, 3087
10.645, 3085
10.6475, 3098
10.65, 3087
10.6525, 3085
10.655, 3085
10.6575, 3086
10.66, 3086
10.6625, 3085
10.665, 3097
10.6675, 3087
10.67, 3087
10.6725, 3085
10.675, 3088
10.6775, 3086
10.68, 3086
10.6825, 3097
10.685, 3087
10.6875, 3086
10.69, 3086
10.6925, 3089
10.695, 3086
10.6975, 3086
10.7, 3097
10.7025, 3088
10.705, 3086
10.7075, 3086
10.71, 3089
10.7125, 3087
10.715, 3086
10.7175, 3090
10.72, 3087
10.7225, 3085
10.725, 3085
10.7275, 3088
10.73, 3087
10.7325, 3086
10.735, 3098
10.7375, 3089
10.74, 3087
10.7425, 3086
10.745, 3089
10.7475, 3088
10.75, 3086
10.7525, 3098
10.755, 3088
10.7575, 3087
10.76, 3086
10.7625, 3089
10.765, 3086
10.7675, 3086
10.77, 3098
10.7725, 3087
10.775, 3087
10.7775, 3085
10.78, 3087
10.7825, 3086
10.785, 3086
10.7875, 3098
10.79, 3088
10.7925, 3086
10.795, 3086
10.7975, 3089
10.8, 3088
10.8025, 3086
10.805, 3099
10.8075, 3089
10.81, 3088
10.8125, 3086
10.815, 3090
10.8175, 3088
10.82, 3088
10.8225, 3100
10.825, 3089
10.8275, 3087
10.83, 3087
10.8325, 3090
10.835, 3088
10.8375, 3087
10.84, 3091
10.8425, 3088
10.845, 3087
10.8475, 3086
10.85, 3088
10.8525, 3087
10.855, 3087
10.8575, 3099
10.86, 3088
10.8625, 3088
10.865, 3086
10.8675, 3090
10.87, 3087
10.8725, 3087
10.875, 3098
10.8775, 3089
10.88, 3086
10.8825, 3087
10.885, 3091
10.8875, 3088
10.89, 3088
10.8925, 3099
10.895, 3089
10.8975, 3089
10.9, 3088
10.9025, 3089
10.905, 3087
10.9075, 3086
10.91, 3098
10.9125, 3088
10.915, 3086
10.9175, 3086
10.92, 3090
10.9225, 3088
10.925, 3087
10.9275, 3098
10.93, 3089
10.9325, 3087
10.935, 3088
10.9375, 3090
10.94, 3089
10.9425, 3087
10.945, 3098
10.9475, 3089
10.95, 3088
10.9525, 3088
10.955, 3088
10.9575, 3088
10.96, 3087
10.9625, 3099
10.965, 3089
10.9675, 3088
10.97, 3088
10.9725, 3091
10.975, 3089
10.9775, 3088
10.98, 3100
10.9825, 3089
10.985, 3088
10.9875, 3087
10.99, 3090
10.9925, 3088
10.995, 3086
10.9975, 3099
11.0, 3090
11.0025, 3089
11.005, 3087
11.0075, 3090
11.01, 3088
11.0125, 3089
11.015, 3092
11.0175, 3090
11.02, 3087
11.0225, 3087
11.025, 3088
11.0275, 3087
11.03, 3087
11.0325, 3099
11.035, 3089
11.0375, 3088
11.04, 3087
11.0425, 3091
11.045, 3090
11.0475, 3088
11.05, 3100
11.0525, 3092
11.055, 3090
11.0575, 3090
11.06, 3093
11.0625, 3091
11.065, 3089
11.0675, 3101
11.07, 3091
11.0725, 3089
11.075, 3090
11.0775, 3090
11.08, 3090
11.0825, 3088
11.085, 3100
11.0875, 3089
11.09, 3089
11.0925, 3088
11.095, 3092
11.0975, 3090
11.1, 3088
11.1025, 3100
11.105, 3091
11.1075, 3089
11.11, 3088
11.1125, 3093
11.115, 3090
11.1175, 3088
11.12, 3101
11.1225, 3091
11.125, 3090
11.1275, 3088
11.13, 3090
11.1325, 3089
11.135, 3089
11.1375, 3100
11.14, 3089
11.1425, 3088
11.145, 3086
11.1475, 3090
11.15, 3087
11.1525, 3087
11.155, 3098
11.1575, 3090
11.16, 3088
11.1625, 3088
11.165, 3094
11.1675, 3094
11.17, 3095
11.1725, 3109
11.175, 3099
11.1775, 3101
11.18, 3100
11.1825, 3100
11.185, 3096
11.1875, 3091
11.19, 3102
11.1925, 3091
11.195, 3087
11.1975, 3085
11.2, 3088
11.2025, 3087
11.205, 3085
11.2075, 3098
11.21, 3088
11.2125, 3088
11.215, 3087
11.2175, 3090
11.22, 3088
11.2225, 3088
11.225, 3100
11.2275, 3089
11.23, 3089
11.2325, 3088
11.235, 3091
11.2375, 3088
11.24, 3088
11.2425, 3091
11.245, 3089
11.2475, 3087
11.25, 3087
11.2525, 3090
11.255, 3089
11.2575, 3088
11.26, 3101
11.2625, 3089
11.265, 3089
11.2675, 3088
11.27, 3092
11.2725, 3090
11.275, 3089
11.2775, 3101
11.28, 3091
11.2825, 3089
11.285, 3089
11.2875, 3092
11.29, 3091
11.2925, 3089
11.295, 3101
11.2975, 3090
11.3, 3088
11.3025, 3088
11.305, 3089
11.3075, 3088
11.31, 3088
11.3125, 3100
11.315, 3090
11.3175, 3088
11.32, 3087
11.3225, 3091
11.325, 3089
11.3275, 3089
11.33, 3101
11.3325, 3091
11.335, 3090
11.3375, 3088
11.34, 3092
11.3425, 3091
11.345, 3090
11.3475, 3102
11.35, 3092
11.3525, 3090
11.355, 3090
11.3575, 3093
11.36, 3091
11.3625, 3090
11.365, 3094
11.3675, 3092
11.37, 3091
11.3725, 3090
11.375, 3093
11.3775, 3091
11.38, 3090
11.3825, 3102
11.385, 3093
11.3875, 3090
11.39, 3090
11.3925, 3093
11.395, 3091
11.3975, 3090
11.4, 3102
11.4025, 3092
11.405, 3091
11.4075, 3089
11.41, 3093
11.4125, 3090
11.415, 3089
11.4175, 3102
11.42, 3091
11.4225, 3089
11.425, 3088
11.4275, 3090
11.43, 3088
11.4325, 3087
11.435, 3099
11.4375, 3090
11.44, 3088
11.4425, 3087
11.445, 3091
11.4475, 3087
11.45, 3088
11.4525, 3099
11.455, 3088
11.4575, 3087
11.46, 3086
11.4625, 3090
11.465, 3087
11.4675, 3088
11.47, 3098
11.4725, 3088
11.475, 3086
11.4775, 3087
11.48, 3090
11.4825, 3089
11.485, 3087
11.4875, 3091
11.49, 3088
11.4925, 3087
11.495, 3086
11.4975, 3089
11.5, 3088
11.5025, 3087
11.505, 3100
11.5075, 3089
11.51, 3087
11.5125, 3087
11.515, 3090
11.5175, 3090
11.52, 3087
11.5225, 3099
11.525, 3090
11.5275, 3088
11.53, 3087
11.5325, 3091
11.535, 3088
11.5375, 3088
11.54, 3091
11.5425, 3088
11.545, 3087
11.5475, 3087
11.55, 3089
11.5525, 3088
11.555, 3088
11.5575, 3100
11.56, 3089
11.5625, 3088
11.565, 3088
11.5675, 3091
11.57, 3089
11.5725, 3088
11.575, 3100
11.5775, 3090
11.58, 3089
11.5825, 3088
11.585, 3091
11.5875, 3089
11.59, 3089
11.5925, 3099
11.595, 3090
11.5975, 3088
11.6, 3087
11.6025, 3089
11.605, 3087
11.6075, 3087
11.61, 3099
11.6125, 3089
11.615, 3087
11.6175, 3087
11.62, 3091
11.6225, 3089
11.625, 3087
11.6275, 3099
11.63, 3089
11.6325, 3088
11.635, 3087
11.6375, 3091
11.64, 3089
11.6425, 3088
11.645, 3099
11.6475, 3089
11.65, 3088
11.6525, 3088
11.655, 3091
11.6575, 3089
11.66, 3088
11.6625, 3091
11.665, 3088
11.6675, 3088
11.67, 3086
11.6725, 3090
11.675, 3088
11.6775, 3089
11.68, 3100
11.6825, 3089
11.685, 3088
11.6875, 3087
11.69, 3090
11.6925, 3087
11.695, 3088
11.6975, 3100
11.7, 3090
11.7025, 3087
11.705, 3087
11.7075, 3090
11.71, 3088
11.7125, 3087
11.715, 3101
11.7175, 3089
11.72, 3088
11.7225, 3085
11.725, 3089
11.7275, 3088
11.73, 3086
11.7325, 3099
11.735, 3088
11.7375, 3088
11.74, 3087
11.7425, 3091
11.745, 3089
11.7475, 3087
11.75, 3099
11.7525, 3089
11.755, 3089
11.7575, 3087
11.76, 3090
11.7625, 3088
11.765, 3086
11.7675, 3099
11.77, 3089
11.7725, 3088
11.775, 3087
11.7775, 3090
11.78, 3088
11.7825, 3087
11.785, 3099
11.7875, 3089
11.79, 3088
11.7925, 3088
11.795, 3089
11.7975, 3089
11.8, 3087
11.8025, 3100
11.805, 3089
11.8075, 3088
11.81, 3088
11.8125, 3091
11.815, 3090
11.8175, 3088
11.82, 3100
11.8225, 3090
11.825, 3088
11.8275, 3088
11.83, 3090
11.8325, 3089
11.835, 3087
11.8375, 3091
11.84, 3088
11.8425, 3086
11.845, 3086
11.8475, 3088
11.85, 3087
11.8525, 3087
11.855, 3209
11.8575, 3091
11.86, 3090
11.8625, 3088
11.865, 3092
11.8675, 3090
11.87, 3089
11.8725, 3101
11.875, 3090
11.8775, 3088
11.88, 3088
11.8825, 3091
11.885, 3089
11.8875, 3089
11.89, 3101
11.8925, 3090
11.895, 3089
11.8975, 3088
11.9, 3092
11.9025, 3089
11.905, 3089
11.9075, 3091
11.91, 3089
11.9125, 3087
11.915, 3087
11.9175, 3091
11.92, 3089
11.9225, 3087
11.925, 3100
11.9275, 3090
11.93, 3088
11.9325, 3088
11.935, 3090
11.9375, 3088
11.94, 3087
11.9425, 3100
11.945, 3089
11.9475, 3089
11.95, 3087
11.9525, 3091
11.955, 3089
11.9575, 3087
11.96, 3090
11.9625, 3088
11.965, 3086
11.9675, 3085
11.97, 3087
11.9725, 3087
11.975, 3087
11.9775, 3100
11.98, 3091
11.9825, 3092
11.985, 3093
11.9875, 3098
11.99, 3098
11.9925, 3101
11.995, 3114
11.9975, 3103
12.0, 3100
12.0025, 3095
12.005, 3097
12.0075, 3092
12.01, 3088
12.0125, 3098
12.015, 3086
12.0175, 3084
12.02, 3084
12.0225, 3084
12.025, 3085
12.0275, 3084
12.03, 3098
12.0325, 3088
12.035, 3087
12.0375, 3086
12.04, 3090
12.0425, 3086
12.045, 3087
12.0475, 3099
12.05, 3089
12.0525, 3087
12.055, 3087
12.0575, 3090
12.06, 3088
12.0625, 3086
12.065, 3099
12.0675, 3089
12.07, 3087
12.0725, 3086
12.075, 3087
12.0775, 3086
12.08, 3086
12.0825, 3098
12.085, 3087
12.0875, 3086
12.09, 3086
12.0925, 3089
12.095, 3086
12.0975, 3087
12.1, 3099
12.1025, 3089
12.105, 3087
12.1075, 3087
12.11, 3089
12.1125, 3088
12.115, 3088
12.1175, 3099
12.12, 3089
12.1225, 3088
12.125, 3087
12.1275, 3091
12.13, 3088
12.1325, 3088
12.135, 3092
12.1375, 3089
12.14, 3086
12.1425, 3087
12.145, 3089
12.1475, 3089
12.15, 3087
12.1525, 3100
12.155, 3089
12.1575, 3087
12.16, 3087
12.1625, 3090
12.165, 3088
12.1675, 3087
12.17, 3100
12.1725, 3089
12.175, 3089
12.1775, 3088
12.18, 3093
12.1825, 3090
12.185, 3089
12.1875, 3101
12.19, 3090
12.1925, 3089
12.195, 3089
12.1975, 3090
12.2, 3089
12.2025, 3089
12.205, 3100
12.2075, 3091
12.21, 3089
12.2125, 3088
12.215, 3092
12.2175, 3090
12.22, 3089
12.2225, 3101
12.225, 3090
12.2275, 3089
12.23, 3087
12.2325, 3091
12.235, 3088
12.2375, 3087
12.24, 3099
12.2425, 3090
12.245, 3087
12.2475, 3086
12.25, 3089
12.2525, 3088
12.255, 3086
12.2575, 3092
12.26, 3087
12.2625, 3087
12.265, 3085
12.2675, 3088
12.27, 3087
12.2725, 3085
12.275, 3098
12.2775, 3088
12.28, 3086
12.2825, 3086
12.285, 3089
12.2875, 3088
12.29, 3086
12.2925, 3099
12.295, 3088
12.2975, 3088
12.3, 3086
12.3025, 3090
12.305, 3088
12.3075, 3086
12.31, 3090
12.3125, 3086
12.315, 3086
12.3175, 3086
12.32, 3088
12.3225, 3086
12.325, 3086
12.3275, 3098
12.33, 3087
12.3325, 3086
12.335, 3086
12.3375, 3089
12.34, 3088
12.3425, 3086
12.345, 3100
12.3475, 3089
12.35, 3088
12.3525, 3086
12.355, 3090
12.3575, 3087
12.36, 3087
12.3625, 3099
12.365, 3089
12.3675, 3087
12.37, 3088
12.3725, 3087
12.375, 3087
12.3775, 3087
12.38, 3099
12.3825, 3088
12.385, 3087
12.3875, 3085
12.39, 3089
12.3925, 3087
12.395, 3086
12.3975, 3099
12.4, 3088
12.4025, 3086
12.405, 3085
12.4075, 3089
12.41, 3087
12.4125, 3087
12.415, 3099
12.4175, 3089
12.42, 3087
12.4225, 3087
12.425, 3089
12.4275, 3087
12.43, 3087
12.4325, 3090
12.435, 3087
12.4375, 3087
12.44, 3086
12.4425, 3089
12.445, 3087
12.4475, 3087
12.45, 3099
12.4525, 3089
12.455, 3087
12.4575, 3087
12.46, 3090
12.4625, 3088
12.465, 3086
12.4675, 3100
12.47, 3089
12.4725, 3087
12.475, 3087
12.4775, 3090
12.48, 3088
12.4825, 3087
12.485, 3090
12.4875, 3087
12.49, 3087
12.4925, 3085
12.495, 3088
12.4975, 3087
12.5, 3087
12.5025, 3099
12.505, 3089
12.5075, 3087
12.51, 3087
12.5125, 3090
12.515, 3089
12.5175, 3087
12.52, 3100
12.5225, 3090
12.525, 3088
12.5275, 3087
12.53, 3090
12.5325, 3088
12.535, 3087
12.5375, 3101
12.54, 3089
12.5425, 3088
12.545, 3087
12.5475, 3088
12.55, 3087
12.5525, 3087
12.555, 3099
12.5575, 3089
12.56, 3087
12.5625, 3087
12.565, 3090
12.5675, 3088
12.57, 3087
12.5725, 3100
12.575, 3088
12.5775, 3088
12.58, 3087
12.5825, 3090
12.585, 3088
12.5875, 3087
12.59, 3100
12.5925, 3089
12.595, 3088
12.5975, 3088
12.6, 3090
12.6025, 3089
12.605, 3086
12.6075, 3092
12.61, 3088
12.6125, 3088
12.615, 3085
12.6175, 3088
12.62, 3087
12.6225, 3086
12.625, 3099
12.6275, 3088
12.63, 3087
12.6325, 3086
12.635, 3090
12.6375, 3088
12.64, 3088
12.6425, 3098
12.645, 3089
12.6475, 3086
12.65, 3087
12.6525, 3090
12.655, 3088
12.6575, 3087
12.66, 3100
12.6625, 3089
12.665, 3088
12.6675, 3087
12.67, 3089
12.6725, 3088
12.675, 3088
12.6775, 3100
12.68, 3090
12.6825, 3088
12.685, 3087
12.6875, 3091
12.69, 3089
12.6925, 3088
12.695, 3101
12.6975, 3090
12.7, 3088
12.7025, 3087
12.705, 3090
12.7075, 3089
12.71, 3087
12.7125, 3100
12.715, 3089
12.7175, 3088
12.72, 3087
12.7225, 3091
12.725, 3088
12.7275, 3087
12.73, 3091
12.7325, 3087
12.735, 3087
12.7375, 3086
12.74, 3088
12.7425, 3088
12.745, 3087
12.7475, 3100
12.75, 3090
12.7525, 3088
12.755, 3087
12.7575, 3090
12.76, 3088
12.7625, 3088
12.765, 3099
12.7675, 3088
12.77, 3085
12.7725, 3086
12.775, 3089
12.7775, 3086
12.78, 3086
12.7825, 3101
12.785, 3091
12.7875, 3092
12.79, 3093
12.7925, 3096
12.795, 3097
12.7975, 3099
12.8, 3113
12.8025, 3101
12.805, 3098
12.8075, 3093
12.81, 3095
12.8125, 3091
12.815, 3087
12.8175, 3098
12.82, 3087
12.8225, 3085
12.825, 3085
12.8275, 3088
12.83, 3088
12.8325, 3086
12.835, 3100
12.8375, 3088
12.84, 3088
12.8425, 3087
12.845, 3091
12.8475, 3087
12.85, 3088
12.8525, 3092
12.855, 3088
12.8575, 3086
12.86, 3086
12.8625, 3088
12.865, 3087
12.8675, 3087
12.87, 3099
12.8725, 3089
12.875, 3087
12.8775, 3087
12.88, 3090
12.8825, 3089
12.885, 3088
12.8875, 3101
12.89, 3089
12.8925, 3088
12.895, 3087
12.8975, 3091
12.9, 3089
12.9025, 3089
12.905, 3093
12.9075, 3090
12.91, 3088
12.9125, 3088
12.915, 3089
12.9175, 3089
12.92, 3088
12.9225, 3101
12.925, 3090
12.9275, 3089
12.93, 3088
12.9325, 3091
12.935, 3090
12.9375, 3087
12.94, 3101
12.9425, 3090
12.945, 3089
12.9475, 3088
12.95, 3093
12.9525, 3090
12.955, 3089
12.9575, 3102
12.96, 3091
12.9625, 3090
12.965, 3090
12.9675, 3090
12.97, 3089
12.9725, 3089
12.975, 3102
12.9775, 3092
12.98, 3091
12.9825, 3090
12.985, 3093
12.9875, 3091
12.99, 3091
12.9925, 3103
12.995, 3092
12.9975, 3092
13.0, 3090
13.0025, 3094
13.005, 3091
13.0075, 3090
13.01, 3102
13.0125, 3092
13.015, 3091
13.0175, 3090
13.02, 3093
13.0225, 3091
13.025, 3090
13.0275, 3095
13.03, 3090
13.0325, 3090
13.035, 3088
13.0375, 3091
13.04, 3090
13.0425, 3089
13.045, 3102
13.0475, 3090
13.05, 3089
13.0525, 3088
13.055, 3092
13.0575, 3089
13.06, 3088
13.0625, 3101
13.065, 3090
13.0675, 3089
13.07, 3096
13.0725, 3101
13.075, 3099
13.0775, 3098
13.08, 3111
13.0825, 3100
13.085, 3099
13.0875, 3097
13.09, 3100
13.0925, 3098
13.095, 3097
13.0975, 3109
13.1, 3098
13.1025, 3097
13.105, 3097
13.1075, 3100
13.11, 3098
13.1125, 3096
13.115, 3110
13.1175, 3098
13.12, 3097
13.1225, 3097
13.125, 3099
13.1275, 3097
13.13, 3097
13.1325, 3109
13.135, 3098
13.1375, 3097
13.14, 3096
13.1425, 3098
13.145, 3097
13.1475, 3095
13.15, 3109
13.1525, 3097
13.155, 3096
13.1575, 3095
13.16, 3098
13.1625, 3096
13.165, 3095
13.1675, 3108
13.17, 3097
13.1725, 3096
13.175, 3094
13.1775, 3098
13.18, 3096
13.1825, 3095
13.185, 3107
13.1875, 3095
13.19, 3094
13.1925, 3094
13.195, 3097
13.1975, 3095
13.2, 3094
13.2025, 3098
13.205, 3095
13.2075, 3094
13.21, 3093
13.2125, 3095
13.215, 3095
13.2175, 3093
13.22, 3106
13.2225, 3095
13.225, 3093
13.2275, 3093
13.23, 3096
13.2325, 3093
13.235, 3094
13.2375, 3106
13.24, 3095
13.2425, 3093
13.245, 3092
13.2475, 3095
13.25, 3094
13.2525, 3092
13.255, 3106
13.2575, 3094
13.26, 3093
13.2625, 3091
13.265, 3093
13.2675, 3092
13.27, 3092
13.2725, 3104
13.275, 3093
13.2775, 3092
13.28, 3091
13.2825, 3095
13.285, 3092
13.2875, 3091
13.29, 3106
13.2925, 3094
13.295, 3093
13.2975, 3092
13.3, 3095
13.3025, 3093
13.305, 3092
13.3075, 3105
13.31, 3094
13.3125, 3093
13.315, 3091
13.3175, 3094
13.32, 3092
13.3225, 3091
13.325, 3094
13.3275, 3091
13.33, 3090
13.3325, 3090
13.335, 3093
13.3375, 3093
13.34, 3091
13.3425, 3105
13.345, 3092
13.3475, 3091
13.35, 3090
13.3525, 3094
13.355, 3092
13.3575, 3092
13.36, 3104
13.3625, 3092
13.365, 3092
13.3675, 3091
13.37, 3095
13.3725, 3092
13.375, 3091
13.3775, 3104
13.38, 3093
13.3825, 3092
13.385, 3090
13.3875, 3092
13.39, 3091
13.3925, 3090
13.395, 3103
13.3975, 3092
13.4, 3091
13.4025, 3089
13.405, 3093
13.4075, 3092
13.41, 3090
13.4125, 3103
13.415, 3093
13.4175, 3091
13.42, 3090
13.4225, 3093
13.425, 3091
13.4275, 3090
13.43, 3104
13.4325, 3092
13.435, 3092
13.4375, 3090
13.44, 3091
13.4425, 3091
13.445, 3090
13.4475, 3103
13.45, 3092
13.4525, 3091
13.455, 3090
13.4575, 3093
13.46, 3091
13.4625, 3091
13.465, 3104
13.4675, 3092
13.47, 3090
13.4725, 3091
13.475, 3094
13.4775, 3093
13.48, 3091
13.4825, 3105
13.485, 3093
13.4875, 3092
13.49, 3091
13.4925, 3094
13.495, 3092
13.4975, 3090
13.5, 3093
13.5025, 3091
13.505, 3090
13.5075, 3089
13.51, 3092
13.5125, 3091
13.515, 3090
13.5175, 3103
13.52, 3091
13.5225, 3091
13.525, 3090
13.5275, 3093
13.53, 3092
13.5325, 3090
13.535, 3104
13.5375, 3092
13.54, 3091
13.5425, 3090
13.545, 3094
13.5475, 3092
13.55, 3090
13.5525, 3093
13.555, 3091
13.5575, 3090
13.56, 3089
13.5625, 3091
13.565, 3090
13.5675, 3089
13.57, 3103
13.5725, 3091
13.575, 3090
13.5775, 3089
13.58, 3092
13.5825, 3089
13.585, 3089
13.5875, 3102
13.59, 3092
13.5925, 3092
13.595, 3092
13.5975, 3097
13.6, 3097
13.6025, 3098
13.605, 3113
13.6075, 3104
13.61, 3103
13.6125, 3100
13.615, 3099
13.6175, 3094
13.62, 3092
13.6225, 3104
13.625, 3089
13.6275, 3087
13.63, 3086
13.6325, 3089
13.635, 3087
13.6375, 3086
13.64, 3099
13.6425, 3089
13.645, 3088
13.6475, 3088
13.65, 3092
13.6525, 3090
13.655, 3088
13.6575, 3103
13.66, 3090
13.6625, 3090
13.665, 3089
13.6675, 3093
13.67, 3091
13.6725, 3089
13.675, 3093
13.6775, 3090
13.68, 3090
13.6825, 3089
13.685, 3091
13.6875, 3091
13.69, 3089
13.6925, 3103
13.695, 3091
13.6975, 3089
13.7, 3089
13.7025, 3093
13.705, 3090
13.7075, 3089
13.71, 3102
13.7125, 3090
13.715, 3090
13.7175, 3088
13.72, 3092
13.7225, 3090
13.725, 3090
13.7275, 3103
13.73, 3092
13.7325, 3090
13.735, 3089
13.7375, 3091
13.74, 3090
13.7425, 3089
13.745, 3102
13.7475, 3092
13.75, 3091
13.7525, 3089
13.755, 3093
13.7575, 3091
13.76, 3090
13.7625, 3103
13.765, 3092
13.7675, 3091
13.77, 3090
13.7725, 3093
13.775, 3091
13.7775, 3090
13.78, 3104
13.7825, 3092
13.785, 3092
13.7875, 3090
13.79, 3091
13.7925, 3090
13.795, 3090
13.7975, 3103
13.8, 3092
13.8025, 3091
13.805, 3090
13.8075, 3094
13.81, 3091
13.8125, 3091
13.815, 3103
13.8175, 3092
13.82, 3091
13.8225, 3091
13.825, 3094
13.8275, 3092
13.83, 3091
13.8325, 3105
13.835, 3093
13.8375, 3092
13.84, 3090
13.8425, 3094
13.845, 3090
13.8475, 3091
13.85, 3095
13.8525, 3090
13.855, 3089
13.8575, 3088
13.86, 3091
13.8625, 3089
13.865, 3089
13.8675, 3102
13.87, 3089
13.8725, 3088
13.875, 3088
13.8775, 3091
13.88, 3089
13.8825, 3088
13.885, 3102
13.8875, 3089
13.89, 3088
13.8925, 3086
13.895, 3090
13.8975, 3089
13.9, 3088
13.9025, 3092
13.905, 3089
13.9075, 3087
13.91, 3087
13.9125, 3089
13.915, 3089
13.9175, 3088
13.92, 3101
13.9225, 3089
13.925, 3089
13.9275, 3087
13.93, 3091
13.9325, 3089
13.935, 3087
13.9375, 3101
13.94, 3089
13.9425, 3088
13.945, 3087
13.9475, 3091
13.95, 3089
13.9525, 3088
13.955, 3102
13.9575, 3089
13.96, 3088
13.9625, 3088
13.965, 3088
13.9675, 3088
13.97, 3087
13.9725, 3101
13.975, 3089
13.9775, 3088
13.98, 3088
13.9825, 3091
13.985, 3089
13.9875, 3088
13.99, 3102
13.9925, 3091
13.995, 3089
13.9975, 3089
14.0, 3091
14.0025, 3090
14.005, 3089
14.0075, 3102
14.01, 3090
14.0125, 3088
14.015, 3088
14.0175, 3091
14.02, 3089
14.0225, 3088
14.025, 3092
14.0275, 3088
14.03, 3088
14.0325, 3087
14.035, 3091
14.0375, 3089
14.04, 3089
14.0425, 3102
14.045, 3089
14.0475, 3088
14.05, 3088
14.0525, 3091
14.055, 3089
14.0575, 3088
14.06, 3102
14.0625, 3090
14.065, 3089
14.0675, 3088
14.07, 3091
14.0725, 3090
14.075, 3089
14.0775, 3091
14.08, 3089
14.0825, 3088
14.085, 3087
14.0875, 3090
14.09, 3088
14.0925, 3088
14.095, 3101
14.0975, 3089
14.1, 3087
14.1025, 3086
14.105, 3090
14.1075, 3088
14.11, 3087
14.1125, 3101
14.115, 3090
14.1175, 3088
14.12, 3087
14.1225, 3091
14.125, 3089
14.1275, 3088
14.13, 3102
14.1325, 3090
14.135, 3088
14.1375, 3088
14.14, 3089
14.1425, 3089
14.145, 3088
14.1475, 3101
14.15, 3089
14.1525, 3089
14.155, 3087
14.1575, 3091
14.16, 3090
14.1625, 3088
14.165, 3102
14.1675, 3089
14.17, 3088
14.1725, 3087
14.175, 3091
14.1775, 3088
14.18, 3088
14.1825, 3100
14.185, 3089
14.1875, 3088
14.19, 3088
14.1925, 3091
14.195, 3090
14.1975, 3088
14.2, 3092
14.2025, 3088
14.205, 3087
14.2075, 3087
14.21, 3089
14.2125, 3089
14.215, 3087
14.2175, 3101
14.22, 3089
14.2225, 3088
14.225, 3088
14.2275, 3091
14.23, 3090
14.2325, 3088
14.235, 3102
14.2375, 3089
14.24, 3088
14.2425, 3087
14.245, 3090
14.2475, 3088
14.25, 3088
14.2525, 3101
14.255, 3090
14.2575, 3088
14.26, 3087
14.2625, 3089
14.265, 3087
14.2675, 3087
14.27, 3101
14.2725, 3089
14.275, 3087
14.2775, 3087
14.28, 3090
14.2825, 3088
14.285, 3087
14.2875, 3101
14.29, 3090
14.2925, 3089
14.295, 3087
14.2975, 3091
14.3, 3090
14.3025, 3089
14.305, 3102
14.3075, 3090
14.31, 3088
14.3125, 3088
14.315, 3089
14.3175, 3088
14.32, 3087
14.3225, 3101
14.325, 3089
14.3275, 3087
14.33, 3087
14.3325, 3090
14.335, 3088
14.3375, 3086
14.34, 3101
14.3425, 3088
14.345, 3087
14.3475, 3087
14.35, 3091
14.3525, 3088
14.355, 3087
14.3575, 3101
14.36, 3088
14.3625, 3088
14.365, 3088
14.3675, 3090
14.37, 3089
14.3725, 3088
14.375, 3091
14.3775, 3088
14.38, 3088
14.3825, 3085
14.385, 3090
14.3875, 3087
14.39, 3087
14.3925, 3099
14.395, 3087
14.3975, 3085
14.4, 3085
14.4025, 3090
14.405, 3088
14.4075, 3088
14.41, 3104
14.4125, 3094
14.415, 3094
14.4175, 3094
14.42, 3100
14.4225, 3100
14.425, 3098
14.4275, 3112
14.43, 3096
14.4325, 3091
14.435, 3089
14.4375, 3087
14.44, 3086
14.4425, 3084
14.445, 3099
14.4475, 3085
14.45, 3084
14.4525, 3084
14.455, 3088
14.4575, 3087
14.46, 3086
14.4625, 3100
14.465, 3089
14.4675, 3088
14.47, 3086
14.4725, 3089
14.475, 3087
14.4775, 3087
14.48, 3100
14.4825, 3088
14.485, 3087
14.4875, 3087
14.49, 3090
14.4925, 3087
14.495, 3086
14.4975, 3090
14.5, 3087
14.5025, 3086
14.505, 3086
14.5075, 3087
14.51, 3087
14.5125, 3085
14.515, 3101
14.5175, 3088
14.52, 3088
14.5225, 3086
14.525, 3090
14.5275, 3088
14.53, 3087
14.5325, 3101
14.535, 3089
14.5375, 3088
14.54, 3087
14.5425, 3090
14.545, 3089
14.5475, 3088
14.55, 3101
14.5525, 3088
14.555, 3088
14.5575, 3087
14.56, 3088
14.5625, 3088
14.565, 3087
14.5675, 3101
14.57, 3088
14.5725, 3087
14.575, 3086
14.5775, 3090
14.58, 3088
14.5825, 3088
14.585, 3102
14.5875, 3089
14.59, 3089
14.5925, 3088
14.595, 3091
14.5975, 3089
14.6, 3089
14.6025, 3102
14.605, 3090
14.6075, 3089
14.61, 3088
14.6125, 3093
14.615, 3089
14.6175, 3090
14.62, 3094
14.6225, 3090
14.625, 3089
14.6275, 3088
14.63, 3091
14.6325, 3089
14.635, 3089
14.6375, 3103
14.64, 3091
14.6425, 3089
14.645, 3088
14.6475, 3092
14.65, 3089
14.6525, 3088
14.655, 3104
14.6575, 3091
14.66, 3090
14.6625, 3088
14.665, 3092
14.6675, 3089
14.67, 3088
14.6725, 3092
14.675, 3088
14.6775, 3087
14.68, 3087
14.6825, 3088
14.685, 3089
14.6875, 3087
14.69, 3100
14.6925, 3089
14.695, 3088
14.6975, 3086
14.7, 3091
14.7025, 3087
14.705, 3087
14.7075, 3101
14.71, 3088
14.7125, 3086
14.715, 3086
14.7175, 3090
14.72, 3088
14.7225, 3087
14.725, 3101
14.7275, 3089
14.73, 3087
14.7325, 3087
14.735, 3088
14.7375, 3087
14.74, 3086
14.7425, 3101
14.745, 3088
14.7475, 3087
14.75, 3087
14.7525, 3090
14.755, 3087
14.7575, 3087
14.76, 3102
14.7625, 3089
14.765, 3088
14.7675, 3087
14.77, 3090
14.7725, 3090
14.775, 3088
14.7775, 3103
14.78, 3090
14.7825, 3089
14.785, 3087
14.7875, 3088
14.79, 3088
14.7925, 3086
14.795, 3102
14.7975, 3089
14.8, 3088
14.8025, 3086
14.805, 3090
14.8075, 3088
14.81, 3088
14.8125, 3101
14.815, 3090
14.8175, 3088
14.82, 3087
14.8225, 3090
14.825, 3088
14.8275, 3088
14.83, 3102
14.8325, 3090
14.835, 3088
14.8375, 3087
14.84, 3091
14.8425, 3089
14.845, 3089
14.8475, 3093
14.85, 3089
14.8525, 3087
14.855, 3087
14.8575, 3090
14.86, 3088
14.8625, 3086
14.865, 3102
14.8675, 3089
14.87, 3087
14.8725, 3086
14.875, 3090
14.8775, 3088
14.88, 3087
14.8825, 3102
14.885, 3089
14.8875, 3088
14.89, 3086
14.8925, 3091
14.895, 3089
14.8975, 3088
14.9, 3091
14.9025, 3088
14.905, 3087
14.9075, 3087
14.91, 3089
14.9125, 3089
14.915, 3087
14.9175, 3102
14.92, 3089
14.9225, 3088
14.925, 3088
14.9275, 3091
14.93, 3088
14.9325, 3088
14.935, 3102
14.9375, 3090
14.94, 3088
14.9425, 3087
14.945, 3091
14.9475, 3088
14.95, 3087
14.9525, 3102
14.955, 3089
14.9575, 3087
14.96, 3087
14.9625, 3087
14.965, 3088
14.9675, 3086
14.97, 3102
14.9725, 3088
14.975, 3088
14.9775, 3086
14.98, 3090
14.9825, 3088
14.985, 3086
14.9875, 3102
14.99, 3090
14.9925, 3088
14.995, 3088
14.9975, 3090
15.0, 3089
15.0025, 3088
15.005, 3102
15.0075, 3089
15.01, 3089
15.0125, 3087
15.015, 3091
15.0175, 3088
15.02, 3087
15.0225, 3091
15.025, 3087
15.0275, 3087
15.03, 3086
15.0325, 3089
15.035, 3087
15.0375, 3086
15.04, 3101
15.0425, 3089
15.045, 3087
15.0475, 3087
15.05, 3091
15.0525, 3089
15.055, 3088
15.0575, 3102
15.06, 3090
15.0625, 3088
15.065, 3087
15.0675, 3091
15.07, 3089
15.0725, 3089
15.075, 3092
15.0775, 3089
15.08, 3088
15.0825, 3087
15.085, 3089
15.0875, 3089
15.09, 3087
15.0925, 3102
15.095, 3089
15.0975, 3087
15.1, 3086
15.1025, 3090
15.105, 3088
15.1075, 3087
15.11, 3102
15.1125, 3088
15.115, 3088
15.1175, 3086
15.12, 3090
15.1225, 3088
15.125, 3088
15.1275, 3102
15.13, 3089
15.1325, 3088
15.135, 3086
15.1375, 3087
15.14, 3088
15.1425, 3086
15.145, 3102
15.1475, 3088
15.15, 3087
15.1525, 3085
15.155, 3089
15.1575, 3086
15.16, 3087
15.1625, 3101
15.165, 3091
15.1675, 3090
15.17, 3091
15.1725, 3097
15.175, 3096
15.1775, 3097
15.18, 3114
15.1825, 3102
15.185, 3100
15.1875, 3096
15.19, 3095
15.1925, 3091
15.195, 3088
15.1975, 3090
15.2, 3085
15.2025, 3084
15.205, 3083
15.2075, 3086
15.21, 3084
15.2125, 3085
15.215, 3100
15.2175, 3088
15.22, 3087
15.2225, 3087
15.225, 3090
15.2275, 3089
15.23, 3087
15.2325, 3102
15.235, 3088
15.2375, 3087
15.24, 3086
15.2425, 3091
15.245, 3087
15.2475, 3087
15.25, 3101
15.2525, 3089
15.255, 3087
15.2575, 3087
15.26, 3089
15.2625, 3087
15.265, 3087
15.2675, 3102
15.27, 3089
15.2725, 3088
15.275, 3088
15.2775, 3091
15.28, 3089
15.2825, 3088
15.285, 3103
15.2875, 3090
15.29, 3088
15.2925, 3087
15.295, 3091
15.2975, 3089
15.3, 3088
15.3025, 3102
15.305, 3090
15.3075, 3089
15.31, 3089
15.3125, 3088
15.315, 3090
15.3175, 3087
15.32, 3103
15.3225, 3090
15.325, 3089
15.3275, 3087
15.33, 3090
15.3325, 3089
15.335, 3087
15.3375, 3102
15.34, 3090
15.3425, 3089
15.345, 3088
15.3475, 3091
15.35, 3089
15.3525, 3089
15.355, 3103
15.3575, 3090
15.36, 3088
15.3625, 3089
15.365, 3092
15.3675, 3090
15.37, 3089
15.3725, 3092
15.375, 3089
15.3775, 3088
15.38, 3087
15.3825, 3091
15.385, 3090
15.3875, 3089
15.39, 3103
15.3925, 3091
15.395, 3090
15.3975, 3089
15.4, 3092
15.4025, 3090
15.405, 3088
15.4075, 3102
15.41, 3090
15.4125, 3088
15.415, 3087
15.4175, 3091
15.42, 3089
15.4225, 3087
15.425, 3102
15.4275, 3089
15.43, 3087
15.4325, 3086
15.435, 3088
15.4375, 3086
15.44, 3087
15.4425, 3101
15.445, 3087
15.4475, 3086
15.45, 3086
15.4525, 3088
15.455, 3086
15.4575, 3086
15.46, 3100
15.4625, 3088
15.465, 3087
15.4675, 3085
15.47, 3090
15.4725, 3087
15.475, 3087
15.4775, 3101
15.48, 3088
15.4825, 3086
15.485, 3086
15.4875, 3089
15.49, 3086
15.4925, 3087
15.495, 3090
15.4975, 3086
15.5, 3085
15.5025, 3084
15.505, 3087
15.5075, 3087
15.51, 3086
15.5125, 3101
15.515, 3087
15.5175, 3087
15.52, 3085
15.5225, 3089
15.525, 3088
15.5275, 3086
15.53, 3101
15.5325, 3089
15.535, 3087
15.5375, 3087
15.54, 3090
15.5425, 3088
15.545, 3086
15.5475, 3092
15.55, 3086
15.5525, 3087
15.555, 3086
15.5575, 3088
15.56, 3086
15.5625, 3086
15.565, 3100
15.5675, 3088
15.57, 3086
15.5725, 3086
15.575, 3090
15.5775, 3087
15.58, 3086
15.5825, 3101
15.585, 3088
15.5875, 3087
15.59, 3086
15.5925, 3089
15.595, 3088
15.5975, 3087
15.6, 3102
15.6025, 3089
15.605, 3088
15.6075, 3086
15.61, 3089
15.6125, 3087
15.615, 3086
15.6175, 3101
15.62, 3089
15.6225, 3087
15.625, 3087
15.6275, 3090
15.63, 3089
15.6325, 3087
15.635, 3102
15.6375, 3088
15.64, 3087
15.6425, 3086
15.645, 3089
15.6475, 3088
15.65, 3087
15.6525, 3103
15.655, 3088
15.6575, 3087
15.66, 3086
15.6625, 3088
15.665, 3087
15.6675, 3087
15.67, 3101
15.6725, 3088
15.675, 3087
15.6775, 3087
15.68, 3089
15.6825, 3088
15.685, 3086
15.6875, 3102
15.69, 3089
15.6925, 3089
15.695, 3087
15.6975, 3091
15.7, 3088
15.7025, 3087
15.705, 3101
15.7075, 3089
15.71, 3087
15.7125, 3087
15.715, 3088
15.7175, 3087
15.72, 3085
15.7225, 3101
15.725, 3087
15.7275, 3087
15.73, 3086
15.7325, 3089
15.735, 3087
15.7375, 3086
15.74, 3102
15.7425, 3088
15.745, 3087
15.7475, 3085
15.75, 3090
15.7525, 3087
15.755, 3086
15.7575, 3101
15.76, 3088
15.7625, 3087
15.765, 3087
15.7675, 3090
15.77, 3089
15.7725, 3088
15.775, 3102
15.7775, 3088
15.78, 3088
15.7825, 3085
15.785, 3088
15.7875, 3086
15.79, 3086
15.7925, 3101
15.795, 3088
15.7975, 3087
15.8, 3085
15.8025, 3090
15.805, 3087
15.8075, 3086
15.81, 3102
15.8125, 3089
15.815, 3087
15.8175, 3087
15.82, 3090
15.8225, 3088
15.825, 3086
15.8275, 3103
15.83, 3088
15.8325, 3087
15.835, 3086
15.8375, 3087
15.84, 3086
15.8425, 3085
15.845, 3100
15.8475, 3088
15.85, 3086
15.8525, 3086
15.855, 3089
15.8575, 3087
15.86, 3086
15.8625, 3101
15.865, 3088
15.8675, 3087
15.87, 3085
15.8725, 3089
15.875, 3087
15.8775, 3086
15.88, 3102
15.8825, 3087
15.885, 3087
15.8875, 3085
15.89, 3089
15.8925, 3085
15.895, 3086
15.8975, 3089
15.9, 3085
15.9025, 3083
15.905, 3084
15.9075, 3086
15.91, 3087
15.9125, 3087
15.915, 3105
15.9175, 3092
15.92, 3093
15.9225, 3095
15.925, 3100
15.9275, 3101
15.93, 3098
15.9325, 3112
15.935, 3096
15.9375, 3091
15.94, 3090
15.9425, 3090
15.945, 3086
15.9475, 3083
15.95, 3087
15.9525, 3083
15.955, 3082
15.9575, 3082
15.96, 3085
15.9625, 3086
15.965, 3085
15.9675, 3101
15.97, 3088
15.9725, 3088
15.975, 3087
15.9775, 3090
15.98, 3088
15.9825, 3087
15.985, 3102
15.9875, 3089
15.99, 3088
15.9925, 3088
15.995, 3091
15.9975, 3089
16.0, 3088
16.0025, 3103
16.005, 3090
16.0075, 3089
16.01, 3087
16.0125, 3090
16.015, 3088
16.0175, 3088
16.02, 3102
16.0225, 3090
16.025, 3088
16.0275, 3089
16.03, 3091
16.0325, 3089
16.035, 3087
16.0375, 3102
16.04, 3089
16.0425, 3087
16.045, 3087
16.0475, 3091
16.05, 3089
16.0525, 3088
16.055, 3104
16.0575, 3089
16.06, 3089
16.0625, 3087
16.065, 3089
16.0675, 3088
16.07, 3088
16.0725, 3103
16.075, 3090
16.0775, 3088
16.08, 3089
16.0825, 3092
16.085, 3089
16.0875, 3088
16.09, 3103
16.0925, 3090
16.095, 3089
16.0975, 3088
16.1, 3092
16.1025, 3089
16.105, 3089
16.1075, 3104
16.11, 3090
16.1125, 3089
16.115, 3088
16.1175, 3091
16.12, 3089
16.1225, 3089
16.125, 3093
16.1275, 3089
16.13, 3088
16.1325, 3087
16.135, 3089
16.1375, 3090
16.14, 3089
16.1425, 3105
16.145, 3091
16.1475, 3089
16.15, 3088
16.1525, 3092
16.155, 3089
16.1575, 3089
16.16, 3104
16.1625, 3091
16.165, 3089
16.1675, 3089
16.17, 3090
16.1725, 3089
16.175, 3088
16.1775, 3103
16.18, 3088
16.1825, 3087
16.185, 3086
16.1875, 3086
16.19, 3086
16.1925, 3086
16.195, 3100
16.1975, 3087
16.2, 3086
16.2025, 3085
16.205, 3089
16.2075, 3086
16.21, 3086
16.2125, 3101
16.215, 3088
16.2175, 3087
16.22, 3086
16.2225, 3089
16.225, 3087
16.2275, 3086
16.23, 3102
16.2325, 3087
16.235, 3087
16.2375, 3085
16.24, 3089
16.2425, 3087
16.245, 3087
16.2475, 3091
16.25, 3087
16.2525, 3085
16.255, 3085
16.2575, 3088
16.26, 3086
16.2625, 3086
16.265, 3100
16.2675, 3087
16.27, 3086
16.2725, 3085
16.275, 3089
16.2775, 3086
16.28, 3086
16.2825, 3101
16.285, 3087
16.2875, 3086
16.29, 3086
16.2925, 3089
16.295, 3087
16.2975, 3087
16.3, 3090
16.3025, 3088
16.305, 3086
16.3075, 3085
16.31, 3088
16.3125, 3088
16.315, 3086
16.3175, 3103
16.32, 3089
16.3225, 3087
16.325, 3086
16.3275, 3089
16.33, 3087
16.3325, 3087
16.335, 3102
16.3375, 3088
16.34, 3086
16.3425, 3086
16.345, 3089
16.3475, 3087
16.35, 3086
16.3525, 3102
16.355, 3089
16.3575, 3086
16.36, 3087
16.3625, 3087
16.365, 3087
16.3675, 3085
16.37, 3102
16.3725, 3087
16.375, 3087
16.3775, 3086
16.38, 3089
16.3825, 3087
16.385, 3086
16.3875, 3102
16.39, 3089
16.3925, 3088
16.395, 3087
16.3975, 3089
16.4, 3089
16.4025, 3086
16.405, 3102
16.4075, 3088
16.41, 3087
16.4125, 3085
16.415, 3089
16.4175, 3087
16.42, 3086
16.4225, 3091
16.425, 3087
16.4275, 3087
16.43, 3085
16.4325, 3089
16.435, 3086
16.4375, 3087
16.44, 3102
16.4425, 3089
16.445, 3087
16.4475, 3086
16.45, 3090
16.4525, 3087
16.455, 3087
16.4575, 3103
16.46, 3088
16.4625, 3088
16.465, 3085
16.4675, 3090
16.47, 3088
16.4725, 3087
16.475, 3090
16.4775, 3088
16.48, 3086
16.4825, 3087
16.485, 3089
16.4875, 3088
16.49, 3087
16.4925, 3103
16.495, 3088
16.4975, 3086
16.5, 3086
16.5025, 3089
16.505, 3088
16.5075, 3086
16.51, 3103
16.5125, 3088
16.515, 3087
16.5175, 3086
16.52, 3090
16.5225, 3087
16.525, 3087
16.5275, 3103
16.53, 3089
16.5325, 3087
16.535, 3088
16.5375, 3087
16.54, 3087
16.5425, 3086
16.545, 3102
16.5475, 3088
16.55, 3088
16.5525, 3087
16.555, 3090
16.5575, 3088
16.56, 3088
16.5625, 3103
16.565, 3089
16.5675, 3088
16.57, 3087
16.5725, 3091
16.575, 3088
16.5775, 3086
16.58, 3102
16.5825, 3089
16.585, 3088
16.5875, 3086
16.59, 3089
16.5925, 3088
16.595, 3086
16.5975, 3091
16.6, 3087
16.6025, 3086
16.605, 3085
16.6075, 3088
16.61, 3087
16.6125, 3086
16.615, 3103
16.6175, 3087
16.62, 3087
16.6225, 3087
16.625, 3090
16.6275, 3088
16.63, 3086
16.6325, 3103
16.635, 3089
16.6375, 3088
16.64, 3086
16.6425, 3090
16.645, 3088
16.6475, 3086
16.65, 3102
16.6525, 3087
16.655, 3085
16.6575, 3085
16.66, 3086
16.6625, 3085
16.665, 3085
16.6675, 3103
16.67, 3091
16.6725, 3092
16.675, 3093
16.6775, 3098
16.68, 3099
16.6825, 3099
16.685, 3114
16.6875, 3099
16.69, 3094
16.6925, 3090
16.695, 3092
16.6975, 3087
16.7, 3084
16.7025, 3100
16.705, 3086
16.7075, 3084
16.71, 3083
16.7125, 3085
16.715, 3085
16.7175, 3085
16.72, 3102
16.7225, 3087
16.725, 3087
16.7275, 3085
16.73, 3089
16.7325, 3087
16.735, 3086
16.7375, 3102
16.74, 3087
16.7425, 3087
16.745, 3086
16.7475, 3089
16.75, 3086
16.7525, 3086
16.755, 3101
16.7575, 3089
16.76, 3086
16.7625, 3087
16.765, 3089
16.7675, 3087
16.77, 3086
16.7725, 3092
16.775, 3087
16.7775, 3087
16.78, 3086
16.7825, 3089
16.785, 3088
16.7875, 3087
16.79, 3102
16.7925, 3089
16.795, 3087
16.7975, 3086
16.8, 3090
16.8025, 3088
16.805, 3086
16.8075, 3103
16.81, 3088
16.8125, 3087
16.815, 3086
16.8175, 3090
16.82, 3088
16.8225, 3087
16.825, 3103
16.8275, 3089
16.83, 3088
16.8325, 3086
16.835, 3089
16.8375, 3087
16.84, 3087
16.8425, 3104
16.845, 3088
16.8475, 3088
16.85, 3087
16.8525, 3091
16.855, 3089
16.8575, 3087
16.86, 3104
16.8625, 3090
16.865, 3089
16.8675, 3087
16.87, 3091
16.8725, 3089
16.875, 3088
16.8775, 3104
16.88, 3089
16.8825, 3089
16.885, 3088
16.8875, 3088
16.89, 3088
16.8925, 3088
16.895, 3103
16.8975, 3089
16.9, 3087
16.9025, 3088
16.905, 3091
16.9075, 3089
16.91, 3087
16.9125, 3105
16.915, 3088
16.9175, 3088
16.92, 3088
16.9225, 3091
16.925, 3087
16.9275, 3087
16.93, 3103
16.9325, 3089
16.935, 3087
16.9375, 3087
16.94, 3089
16.9425, 3087
16.945, 3085
16.9475, 3091
16.95, 3086
16.9525, 3087
16.955, 3084
16.9575, 3087
16.96, 3086
16.9625, 3084
16.965, 3101
16.9675, 3087
16.97, 3085
16.9725, 3084
16.975, 3089
16.9775, 3085
16.98, 3087
16.9825, 3101
16.985, 3087
16.9875, 3086
16.99, 3086
16.9925, 3088
16.995, 3087
16.9975, 3087
17.0, 3103
17.0025, 3087
17.005, 3086
17.0075, 3085
17.01, 3087
17.0125, 3086
17.015, 3085
17.0175, 3101
17.02, 3087
17.0225, 3086
17.025, 3086
17.0275, 3088
17.03, 3087
17.0325, 3085
17.035, 3102
17.0375, 3088
17.04, 3086
17.0425, 3085
17.045, 3089
17.0475, 3087
17.05, 3085
17.0525, 3103
17.055, 3088
17.0575, 3087
17.06, 3085
17.0625, 3087
17.065, 3085
17.0675, 3086
17.07, 3102
17.0725, 3087
17.075, 3087
17.0775, 3086
17.08, 3088
17.0825, 3087
17.085, 3085
17.0875, 3103
17.09, 3088
17.0925, 3087
17.095, 3085
17.0975, 3090
17.1, 3087
17.1025, 3087
17.105, 3103
17.1075, 3088
17.11, 3086
17.1125, 3085
17.115, 3089
17.1175, 3086
17.12, 3086
17.1225, 3091
17.125, 3087
17.1275, 3085
17.13, 3085
17.1325, 3087
17.135, 3088
17.1375, 3086
17.14, 3102
17.1425, 3087
17.145, 3086
17.1475, 3085
17.15, 3089
17.1525, 3087
17.155, 3086
17.1575, 3103
17.16, 3088
17.1625, 3086
17.165, 3087
17.1675, 3090
17.17, 3088
17.1725, 3086
17.175, 3103
17.1775, 3088
17.18, 3087
17.1825, 3086
17.185, 3087
17.1875, 3087
17.19, 3086
17.1925, 3103
17.195, 3088
17.1975, 3086
17.2, 3086
17.2025, 3089
17.205, 3087
17.2075, 3086
17.21, 3103
17.2125, 3088
17.215, 3087
17.2175, 3086
17.22, 3089
17.2225, 3087
17.225, 3087
17.2275, 3104
17.23, 3089
17.2325, 3088
17.235, 3086
17.2375, 3090
17.24, 3088
17.2425, 3087
17.245, 3092
17.2475, 3089
17.25, 3087
17.2525, 3087
17.255, 3090
17.2575, 3089
17.26, 3087
17.2625, 3104
17.265, 3088
17.2675, 3088
17.27, 3086
17.2725, 3089
17.275, 3087
17.2775, 3087
17.28, 3103
17.2825, 3087
17.285, 3086
17.2875, 3086
17.29, 3090
17.2925, 3088
17.295, 3087
17.2975, 3090
17.3, 3087
17.3025, 3086
17.305, 3086
17.3075, 3089
17.31, 3088
17.3125, 3087
17.315, 3105
17.3175, 3090
17.32, 3088
17.3225, 3087
17.325, 3091
17.3275, 3088
17.33, 3089
17.3325, 3103
17.335, 3090
17.3375, 3087
17.34, 3087
17.3425, 3088
17.345, 3086
17.3475, 3084
17.35, 3101
17.3525, 3086
17.355, 3085
17.3575, 3085
17.36, 3088
17.3625, 3089
17.365, 3090
17.3675, 3110
17.37, 3095
17.3725, 3097
17.375, 3097
17.3775, 3101
17.38, 3099
17.3825, 3095
17.385, 3106
17.3875, 3089
17.39, 3086
17.3925, 3084
17.395, 3085
17.3975, 3084
17.4, 3083
17.4025, 3100
17.405, 3085
17.4075, 3085
17.41, 3084
17.4125, 3089
17.415, 3086
17.4175, 3086
17.42, 3091
17.4225, 3086
17.425, 3085
17.4275, 3085
17.43, 3088
17.4325, 3086
17.435, 3085
17.4375, 3102
17.44, 3087
17.4425, 3086
17.445, 3087
17.4475, 3088
17.45, 3087
17.4525, 3084
17.455, 3103
17.4575, 3087
17.46, 3086
17.4625, 3087
17.465, 3089
17.4675, 3087
17.47, 3087
17.4725, 3104
17.475, 3089
17.4775, 3086
17.48, 3087
17.4825, 3087
17.485, 3087
17.4875, 3085
17.49, 3103
17.4925, 3087
17.495, 3087
17.4975, 3085
17.5, 3089
17.5025, 3088
17.505, 3086
17.5075, 3104
17.51, 3088
17.5125, 3088
17.515, 3086
17.5175, 3089
17.52, 3088
17.5225, 3087
17.525, 3103
17.5275, 3089
17.53, 3086
17.5325, 3087
17.535, 3090
17.5375, 3088
17.54, 3087
17.5425, 3091
17.545, 3087
17.5475, 3087
17.55, 3086
17.5525, 3090
17.555, 3088
17.5575, 3088
17.56, 3105
17.5625, 3090
17.565, 3088
17.5675, 3089
17.57, 3091
17.5725, 3089
17.575, 3088
17.5775, 3105
17.58, 3090
17.5825, 3089
17.585, 3088
17.5875, 3091
17.59, 3089
17.5925, 3087
17.595, 3105
17.5975, 3089
17.6, 3088
17.6025, 3087
17.605, 3089
17.6075, 3087
17.61, 3087
17.6125, 3103
17.615, 3088
17.6175, 3087
17.62, 3086
17.6225, 3089
17.625, 3087
17.6275, 3086
17.63, 3104
17.6325, 3087
17.635, 3086
17.6375, 3085
17.64, 3089
17.6425, 3087
17.645, 3087
17.6475, 3101
17.65, 3087
17.6525, 3085
17.655, 3085
17.6575, 3088
17.66, 3086
17.6625, 3085
17.665, 3090
17.6675, 3086
17.67, 3084
17.6725, 3083
17.675, 3086
17.6775, 3086
17.68, 3085
17.6825, 3102
17.685, 3086
17.6875, 3086
17.69, 3085
17.6925, 3089
17.695, 3087
17.6975, 3086
17.7, 3101
17.7025, 3087
17.705, 3085
17.7075, 3086
17.71, 3090
17.7125, 3087
17.715, 3086
17.7175, 3102
17.72, 3087
17.7225, 3086
17.725, 3084
17.7275, 3086
17.73, 3085
17.7325, 3086
17.735, 3103
17.7375, 3087
17.74, 3086
17.7425, 3085
17.745, 3088
17.7475, 3086
17.75, 3085
17.7525, 3102
17.755, 3088
17.7575, 3085
17.76, 3085
17.7625, 3088
17.765, 3087
17.7675, 3085
17.77, 3103
17.7725, 3088
17.775, 3087
17.7775, 3086
17.78, 3087
17.7825, 3086
17.785, 3085
17.7875, 3103
17.79, 3087
17.7925, 3087
17.795, 3086
17.7975, 3089
17.8, 3087
17.8025, 3087
17.805, 3103
17.8075, 3088
17.81, 3086
17.8125, 3086
17.815, 3089
17.8175, 3087
17.82, 3086
17.8225, 3103
17.825, 3087
17.8275, 3086
17.83, 3085
17.8325, 3090
17.835, 3087
17.8375, 3087
17.84, 3090
17.8425, 3088
17.845, 3085
17.8475, 3085
17.85, 3088
17.8525, 3088
17.855, 3086
17.8575, 3104
17.86, 3088
17.8625, 3087
17.865, 3086
17.8675, 3089
17.87, 3088
17.8725, 3088
17.875, 3104
17.8775, 3088
17.88, 3086
17.8825, 3087
17.885, 3089
17.8875, 3088
17.89, 3087
17.8925, 3104
17.895, 3088
17.8975, 3087
17.9, 3086
17.9025, 3087
17.905, 3086
17.9075, 3085
17.91, 3103
17.9125, 3086
17.915, 3087
17.9175, 3085
17.92, 3090
17.9225, 3087
17.925, 3086
17.9275, 3104
17.93, 3089
17.9325, 3087
17.935, 3087
17.9375, 3090
17.94, 3088
17.9425, 3087
17.945, 3105
17.9475, 3090
17.95, 3088
17.9525, 3087
17.955, 3091
17.9575, 3087
17.96, 3087
17.9625, 3091
17.965, 3087
17.9675, 3085
17.97, 3085
17.9725, 3088
17.975, 3087
17.9775, 3086
17.98, 3102
17.9825, 3087
17.985, 3086
17.9875, 3087
17.99, 3090
17.9925, 3088
17.995, 3086
17.9975, 3105
18.0, 3088
18.0025, 3088
18.005, 3087
18.0075, 3090
18.01, 3087
18.0125, 3087
18.015, 3103
18.0175, 3089
18.02, 3086
18.0225, 3086
18.025, 3086
18.0275, 3085
18.03, 3084
18.0325, 3102
18.035, 3088
18.0375, 3088
18.04, 3089
18.0425, 3095
18.045, 3096
18.0475, 3098
18.05, 3118
18.0525, 3104
18.055, 3102
18.0575, 3099
18.06, 3100
18.0625, 3096
18.065, 3092
18.0675, 3105
18.07, 3087
18.0725, 3084
18.075, 3084
18.0775, 3083
18.08, 3084
18.0825, 3084
18.085, 3103
18.0875, 3086
18.09, 3086
18.0925, 3085
18.095, 3090
18.0975, 3086
18.1, 3086
18.1025, 3105
18.105, 3089
18.1075, 3087
18.11, 3087
18.1125, 3090
18.115, 3088
18.1175, 3086
18.12, 3105
18.1225, 3089
18.125, 3088
18.1275, 3087
18.13, 3090
18.1325, 3089
18.135, 3088
18.1375, 3093
18.14, 3088
18.1425, 3088
18.145, 3087
18.1475, 3091
18.15, 3088
18.1525, 3088
18.155, 3105
18.1575, 3089
18.16, 3088
18.1625, 3087
18.165, 3091
18.1675, 3089
18.17, 3087
18.1725, 3106
18.175, 3090
18.1775, 3089
18.18, 3088
18.1825, 3092
18.185, 3089
18.1875, 3089
18.19, 3106
18.1925, 3090
18.195, 3088
18.1975, 3088
18.2, 3089
18.2025, 3088
18.205, 3087
18.2075, 3104
18.21, 3090
18.2125, 3087
18.215, 3087
18.2175, 3090
18.22, 3089
18.2225, 3088
18.225, 3105
18.2275, 3089
18.23, 3089
18.2325, 3088
18.235, 3091
18.2375, 3089
18.24, 3088
18.2425, 3106
18.245, 3090
18.2475, 3089
18.25, 3088
18.2525, 3088
18.255, 3089
18.2575, 3088
18.26, 3107
18.2625, 3091
18.265, 3090
18.2675, 3089
18.27, 3093
18.2725, 3091
18.275, 3089
18.2775, 3106
18.28, 3090
18.2825, 3088
18.285, 3088
18.2875, 3091
18.29, 3088
18.2925, 3088
18.295, 3105
18.2975, 3090
18.3, 3088
18.3025, 3088
18.305, 3090
18.3075, 3088
18.31, 3086
18.3125, 3091
18.315, 3088
18.3175, 3087
18.32, 3085
18.3225, 3089
18.325, 3087
18.3275, 3086
18.33, 3104
18.3325, 3088
18.335, 3087
18.3375, 3087
18.34, 3089
18.3425, 3088
18.345, 3087
18.3475, 3104
18.35, 3088
18.3525, 3087
18.355, 3086
18.3575, 3089
18.36, 3087
18.3625, 3087
18.365, 3090
18.3675, 3086
18.37, 3085
18.3725, 3086
18.375, 3089
18.3775, 3087
18.38, 3087
18.3825, 3104
18.385, 3089
18.3875, 3087
18.39, 3087
18.3925, 3089
18.395, 3088
18.3975, 3087
18.4, 3106
18.4025, 3090
18.405, 3089
18.4075, 3087
18.41, 3091
18.4125, 3089
18.415, 3088
18.4175, 3106
18.42, 3091
18.4225, 3088
18.425, 3087
18.4275, 3088
18.43, 3087
18.4325, 3086
18.435, 3104
18.4375, 3088
18.44, 3087
18.4425, 3087
18.445, 3089
18.4475, 3088
18.45, 3086
18.4525, 3106
18.455, 3090
18.4575, 3088
18.46, 3086
18.4625, 3091
18.465, 3088
18.4675, 3088
18.47, 3106
18.4725, 3089
18.475, 3088
18.4775, 3087
18.48, 3091
18.4825, 3089
18.485, 3088
18.4875, 3092
18.49, 3088
18.4925, 3088
18.495, 3087
18.4975, 3090
18.5, 3088
18.5025, 3087
18.505, 3106
18.5075, 3089
18.51, 3087
18.5125, 3086
18.515, 3091
18.5175, 3088
18.52, 3087
18.5225, 3105
18.525, 3090
18.5275, 3088
18.53, 3088
18.5325, 3091
18.535, 3089
18.5375, 3087
18.54, 3107
18.5425, 3089
18.545, 3088
18.5475, 3088
18.55, 3089
18.5525, 3087
18.555, 3088
18.5575, 3105
18.56, 3088
18.5625, 3087
18.565, 3087
18.5675, 3090
18.57, 3089
18.5725, 3087
18.575, 3107
18.5775, 3089
18.58, 3088
18.5825, 3087
18.585, 3090
18.5875, 3089
18.59, 3086
18.5925, 3106
18.595, 3090
18.5975, 3088
18.6, 3087
18.6025, 3091
18.605, 3089
18.6075, 3088
18.61, 3093
18.6125, 3089
18.615, 3087
18.6175, 3088
18.62, 3091
18.6225, 3089
18.625, 3088
18.6275, 3106
18.63, 3090
18.6325, 3089
18.635, 3088
18.6375, 3091
18.64, 3089
18.6425, 3089
18.645, 3107
18.6475, 3090
18.65, 3089
18.6525, 3088
18.655, 3092
18.6575, 3090
18.66, 3088
18.6625, 3092
18.665, 3089
18.6675, 3088
18.67, 3087
18.6725, 3090
18.675, 3090
18.6775, 3088
18.68, 3106
18.6825, 3089
18.685, 3089
18.6875, 3087
18.69, 3091
18.6925, 3089
18.695, 3087
18.6975, 3104
18.7, 3088
18.7025, 3086
18.705, 3087
18.7075, 3090
18.71, 3090
18.7125, 3091
18.715, 3110
18.7175, 3097
18.72, 3096
18.7225, 3099
18.725, 3102
18.7275, 3102
18.73, 3102
18.7325, 3117
18.735, 3097
18.7375, 3095
18.74, 3089
18.7425, 3090
18.745, 3086
18.7475, 3085
18.75, 3102
18.7525, 3086
18.755, 3083
18.7575, 3083
18.76, 3088
18.7625, 3088
18.765, 3086
18.7675, 3106
18.77, 3089
18.7725, 3088
18.775, 3086
18.7775, 3089
18.78, 3087
18.7825, 3087
18.785, 3091
18.7875, 3087
18.79, 3087
18.7925, 3086
18.795, 3089
18.7975, 3088
18.8, 3087
18.8025, 3106
18.805, 3088
18.8075, 3087
18.81, 3086
18.8125, 3090
18.815, 3088
18.8175, 3087
18.82, 3105
18.8225, 3088
18.825, 3088
18.8275, 3087
18.83, 3091
18.8325, 3088
18.835, 3087
18.8375, 3093
18.84, 3088
18.8425, 3087
18.845, 3087
18.8475, 3090
18.85, 3089
18.8525, 3087
18.855, 3106
18.8575, 3089
18.86, 3088
18.8625, 3087
18.865, 3091
18.8675, 3088
18.87, 3088
18.8725, 3107
18.875, 3090
18.8775, 3088
18.88, 3089
18.8825, 3091
18.885, 3090
18.8875, 3089
18.89, 3108
18.8925, 3090
18.895, 3088
18.8975, 3089
18.9, 3089
18.9025, 3088
18.905, 3087
18.9075, 3107
18.91, 3090
18.9125, 3089
18.915, 3089
18.9175, 3092
18.92, 3089
18.9225, 3090
18.925, 3108
18.9275, 3091
18.93, 3089
18.9325, 3089
18.935, 3092
18.9375, 3090
18.94, 3090
18.9425, 3109
18.945, 3091
18.9475, 3090
18.95, 3090
18.9525, 3092
18.955, 3090
18.9575, 3090
18.96, 3093
18.9625, 3090
18.965, 3088
18.9675, 3088
18.97, 3091
18.9725, 3089
18.975, 3088
18.9775, 3106
18.98, 3090
18.9825, 3087
18.985, 3086
18.9875, 3090
18.99, 3088
18.9925, 3087
18.995, 3106
18.9975, 3089
19.0, 3088
19.0025, 3087
19.005, 3090
19.0075, 3088
19.01, 3087
19.0125, 3091
19.015, 3088
19.0175, 3086
19.02, 3087
19.0225, 3089
19.025, 3088
19.0275, 3087
19.03, 3106
19.0325, 3089
19.035, 3089
19.0375, 3086
19.04, 3091
19.0425, 3087
19.045, 3087
19.0475, 3106
19.05, 3089
19.0525, 3088
19.055, 3087
19.0575, 3090
19.06, 3087
19.0625, 3087
19.065, 3105
19.0675, 3089
19.07, 3087
19.0725, 3087
19.075, 3088
19.0775, 3089
19.08, 3087
19.0825, 3107
19.085, 3090
19.0875, 3089
19.09, 3089
19.0925, 3092
19.095, 3091
19.0975, 3090
19.1, 3110
19.1025, 3092
19.105, 3092
19.1075, 3091
19.11, 3093
19.1125, 3091
19.115, 3090
19.1175, 3109
19.12, 3092
19.1225, 3091
19.125, 3089
19.1275, 3093
19.13, 3091
19.1325, 3090
19.135, 3095
19.1375, 3090
19.14, 3090
19.1425, 3089
19.145, 3092
19.1475, 3090
19.15, 3089
19.1525, 3108
19.155, 3092
19.1575, 3090
19.16, 3090
19.1625, 3093
19.165, 3090
19.1675, 3090
19.17, 3110
19.1725, 3092
19.175, 3090
19.1775, 3090
19.18, 3093
19.1825, 3090
19.185, 3091
19.1875, 3110
19.19, 3092
19.1925, 3090
19.195, 3090
19.1975, 3092
19.2, 3090
19.2025, 3088
19.205, 3108
19.2075, 3091
19.21, 3089
19.2125, 3089
19.215, 3093
19.2175, 3091
19.22, 3089
19.2225, 3110
19.225, 3091
19.2275, 3090
19.23, 3089
19.2325, 3093
19.235, 3091
19.2375, 3090
19.24, 3109
19.2425, 3091
19.245, 3090
19.2475, 3088
19.25, 3090
19.2525, 3089
19.255, 3088
19.2575, 3108
19.26, 3090
19.2625, 3089
19.265, 3088
19.2675, 3093
19.27, 3089
19.2725, 3089
19.275, 3109
19.2775, 3090
19.28, 3088
19.2825, 3089
19.285, 3092
19.2875, 3089
19.29, 3088
19.2925, 3108
19.295, 3090
19.2975, 3089
19.3, 3088
19.3025, 3092
19.305, 3090
19.3075, 3088
19.31, 3094
19.3125, 3089
19.315, 3088
19.3175, 3088
19.32, 3090
19.3225, 3088
19.325, 3088
19.3275, 3109
19.33, 3091
19.3325, 3088
19.335, 3089
19.3375, 3092
19.34, 3090
19.3425, 3088
19.345, 3109
19.3475, 3090
19.35, 3090
19.3525, 3089
19.355, 3092
19.3575, 3090
19.36, 3089
19.3625, 3092
19.365, 3089
19.3675, 3089
19.37, 3089
19.3725, 3092
19.375, 3090
19.3775, 3090
19.38, 3110
19.3825, 3092
19.385, 3090
19.3875, 3090
19.39, 3092
19.3925, 3090
19.395, 3088
19.3975, 3108
19.4, 3091
19.4025, 3090
19.405, 3091
19.4075, 3096
19.41, 3096
19.4125, 3099
19.415, 3119
19.4175, 3103
19.42, 3104
19.4225, 3104
19.425, 3105
19.4275, 3102
19.43, 3097
19.4325, 3114
19.435, 3094
19.4375, 3088
19.44, 3087
19.4425, 3090
19.445, 3088
19.4475, 3086
19.45, 3106
19.4525, 3089
19.455, 3088
19.4575, 3087
19.46, 3091
19.4625, 3090
19.465, 3089
19.4675, 3108
19.47, 3091
19.4725, 3089
19.475, 3088
19.4775, 3091
19.48, 3089
19.4825, 3089
19.485, 3094
19.4875, 3090
19.49, 3089
19.4925, 3087
19.495, 3092
19.4975, 3090
19.5, 3089
19.5025, 3108
19.505, 3090
19.5075, 3089
19.51, 3088
19.5125, 3092
19.515, 3089
19.5175, 3089
19.52, 3108
19.5225, 3090
19.525, 3089
19.5275, 3089
19.53, 3091
19.5325, 3090
19.535, 3088
19.5375, 3092
19.54, 3089
19.5425, 3089
19.545, 3088
19.5475, 3091
19.55, 3090
19.5525, 3088
19.555, 3108
19.5575, 3090
19.56, 3089
19.5625, 3088
19.565, 3093
19.5675, 3091
19.57, 3090
19.5725, 3109
19.575, 3090
19.5775, 3089
19.58, 3088
19.5825, 3092
19.585, 3090
19.5875, 3090
19.59, 3108
19.5925, 3090
19.595, 3089
19.5975, 3088
19.6, 3090
19.6025, 3088
19.605, 3088
19.6075, 3108
19.61, 3089
19.6125, 3089
19.615, 3088
19.6175, 3091
19.62, 3089
19.6225, 3088
19.625, 3109
19.6275, 3091
19.63, 3089
19.6325, 3089
19.635, 3092
19.6375, 3089
19.64, 3089
19.6425, 3108
19.645, 3091
19.6475, 3090
19.65, 3089
19.6525, 3092
19.655, 3090
19.6575, 3087
19.66, 3092
19.6625, 3089
19.665, 3087
19.6675, 3085
19.67, 3088
19.6725, 3087
19.675, 3086
19.6775, 3107
19.68, 3088
19.6825, 3087
19.685, 3085
19.6875, 3089
19.69, 3086
19.6925, 3086
19.695, 3106
19.6975, 3088
19.7, 3085
19.7025, 3085
19.705, 3088
19.7075, 3087
19.71, 3086
19.7125, 3089
19.715, 3086
19.7175, 3085
19.72, 3084
19.7225, 3087
19.725, 3085
19.7275, 3086
19.73, 3106
19.7325, 3088
19.735, 3086
19.7375, 3086
19.74, 3089
19.7425, 3087
19.745, 3085
19.7475, 3106
19.75, 3087
19.7525, 3086
19.755, 3085
19.7575, 3088
19.76, 3087
19.7625, 3086
19.765, 3106
19.7675, 3087
19.77, 3087
19.7725, 3085
19.775, 3087
19.7775, 3085
19.78, 3086
19.7825, 3105
19.785, 3086
19.7875, 3086
19.79, 3085
19.7925, 3088
19.795, 3088
19.7975, 3085
19.8, 3107
19.8025, 3087
19.805, 3086
19.8075, 3086
19.81, 3090
19.8125, 3087
19.815, 3087
19.8175, 3107
19.82, 3087
19.8225, 3086
19.825, 3086
19.8275, 3089
19.83, 3086
19.8325, 3086
19.835, 3092
19.8375, 3087
19.84, 3085
19.8425, 3085
19.845, 3087
19.8475, 3087
19.85, 3086
19.8525, 3107
19.855, 3087
19.8575, 3087
19.86, 3085
19.8625, 3088
19.865, 3087
19.8675, 3086
19.87, 3107
19.8725, 3087
19.875, 3087
19.8775, 3087
19.88, 3090
19.8825, 3087
19.885, 3086
19.8875, 3106
19.89, 3087
19.8925, 3087
19.895, 3085
19.8975, 3087
19.9, 3085
19.9025, 3085
19.905, 3105
19.9075, 3086
19.91, 3086
19.9125, 3084
19.915, 3088
19.9175, 3086
19.92, 3085
19.9225, 3105
19.925, 3087
19.9275, 3084
19.93, 3085
19.9325, 3088
19.935, 3086
19.9375, 3084
19.94, 3105
19.9425, 3087
19.945, 3086
19.9475, 3084
19.95, 3086
19.9525, 3085
19.955, 3084
19.9575, 3106
19.96, 3087
19.9625, 3086
19.965, 3085
19.9675, 3087
19.97, 3087
19.9725, 3084
19.975, 3106
19.9775, 3086
19.98, 3085
19.9825, 3084
19.985, 3088
19.9875, 3085
19.99, 3085
19.9925, 3106
19.995, 3086
19.9975, 3085
20.0, 3084
20.0025, 3088
20.005, 3085
20.0075, 3085
20.01, 3090
20.0125, 3086
20.015, 3085
20.0175, 3084
20.02, 3088
20.0225, 3085
20.025, 3085
20.0275, 3106
20.03, 3087
20.0325, 3087
20.035, 3084
20.0375, 3089
20.04, 3087
20.0425, 3085
20.045, 3106
20.0475, 3088
20.05, 3086
20.0525, 3086
20.055, 3088
20.0575, 3086
20.06, 3085
20.0625, 3088
20.065, 3085
20.0675, 3084
20.07, 3083
20.0725, 3087
20.075, 3085
20.0775, 3084
20.08, 3105
20.0825, 3086
20.085, 3086
20.0875, 3083
20.09, 3089
20.0925, 3086
20.095, 3086
20.0975, 3105
20.1, 3087
20.1025, 3086
20.105, 3084
20.1075, 3087
20.11, 3086
20.1125, 3084
20.115, 3105
20.1175, 3084
20.12, 3083
20.1225, 3083
20.125, 3084
20.1275, 3083
20.13, 3084
20.1325, 3108
20.135, 3088
20.1375, 3091
20.14, 3091
20.1425, 3098
20.145, 3098
20.1475, 3098
20.15, 3117
20.1525, 3097
20.155, 3090
20.1575, 3089
20.16, 3089
20.1625, 3084
20.165, 3082
20.1675, 3102
20.17, 3083
20.1725, 3082
20.175, 3081
20.1775, 3085
20.18, 3082
20.1825, 3083
20.185, 3087
20.1875, 3083
20.19, 3083
20.1925, 3083
20.195, 3085
20.1975, 3084
20.2, 3083
20.2025, 3104
20.205, 3084
20.2075, 3083
20.21, 3082
20.2125, 3085
20.215, 3084
20.2175, 3083
20.22, 3103
20.2225, 3085
20.225, 3083
20.2275, 3082
20.23, 3087
20.2325, 3086
20.235, 3084
20.2375, 3087
20.24, 3084
20.2425, 3083
20.245, 3083
20.2475, 3085
20.25, 3085
20.2525, 3084
20.255, 3105
20.2575, 3085
20.26, 3084
20.2625, 3084
20.265, 3087
20.2675, 3085
20.27, 3084
20.2725, 3106
20.275, 3087
20.2775, 3085
20.28, 3085
20.2825, 3088
20.285, 3087
20.2875, 3085
20.29, 3106
20.2925, 3087
20.295, 3086
20.2975, 3085
20.3, 3086
20.3025, 3086
20.305, 3084
20.3075, 3106
20.31, 3086
20.3125, 3087
20.315, 3085
20.3175, 3089
20.32, 3086
20.3225, 3086
20.325, 3107
20.3275, 3088
20.33, 3087
20.3325, 3086
20.335, 3089
20.3375, 3087
20.34, 3085
20.3425, 3107
20.345, 3089
20.3475, 3088
20.35, 3087
20.3525, 3091
20.355, 3088
20.3575, 3088
20.36, 3093
20.3625, 3088
20.365, 3086
20.3675, 3086
20.37, 3089
20.3725, 3087
20.375, 3086
20.3775, 3108
20.38, 3089
20.3825, 3087
20.385, 3086
20.3875, 3089
20.39, 3088
20.3925, 3085
20.395, 3107
20.3975, 3088
20.4, 3086
20.4025, 3085
20.405, 3088
20.4075, 3087
20.41, 3085
20.4125, 3089
20.415, 3085
20.4175, 3084
20.42, 3085
20.4225, 3087
20.425, 3086
20.4275, 3084
20.43, 3107
20.4325, 3087
20.435, 3085
20.4375, 3083
20.44, 3088
20.4425, 3085
20.445, 3085
20.4475, 3107
20.45, 3087
20.4525, 3085
20.455, 3085
20.4575, 3088
20.46, 3085
20.4625, 3085
20.465, 3106
20.4675, 3087
20.47, 3085
20.4725, 3085
20.475, 3087
20.4775, 3086
20.48, 3085
20.4825, 3106
20.485, 3087
20.4875, 3086
20.49, 3085
20.4925, 3088
20.495, 3087
20.4975, 3087
20.5, 3107
20.5025, 3088
20.505, 3086
20.5075, 3086
20.51, 3089
20.5125, 3087
20.515, 3086
20.5175, 3107
20.52, 3087
20.5225, 3087
20.525, 3085
20.5275, 3088
20.53, 3087
20.5325, 3086
20.535, 3090
20.5375, 3086
20.54, 3085
20.5425, 3086
20.545, 3088
20.5475, 3085
20.55, 3086
20.5525, 3107
20.555, 3087
20.5575, 3085
20.56, 3085
20.5625, 3090
20.565, 3087
20.5675, 3085
20.57, 3108
20.5725, 3087
20.575, 3086
20.5775, 3085
20.58, 3090
20.5825, 3087
20.585, 3086
20.5875, 3090
20.59, 3087
20.5925, 3085
20.595, 3085
20.5975, 3087
20.6, 3086
20.6025, 3084
20.605, 3108
20.6075, 3088
20.61, 3086
20.6125, 3085
20.615, 3088
20.6175, 3086
20.62, 3086
20.6225, 3108
20.625, 3088
20.6275, 3087
20.63, 3085
20.6325, 3089
20.635, 3087
20.6375, 3086
20.64, 3107
20.6425, 3088
20.645, 3086
20.6475, 3087
20.65, 3088
20.6525, 3087
20.655, 3085
20.6575, 3107
20.66, 3088
20.6625, 3087
20.665, 3085
20.6675, 3090
20.67, 3087
20.6725, 3087
20.675, 3108
20.6775, 3088
20.68, 3086
20.6825, 3086
20.685, 3090
20.6875, 3087
20.69, 3086
20.6925, 3109
20.695, 3089
20.6975, 3087
20.7, 3087
20.7025, 3088
20.705, 3087
20.7075, 3086
20.71, 3109
20.7125, 3087
20.715, 3087
20.7175, 3087
20.72, 3089
20.7225, 3088
20.725, 3087
20.7275, 3109
20.73, 3089
20.7325, 3087
20.735, 3087
20.7375, 3091
20.74, 3088
20.7425, 3087
20.745, 3110
20.7475, 3090
20.75, 3089
20.7525, 3087
20.755, 3091
20.7575, 3089
20.76, 3088
20.7625, 3093
20.765, 3088
20.7675, 3087
20.77, 3086
20.7725, 3089
20.775, 3088
20.7775, 3088
20.78, 3110
20.7825, 3089
20.785, 3086
20.7875, 3086
20.79, 3090
20.7925, 3088
20.795, 3087
20.7975, 3109
20.8, 3088
20.8025, 3087
20.805, 3086
20.8075, 3090
20.81, 3089
20.8125, 3088
20.815, 3109
20.8175, 3090
20.82, 3088
20.8225, 3088
20.825, 3088
20.8275, 3088
20.83, 3085
20.8325, 3110
20.835, 3087
20.8375, 3086
20.84, 3086
20.8425, 3089
20.845, 3086
20.8475, 3085
20.85, 3108
20.8525, 3088
20.855, 3089
20.8575, 3088
20.86, 3094
20.8625, 3094
20.865, 3095
20.8675, 3119
20.87, 3101
20.8725, 3101
20.875, 3099
20.8775, 3102
20.88, 3096
20.8825, 3091
20.885, 3095
20.8875, 3087
20.89, 3085
20.8925, 3082
20.895, 3086
20.8975, 3084
20.9, 3084
20.9025, 3107
20.905, 3087
20.9075, 3086
20.91, 3086
20.9125, 3090
20.915, 3087
20.9175, 3086
20.92, 3109
20.9225, 3090
20.925, 3087
20.9275, 3086
20.93, 3090
20.9325, 3089
20.935, 3087
20.9375, 3091
20.94, 3087
20.9425, 3087
20.945, 3086
20.9475, 3088
20.95, 3088
20.9525, 3087
20.955, 3109
20.9575, 3089
20.96, 3087
20.9625, 3087
20.965, 3090
20.9675, 3088
20.97, 3087
20.9725, 3110
20.975, 3089
20.9775, 3089
20.98, 3087
20.9825, 3090
20.985, 3088
20.9875, 3088
20.99, 3110
20.9925, 3089
20.995, 3088
20.9975, 3087
21.0, 3089
21.0025, 3087
21.005, 3086
21.0075, 3109
21.01, 3089
21.0125, 3087
21.015, 3087
21.0175, 3091
21.02, 3089
21.0225, 3088
21.025, 3111
21.0275, 3089
21.03, 3089
21.0325, 3087
21.035, 3091
21.0375, 3089
21.04, 3088
21.0425, 3112
21.045, 3091
21.0475, 3088
21.05, 3089
21.0525, 3091
21.055, 3091
21.0575, 3089
21.06, 3094
21.0625, 3089
21.065, 3088
21.0675, 3088
21.07, 3090
21.0725, 3090
21.075, 3088
21.0775, 3110
21.08, 3089
21.0825, 3089
21.085, 3088
21.0875, 3092
21.09, 3090
21.0925, 3089
21.095, 3111
21.0975, 3091
21.1, 3089
21.1025, 3088
21.105, 3091
21.1075, 3089
21.11, 3087
21.1125, 3111
21.115, 3090
21.1175, 3089
21.12, 3087
21.1225, 3090
21.125, 3087
21.1275, 3087
21.13, 3109
21.1325, 3089
21.135, 3087
21.1375, 3086
21.14, 3089
21.1425, 3086
21.145, 3086
21.1475, 3109
21.15, 3087
21.1525, 3087
21.155, 3086
21.1575, 3090
21.16, 3087
21.1625, 3086
21.165, 3109
21.1675, 3087
21.17, 3088
21.1725, 3086
21.175, 3089
21.1775, 3087
21.18, 3087
21.1825, 3090
21.185, 3088
21.1875, 3086
21.19, 3085
21.1925, 3090
21.195, 3088
21.1975, 3087
21.2, 3109
21.2025, 3089
21.205, 3089
21.2075, 3086
21.21, 3090
21.2125, 3088
21.215, 3087
21.2175, 3110
21.22, 3089
21.2225, 3088
21.225, 3086
21.2275, 3090
21.23, 3088
21.2325, 3087
21.235, 3090
21.2375, 3087
21.24, 3085
21.2425, 3087
21.245, 3088
21.2475, 3088
21.25, 3086
21.2525, 3110
21.255, 3088
21.2575, 3088
21.26, 3087
21.2625, 3091
21.265, 3088
21.2675, 3087
21.27, 3112
21.2725, 3089
21.275, 3088
21.2775, 3087
21.28, 3091
21.2825, 3090
21.285, 3087
21.2875, 3111
21.29, 3089
21.2925, 3088
21.295, 3086
21.2975, 3087
21.3, 3087
21.3025, 3086
21.305, 3110
21.3075, 3088
21.31, 3087
21.3125, 3086
21.315, 3090
21.3175, 3087
21.32, 3088
21.3225, 3110
21.325, 3089
21.3275, 3087
21.33, 3086
21.3325, 3090
21.335, 3088
21.3375, 3087
21.34, 3111
21.3425, 3089
21.345, 3088
21.3475, 3087
21.35, 3091
21.3525, 3089
21.355, 3088
21.3575, 3093
21.36, 3090
21.3625, 3088
21.365, 3088
21.3675, 3089
21.37, 3088
21.3725, 3087
21.375, 3111
21.3775, 3089
21.38, 3089
21.3825, 3087
21.385, 3091
21.3875, 3089
21.39, 3087
21.3925, 3112
21.395, 3089
21.3975, 3089
21.4, 3087
21.4025, 3090
21.405, 3089
21.4075, 3088
21.41, 3112
21.4125, 3090
21.415, 3089
21.4175, 3088
21.42, 3089
21.4225, 3089
21.425, 3087
21.4275, 3112
21.43, 3088
21.4325, 3089
21.435, 3088
21.4375, 3092
21.44, 3089
21.4425, 3089
21.445, 3112
21.4475, 3090
21.45, 3087
21.4525, 3087
21.455, 3091
21.4575, 3088
21.46, 3087
21.4625, 3110
21.465, 3090
21.4675, 3087
21.47, 3087
21.4725, 3091
21.475, 3089
21.4775, 3088
21.48, 3094
21.4825, 3089
21.485, 3088
21.4875, 3087
21.49, 3090
21.4925, 3089
21.495, 3087
21.4975, 3112
21.5, 3090
21.5025, 3089
21.505, 3087
21.5075, 3092
21.51, 3089
21.5125, 3087
21.515, 3112
21.5175, 3090
21.52, 3088
21.5225, 3087
21.525, 3090
21.5275, 3088
21.53, 3087
21.5325, 3110
21.535, 3089
21.5375, 3088
21.54, 3087
21.5425, 3088
21.545, 3087
21.5475, 3086
21.55, 3110
21.5525, 3088
21.555, 3087
21.5575, 3086
21.56, 3090
21.5625, 3089
21.565, 3086
21.5675, 3111
21.57, 3089
21.5725, 3087
21.575, 3086
21.5775, 3090
21.58, 3087
21.5825, 3086
21.585, 3109
21.5875, 3088
21.59, 3086
21.5925, 3087
21.595, 3089
21.5975, 3091
21.6, 3091
21.6025, 3118
21.605, 3096
21.6075, 3098
21.61, 3100
21.6125, 3102
21.615, 3099
21.6175, 3094
21.62, 3115
21.6225, 3091
21.625, 3087
21.6275, 3084
21.63, 3088
21.6325, 3084
21.635, 3084
21.6375, 3107
21.64, 3087
21.6425, 3084
21.645, 3085
21.6475, 3089
21.65, 3088
21.6525, 3086
21.655, 3092
21.6575, 3087
21.66, 3085
21.6625, 3085
21.665, 3089
21.6675, 3086
21.67, 3086
21.6725, 3110
21.675, 3088
21.6775, 3087
21.68, 3086
21.6825, 3088
21.685, 3087
21.6875, 3086
21.69, 3110
21.6925, 3088
21.695, 3087
21.6975, 3085
21.7, 3089
21.7025, 3086
21.705, 3086
21.7075, 3090
21.71, 3086
21.7125, 3087
21.715, 3086
21.7175, 3088
21.72, 3086
21.7225, 3086
21.725, 3111
21.7275, 3088
21.73, 3086
21.7325, 3087
21.735, 3090
21.7375, 3089
21.74, 3087
21.7425, 3112
21.745, 3089
21.7475, 3088
21.75, 3087
21.7525, 3090
21.755, 3088
21.7575, 3087
21.76, 3111
21.7625, 3088
21.765, 3088
21.7675, 3087
21.77, 3088
21.7725, 3088
21.775, 3087
21.7775, 3111
21.78, 3089
21.7825, 3088
21.785, 3088
21.7875, 3091
21.79, 3090
21.7925, 3088
21.795, 3112
21.7975, 3090
21.8, 3089
21.8025, 3088
21.805, 3091
21.8075, 3091
21.81, 3088
21.8125, 3112
21.815, 3090
21.8175, 3089
21.82, 3088
21.8225, 3092
21.825, 3090
21.8275, 3088
21.83, 3094
21.8325, 3089
21.835, 3088
21.8375, 3087
21.84, 3089
21.8425, 3088
21.845, 3086
21.8475, 3110
21.85, 3088
21.8525, 3087
21.855, 3086
21.8575, 3089
21.86, 3086
21.8625, 3087
21.865, 3111
21.8675, 3087
21.87, 3084
21.8725, 3085
21.875, 3088
21.8775, 3087
21.88, 3086
21.8825, 3110
21.885, 3087
21.8875, 3085
21.89, 3085
21.8925, 3088
21.895, 3087
21.8975, 3086
21.9, 3110
21.9025, 3088
21.905, 3085
21.9075, 3086
21.91, 3088
21.9125, 3086
21.915, 3085
21.9175, 3110
21.92, 3086
21.9225, 3084
21.925, 3084
21.9275, 3088
21.93, 3086
21.9325, 3085
21.935, 3111
21.9375, 3087
21.94, 3087
21.9425, 3085
21.945, 3089
21.9475, 3087
21.95, 3086
21.9525, 3090
21.955, 3086
21.9575, 3086
21.96, 3086
21.9625, 3088
21.965, 3087
21.9675, 3087
21.97, 3111
21.9725, 3087
21.975, 3087
21.9775, 3086
21.98, 3090
21.9825, 3088
21.985, 3087
21.9875, 3111
21.99, 3087
21.9925, 3086
21.995, 3085
21.9975, 3089
22.0, 3087
22.0025, 3085
22.005, 3090
22.0075, 3088
22.01, 3085
22.0125, 3085
22.015, 3087
22.0175, 3088
22.02, 3086
22.0225, 3111
22.025, 3088
22.0275, 3088
22.03, 3086
22.0325, 3089
22.035, 3087
22.0375, 3086
22.04, 3112
22.0425, 3089
22.045, 3086
22.0475, 3086
22.05, 3090
22.0525, 3088
22.055, 3086
22.0575, 3112
22.06, 3089
22.0625, 3088
22.065, 3086
22.0675, 3088
22.07, 3086
22.0725, 3086
22.075, 3111
22.0775, 3089
22.08, 3087
22.0825, 3086
22.085, 3089
22.0875, 3087
22.09, 3086
22.0925, 3113
22.095, 3090
22.0975, 3087
22.1, 3087
22.1025, 3090
22.105, 3089
22.1075, 3086
22.11, 3113
22.1125, 3089
22.115, 3088
22.1175, 3086
22.12, 3088
22.1225, 3087
22.125, 3087
22.1275, 3112
22.13, 3089
22.1325, 3088
22.135, 3088
22.1375, 3091
22.14, 3089
22.1425, 3087
22.145, 3114
22.1475, 3089
22.15, 3088
22.1525, 3087
22.155, 3090
22.1575, 3089
22.16, 3087
22.1625, 3112
22.165, 3090
22.1675, 3089
22.17, 3086
22.1725, 3091
22.175, 3088
22.1775, 3088
22.18, 3092
22.1825, 3087
22.185, 3087
22.1875, 3087
22.19, 3089
22.1925, 3088
22.195, 3087
22.1975, 3113
22.2, 3088
22.2025, 3088
22.205, 3088
22.2075, 3091
22.21, 3089
22.2125, 3089
22.215, 3113
22.2175, 3090
22.22, 3089
22.2225, 3088
22.225, 3091
22.2275, 3089
22.23, 3088
22.2325, 3114
22.235, 3090
22.2375, 3088
22.24, 3088
22.2425, 3089
22.245, 3088
22.2475, 3087
22.25, 3113
22.2525, 3089
22.255, 3089
22.2575, 3086
22.26, 3090
22.2625, 3088
22.265, 3088
22.2675, 3114
22.27, 3090
22.2725, 3088
22.275, 3088
22.2775, 3091
22.28, 3089
22.2825, 3087
22.285, 3114
22.2875, 3090
22.29, 3089
22.2925, 3087
22.295, 3090
22.2975, 3089
22.3, 3088
22.3025, 3113
22.305, 3089
22.3075, 3088
22.31, 3087
22.3125, 3092
22.315, 3088
22.3175, 3086
22.32, 3110
22.3225, 3087
22.325, 3087
22.3275, 3087
22.33, 3090
22.3325, 3090
22.335, 3090
22.3375, 3119
22.34, 3096
22.3425, 3097
22.345, 3097
22.3475, 3104
22.35, 3101
22.3525, 3100
22.355, 3102
22.3575, 3093
22.36, 3090
22.3625, 3088
22.365, 3088
22.3675, 3087
22.37, 3085
22.3725, 3111
22.375, 3086
22.3775, 3087
22.38, 3086
22.3825, 3089
22.385, 3089
22.3875, 3088
22.39, 3114
22.3925, 3090
22.395, 3089
22.3975, 3087
22.4, 3092
22.4025, 3088
22.405, 3088
22.4075, 3092
22.41, 3089
22.4125, 3087
22.415, 3087
22.4175, 3089
22.42, 3089
22.4225, 3087
22.425, 3114
22.4275, 3090
22.43, 3089
22.4325, 3088
22.435, 3092
22.4375, 3090
22.44, 3089
22.4425, 3113
22.445, 3092
22.4475, 3089
22.45, 3089
22.4525, 3093
22.455, 3090
22.4575, 3089
22.46, 3115
22.4625, 3091
22.465, 3088
22.4675, 3089
22.47, 3089
22.4725, 3090
22.475, 3087
22.4775, 3115
22.48, 3090
22.4825, 3089
22.485, 3089
22.4875, 3091
22.49, 3089
22.4925, 3089
22.495, 3115
22.4975, 3091
22.5, 3090
22.5025, 3089
22.505, 3093
22.5075, 3091
22.51, 3090
22.5125, 3116
22.515, 3092
22.5175, 3091
22.52, 3088
22.5225, 3091
22.525, 3089
22.5275, 3090
22.53, 3115
22.5325, 3090
22.535, 3089
22.5375, 3089
22.54, 3092
22.5425, 3089
22.545, 3089
22.5475, 3115
22.55, 3090
22.5525, 3089
22.555, 3089
22.5575, 3092
22.56, 3091
22.5625, 3089
22.565, 3117
22.5675, 3091
22.57, 3089
22.5725, 3088
22.575, 3092
22.5775, 3090
22.58, 3089
22.5825, 3094
22.585, 3089
22.5875, 3088
22.59, 3089
22.5925, 3090
22.595, 3089
22.5975, 3088
22.6, 3116
22.6025, 3089
22.605, 3089
22.6075, 3087
22.61, 3091
22.6125, 3088
22.615, 3087
22.6175, 3114
22.62, 3089
22.6225, 3088
22.625, 3088
22.6275, 3091
22.63, 3087
22.6325, 3086
22.635, 3091
22.6375, 3087
22.64, 3086
22.6425, 3086
22.645, 3089
22.6475, 3087
22.65, 3085
22.6525, 3113
22.655, 3088
22.6575, 3087
22.66, 3086
22.6625, 3089
22.665, 3088
22.6675, 3087
22.67, 3114
22.6725, 3089
22.675, 3088
22.6775, 3088
22.68, 3090
22.6825, 3089
22.685, 3088
22.6875, 3115
22.69, 3089
22.6925, 3088
22.695, 3087
22.6975, 3089
22.7, 3088
22.7025, 3087
22.705, 3115
22.7075, 3088
22.71, 3088
22.7125, 3086
22.715, 3091
22.7175, 3088
22.72, 3089
22.7225, 3114
22.725, 3090
22.7275, 3089
22.73, 3087
22.7325, 3091
22.735, 3089
22.7375, 3088
22.74, 3115
22.7425, 3091
22.745, 3089
22.7475, 3089
22.75, 3090
22.7525, 3088
22.755, 3089
22.7575, 3114
22.76, 3089
22.7625, 3087
22.765, 3087
22.7675, 3092
22.77, 3089
22.7725, 3087
22.775, 3115
22.7775, 3090
22.78, 3088
22.7825, 3087
22.785, 3090
22.7875, 3087
22.79, 3087
22.7925, 3115
22.795, 3090
22.7975, 3090
22.8, 3087
22.8025, 3092
22.805, 3088
22.8075, 3087
22.81, 3091
22.8125, 3088
22.815, 3087
22.8175, 3087
22.82, 3090
22.8225, 3089
22.825, 3088
22.8275, 3115
22.83, 3090
22.8325, 3089
22.835, 3087
22.8375, 3091
22.84, 3088
22.8425, 3087
22.845, 3114
22.8475, 3089
22.85, 3086
22.8525, 3086
22.855, 3090
22.8575, 3088
22.86, 3088
22.8625, 3115
22.865, 3089
22.8675, 3087
22.87, 3087
22.8725, 3088
22.875, 3088
22.8775, 3087
22.88, 3115
22.8825, 3088
22.885, 3086
22.8875, 3087
22.89, 3089
22.8925, 3088
22.895, 3087
22.8975, 3115
22.9, 3089
22.9025, 3088
22.905, 3087
22.9075, 3090
22.91, 3089
22.9125, 3086
22.915, 3115
22.9175, 3089
22.92, 3088
22.9225, 3086
22.925, 3090
22.9275, 3088
22.93, 3086
22.9325, 3092
22.935, 3088
22.9375, 3087
22.94, 3086
22.9425, 3090
22.945, 3087
22.9475, 3087
22.95, 3115
22.9525, 3089
22.955, 3087
22.9575, 3087
22.96, 3090
22.9625, 3088
22.965, 3088
22.9675, 3116
22.97, 3090
22.9725, 3089
22.975, 3088
22.9775, 3090
22.98, 3088
22.9825, 3088
22.985, 3091
22.9875, 3088
22.99, 3085
22.9925, 3087
22.995, 3089
22.9975, 3089
23.0, 3086
23.0025, 3114
23.005, 3089
23.0075, 3087
23.01, 3085
23.0125, 3089
23.015, 3087
23.0175, 3086
23.02, 3114
23.0225, 3087
23.025, 3086
23.0275, 3085
23.03, 3090
23.0325, 3087
23.035, 3086
23.0375, 3112
23.04, 3086
23.0425, 3086
23.045, 3085
23.0475, 3087
23.05, 3089
23.0525, 3090
23.055, 3122
23.0575, 3096
23.06, 3096
23.0625, 3098
23.065, 3102
23.0675, 3100
23.07, 3096
23.0725, 3121
23.075, 3092
23.0775, 3088
23.08, 3085
23.0825, 3087
23.085, 3085
23.0875, 3082
23.09, 3111
23.0925, 3084
23.095, 3083
23.0975, 3084
23.1, 3086
23.1025, 3087
23.105, 3087
23.1075, 3093
23.11, 3088
23.1125, 3087
23.115, 3086
23.1175, 3088
23.12, 3087
23.1225, 3085
23.125, 3114
23.1275, 3089
23.13, 3087
23.1325, 3086
23.135, 3090
23.1375, 3087
23.14, 3086
23.1425, 3115
23.145, 3089
23.1475, 3088
23.15, 3086
23.1525, 3090
23.155, 3088
23.1575, 3087
23.16, 3091
23.1625, 3087
23.165, 3085
23.1675, 3085
23.17, 3089
23.1725, 3087
23.175, 3087
23.1775, 3115
23.18, 3089
23.1825, 3087
23.185, 3086
23.1875, 3091
23.19, 3090
23.1925, 3088
23.195, 3118
23.1975, 3089
23.2, 3088
23.2025, 3088
23.205, 3092
23.2075, 3091
23.21, 3089
23.2125, 3118
23.215, 3091
23.2175, 3089
23.22, 3088
23.2225, 3089
23.225, 3089
23.2275, 3087
23.23, 3117
23.2325, 3089
23.235, 3089
23.2375, 3087
23.24, 3089
23.2425, 3089
23.245, 3088
23.2475, 3117
23.25, 3089
23.2525, 3087
23.255, 3087
23.2575, 3091
23.26, 3090
23.2625, 3088
23.265, 3117
23.2675, 3090
23.27, 3088
23.2725, 3088
23.275, 3092
23.2775, 3089
23.28, 3090
23.2825, 3094
23.285, 3089
23.2875, 3089
23.29, 3089
23.2925, 3091
23.295, 3089
23.2975, 3088
23.3, 3115
23.3025, 3090
23.305, 3088
23.3075, 3089
23.31, 3092
23.3125, 3089
23.315, 3088
23.3175, 3117
23.32, 3091
23.3225, 3088
23.325, 3087
23.3275, 3090
23.33, 3089
23.3325, 3086
23.335, 3114
23.3375, 3089
23.34, 3088
23.3425, 3086
23.345, 3089
23.3475, 3088
23.35, 3087
23.3525, 3115
23.355, 3088
23.3575, 3087
23.36, 3086
23.3625, 3091
23.365, 3089
23.3675, 3088
23.37, 3117
23.3725, 3088
23.375, 3088
23.3775, 3087
23.38, 3091
23.3825, 3089
23.385, 3086
23.3875, 3116
23.39, 3089
23.3925, 3088
23.395, 3086
23.3975, 3088
23.4, 3088
23.4025, 3087
23.405, 3115
23.4075, 3088
23.41, 3088
23.4125, 3087
23.415, 3090
23.4175, 3088
23.42, 3087
23.4225, 3118
23.425, 3091
23.4275, 3089
23.43, 3088
23.4325, 3091
23.435, 3089
23.4375, 3088
23.44, 3117
