0.0025, 1780
0.005, 1589
0.0075, 1346
0.01, 1168
0.0125, 1228
0.015, 1372
0.0175, 1208
0.02, 1146
0.0225, 1087
0.025, 882
0.0275, 683
0.03, 473
0.0325, 270
0.035, 98
0.0375, -2
0.04, -2
0.0425, -1
0.045, -2
0.0475, -2
0.05, -2
0.0525, -2
0.055, -2
0.0575, -2
0.06, -1
0.0625, -2
0.065, -2
0.0675, -2
0.07, -2
0.0725, -2
0.075, -2
0.0775, -2
0.08, -2
0.0825, -2
0.085, -2
0.0875, -1
0.09, -2
0.0925, -2
0.095, -2
0.0975, -2
0.1, -2
0.1025, -1
0.105, -2
0.1075, -2
0.11, -2
0.1125, -2
0.115, -2
0.1175, -1
0.12, -1
0.1225, -2
0.125, -2
0.1275, -2
0.13, -2
0.1325, -2
0.135, -1
0.1375, -1
0.14, -2
0.1425, -2
0.145, -2
0.1475, -2
0.15, -2
0.1525, -1
0.155, -2
0.1575, -1
0.16, -2
0.1625, -2
0.165, -1
0.1675, -2
0.17, -2
0.1725, -2
0.175, -2
0.1775, -2
0.18, -2
0.1825, -2
0.185, -2
0.1875, -1
0.19, -2
0.1925, -2
0.195, -1
0.1975, -1
0.2, -2
0.2025, -2
0.205, -2
0.2075, -2
0.21, -2
0.2125, -1
0.215, -2
0.2175, -2
0.22, -1
0.2225, -2
0.225, -2
0.2275, -2
0.23, -1
0.2325, 12
0.235, 528
0.2375, 540
0.24, 474
0.2425, 429
0.245, 346
0.2475, 864
0.25, 1086
0.2525, 1863
0.255, 2321
0.2575, 3034
0.26, 3558
0.2625, 3193
0.265, 2308
0.2675, 3013
0.27, 3594
0.2725, 3142
0.275, 375
0.2775, -2
0.28, -2
0.2825, -2
0.285, -2
0.2875, -2
0.29, -1
0.2925, -2
0.295, -1
0.2975, -2
0.3, -2
0.3025, -2
0.305, -2
0.3075, -1
0.31, -2
0.3125, -2
0.315, -2
0.3175, -2
0.32, -1
0.3225, -2
0.325, -1
0.3275, -2
0.33, -2
0.3325, -2
0.335, -1
0.3375, -2
0.34, -2
0.3425, -1
0.345, -2
0.3475, -2
0.35, -1
0.3525, -1
0.355, -3
0.3575, -2
0.36, -2
0.3625, -2
0.365, -2
0.3675, -1
0.37, -2
0.3725, -2
0.375, 1166
0.3775, 1932
0.38, 4331
0.3825, -2
0.385, -2
0.3875, -2
0.39, -2
0.3925, -2
0.395, -2
0.3975, -1
0.4, -2
0.4025, -2
0.405, -2
0.4075, -2
0.41, -2
0.4125, -2
0.415, -2
0.4175, -2
0.42, -1
0.4225, -2
0.425, -2
0.4275, -1
0.43, -2
0.4325, -2
0.435, -2
0.4375, -2
0.44, -1
0.4425, -2
0.445, -1
0.4475, -2
0.45, -2
0.4525, -2
0.455, -2
0.4575, -2
0.46, -3
0.4625, -2
0.465, -1
0.4675, -2
0.47, -2
0.4725, -2
0.475, -1
0.4775, -2
0.48, -2
0.4825, -2
0.485, -2
0.4875, -2
0.49, -1
0.4925, -2
0.495, -2
0.4975, -1
0.5, -2
0.5025, -2
0.505, -1
0.5075, -1
0.51, -2
0.5125, -2
0.515, -2
0.5175, -1
0.52, -2
0.5225, -1
0.525, -2
0.5275, -2
0.53, -2
0.5325, -2
0.535, -2
0.5375, -2
0.54, -1
0.5425, -1
0.545, -1
0.5475, -2
0.55, -2
0.5525, -1
0.555, -2
0.5575, -1
0.56, -2
0.5625, -2
0.565, -2
0.5675, -2
0.57, -1
0.5725, -2
0.575, -1
0.5775, -2
0.58, -1
0.5825, -2
0.585, -1
0.5875, -2
0.59, -2
0.5925, -2
0.595, -1
0.5975, -2
0.6, -1
0.6025, -1
0.605, -2
0.6075, -2
0.61, -2
0.6125, -1
0.615, -2
0.6175, -2
0.62, -1
0.6225, -2
0.625, -2
0.6275, -2
0.63, -1
0.6325, -2
0.635, -2
0.6375, -2
0.64, -2
0.6425, -2
0.645, -2
0.6475, -2
0.65, -1
0.6525, -2
0.655, -2
0.6575, -2
0.66, -1
0.6625, -1
0.665, -2
0.6675, -1
0.67, -2
0.6725, -2
0.675, -2
0.6775, -1
0.68, -1
0.6825, -2
0.685, -2
0.6875, -2
0.69, -2
0.6925, -2
0.695, -2
0.6975, -2
0.7, -2
0.7025, -2
0.705, -2
0.7075, -1
0.71, 6427
0.7125, 6426
0.715, 6434
0.7175, 6429
0.72, 6427
0.7225, 6624
0.725, 6430
0.7275, 6426
0.73, 6426
0.7325, 6433
0.735, 6427
0.7375, 6428
0.74, 6622
0.7425, 6428
0.745, 6424
0.7475, 6425
0.75, 6431
0.7525, 6428
0.755, 6425
0.7575, 6625
0.76, 6429
0.7625, 6427
0.765, 6425
0.7675, 6434
0.77, 6429
0.7725, 6427
0.775, 6624
0.7775, 6431
0.78, 6429
0.7825, 6427
0.785, 6435
0.7875, 6430
0.79, 6428
0.7925, 6623
0.795, 6432
0.7975, 6428
0.8, 6427
0.8025, 6429
0.805, 6426
0.8075, 6425
0.81, 6622
0.8125, 6427
0.815, 6427
0.8175, 6424
0.82, 6433
0.8225, 6427
0.825, 6427
0.8275, 6621
0.83, 6431
0.8325, 6427
0.835, 6426
0.8375, 6432
0.84, 6429
0.8425, 6427
0.845, 6622
0.8475, 6432
0.85, 6428
0.8525, 6427
0.855, 6435
0.8575, 6430
0.86, 6427
0.8625, 6624
0.865, 6428
0.8675, 6427
0.87, 6425
0.8725, 6433
0.875, 6429
0.8775, 6427
0.88, 6619
0.8825, 6430
0.885, 6426
0.8875, 6426
0.89, 6432
0.8925, 6429
0.895, 6424
0.8975, 6622
0.9, 6430
0.9025, 6428
0.905, 6423
0.9075, 6433
0.91, 6428
0.9125, 6428
0.915, 6622
0.9175, 6429
0.92, 6427
0.9225, 6426
0.925, 6434
0.9275, 6429
0.93, 6428
0.9325, 6622
0.935, 6432
0.9375, 6428
0.94, 6427
0.9425, 6435
0.945, 6429
0.9475, 62
0.95, -2
0.9525, 2343
0.955, 6428
0.9575, -2
0.96, -2
0.9625, -1
0.965, -2
0.9675, -2
0.97, -1
0.9725, -1
0.975, -2
0.9775, -2
0.98, -2
0.9825, -2
0.985, 5782
0.9875, 2690
0.99, 6428
0.9925, 6425
0.995, -2
0.9975, -2
1.0, -2
1.0025, -2
1.005, 6431
1.0075, 6429
1.01, 6427
1.0125, 6435
1.015, 674
1.0175, 483
1.02, 6620
1.0225, 1830
1.025, -2
1.0275, -2
1.03, -2
1.0325, -2
1.035, -2
1.0375, 6620
1.04, -1
1.0425, 6426
1.045, -1
1.0475, -1
1.05, -1
1.0525, -2
1.055, -2
1.0575, -2
1.06, -1
1.0625, -2
1.065, 2098
1.0675, 6430
1.07, 6427
1.0725, 6621
1.075, 6431
1.0775, 6429
1.08, 6425
1.0825, 6434
1.085, 6431
1.0875, 6428
1.09, 3050
1.0925, -2
1.095, -1
1.0975, 6425
1.1, 6434
1.1025, 6429
1.105, 6427
1.1075, 6621
1.11, 6430
1.1125, 6427
1.115, 6425
1.1175, 6433
1.12, 6428
1.1225, 6425
1.125, 1827
1.1275, 5980
1.13, -2
1.1325, -1
1.135, -2
1.1375, -1
1.14, -2
1.1425, -1
1.145, -2
1.1475, -1
1.15, -2
1.1525, -2
1.155, -2
1.1575, -2
1.16, -2
1.1625, -2
1.165, -2
1.1675, -2
1.17, -2
1.1725, -1
1.175, -2
1.1775, -2
1.18, -2
1.1825, -2
1.185, -2
1.1875, -2
1.19, -2
1.1925, -2
1.195, -2
1.1975, -2
1.2, -1
1.2025, -1
1.205, -1
1.2075, -2
1.21, -2
1.2125, -2
1.215, -2
1.2175, -2
1.22, -1
1.2225, -2
1.225, -1
1.2275, -2
1.23, -2
1.2325, -2
1.235, -2
1.2375, -2
1.24, -1
1.2425, 6431
1.245, 6428
1.2475, 6622
1.25, 1207
1.2525, -2
1.255, -2
1.2575, -2
1.26, -2
1.2625, -2
1.265, -2
1.2675, -2
1.27, -1
1.2725, -1
1.275, 6429
1.2775, -2
1.28, -1
1.2825, -2
1.285, -2
1.2875, -2
1.29, -2
1.2925, 5365
1.295, 6429
1.2975, 6426
1.3, 6617
1.3025, -2
1.305, -1
1.3075, -2
1.31, -2
1.3125, -2
1.315, -1
1.3175, -2
1.32, -1
1.3225, -2
1.325, -2
1.3275, -1
1.33, -2
1.3325, -1
1.335, -2
1.3375, -2
1.34, -2
1.3425, -1
1.345, -1
1.3475, -2
1.35, -1
1.3525, -2
1.355, -1
1.3575, -1
1.36, -1
1.3625, -2
1.365, -2
1.3675, -1
1.37, 6619
1.3725, 2092
1.375, 6428
1.3775, 6427
1.38, 6435
1.3825, 6429
1.385, 6428
1.3875, 6619
1.39, 6429
1.3925, 6428
1.395, 6426
1.3975, 6434
1.4, 6430
1.4025, 6428
1.405, 6621
1.4075, 6432
1.41, 6428
1.4125, 6427
1.415, 6436
1.4175, 6430
1.42, 6427
1.4225, 6617
1.425, 5916
1.4275, 6044
1.43, 5948
1.4325, 4066
1.435, 1130
1.4375, 302
1.44, 199
1.4425, 4
1.445, 104
1.4475, -1
1.45, -1
1.4525, -1
1.455, 1415
1.4575, 6615
1.46, 6432
1.4625, 6428
1.465, 6427
1.4675, 6436
1.47, 6431
1.4725, 6429
1.475, 6620
1.4775, 6434
1.48, 6429
1.4825, 6428
1.485, 6435
1.4875, 6431
1.49, 6427
1.4925, 6619
1.495, 6432
1.4975, 6428
1.5, 5867
1.5025, 3198
1.505, -1
1.5075, -1
1.51, -2
1.5125, -1
1.515, -1
1.5175, -2
1.52, 4986
1.5225, 6430
1.525, 6425
1.5275, 6617
1.53, 6430
1.5325, 6429
1.535, 6426
1.5375, 6435
1.54, 6429
1.5425, 5186
1.545, 5409
1.5475, 6432
1.55, 787
1.5525, -1
1.555, -1
1.5575, -2
1.56, -1
1.5625, -2
1.565, -2
1.5675, -2
1.57, -2
1.5725, -2
1.575, 4463
1.5775, 6427
1.58, -2
1.5825, -1
1.585, -2
1.5875, -2
1.59, -1
1.5925, -1
1.595, -2
1.5975, -2
1.6, -2
1.6025, -2
1.605, -2
1.6075, -1
1.61, -2
1.6125, -2
1.615, -2
1.6175, -2
1.62, -2
1.6225, -2
1.625, 6431
1.6275, 6428
1.63, 6426
1.6325, 6618
1.635, 6430
1.6375, 5903
1.64, -2
1.6425, -2
1.645, -2
1.6475, -2
1.65, -2
1.6525, -1
1.655, -1
1.6575, -1
1.66, -1
1.6625, -2
1.665, -1
1.6675, -1
1.67, -1
1.6725, -2
1.675, -2
1.6775, -2
1.68, -1
1.6825, -1
1.685, -2
1.6875, -2
1.69, -2
1.6925, -1
1.695, -2
1.6975, -1
1.7, -2
1.7025, -2
1.705, -1
1.7075, -1
1.71, -2
1.7125, -1
1.715, -1
1.7175, -2
1.72, -2
1.7225, -2
1.725, -2
1.7275, -1
1.73, -1
1.7325, -2
1.735, -1
1.7375, -1
1.74, -1
1.7425, -1
1.745, -1
1.7475, -1
1.75, -2
1.7525, -1
1.755, -2
1.7575, -1
1.76, -2
1.7625, -1
1.765, -1
1.7675, -2
1.77, -1
1.7725, -2
1.775, -2
1.7775, -2
1.78, 169
1.7825, 5088
1.785, 3027
1.7875, 4365
1.79, 6617
1.7925, 6434
1.795, 6430
1.7975, 6428
1.8, 6432
1.8025, 6429
1.805, 6427
1.8075, 6615
1.81, 6430
1.8125, 6427
1.815, 6425
1.8175, 6433
1.82, 6427
1.8225, 6428
1.825, 6613
1.8275, 6432
1.83, 6425
1.8325, 6427
1.835, 6434
1.8375, 6431
1.84, 6427
1.8425, 6616
1.845, 6432
1.8475, 6429
1.85, 6428
1.8525, 6437
1.855, 6432
1.8575, 6429
1.86, 6617
1.8625, 6430
1.865, 6429
1.8675, 6427
1.87, 6436
1.8725, 6430
1.875, 6429
1.8775, 6616
1.88, 6432
1.8825, 6428
1.885, 6428
1.8875, 6435
1.89, 6431
1.8925, 6426
1.895, 6615
1.8975, 6431
1.9, 6429
1.9025, 6424
1.905, 5845
1.9075, -2
1.91, -2
1.9125, -2
1.915, -1
1.9175, -1
1.92, 608
1.9225, 6109
1.925, -1
1.9275, -1
1.93, -2
1.9325, 2692
1.935, 5226
1.9375, 6427
1.94, 6436
1.9425, 6431
1.945, 6429
1.9475, 6616
1.95, 6433
1.9525, 6429
1.955, 6285
1.9575, 2363
1.96, 6135
1.9625, 6429
1.965, 6614
1.9675, 6392
1.97, 1708
1.9725, -2
1.975, -1
1.9775, -1
1.98, -1
1.9825, -2
1.985, -2
1.9875, -1
1.99, -2
1.9925, -2
1.995, -1
1.9975, -2
2.0, -2
2.0025, -1
2.005, -2
2.0075, -2
2.01, -2
2.0125, -1
2.015, -1
2.0175, -2
2.02, -2
2.0225, -1
2.025, -1
2.0275, -1
2.03, -2
2.0325, -2
2.035, -2
2.0375, -2
2.04, -2
2.0425, -1
2.045, -1
2.0475, 988
2.05, 4163
2.0525, 6612
2.055, 6432
2.0575, 6428
2.06, 6427
2.0625, 6435
2.065, 6431
2.0675, 6427
2.07, 6614
2.0725, 6432
2.075, 6430
2.0775, 6427
2.08, 6435
2.0825, 6431
2.085, 6203
2.0875, 5406
2.09, 4579
2.0925, 3571
2.095, 2529
2.0975, 930
2.1, 506
2.1025, 493
2.105, -2
2.1075, -1
2.11, 181
2.1125, 922
2.115, 2518
2.1175, 4874
2.12, 6428
2.1225, 6613
2.125, 6433
2.1275, 6429
2.13, 6426
2.1325, 6436
2.135, 6430
2.1375, 6429
2.14, 6612
2.1425, 6432
2.145, 6427
2.1475, 6427
2.15, 850
2.1525, -1
2.155, -2
2.1575, -1
2.16, -2
2.1625, -2
2.165, -2
2.1675, -1
2.17, -1
2.1725, -1
2.175, -2
2.1775, -2
2.18, -1
2.1825, -2
2.185, -1
2.1875, -2
2.19, -2
2.1925, -2
2.195, -1
2.1975, -2
2.2, -2
2.2025, -2
2.205, -2
2.2075, -2
2.21, -2
2.2125, -1
2.215, -2
2.2175, 6422
2.22, 6434
2.2225, 6426
2.225, 6426
2.2275, 6609
2.23, 6431
2.2325, 6426
2.235, 6426
2.2375, 6432
2.24, 6428
2.2425, 6426
2.245, 6610
2.2475, 6432
2.25, 6427
2.2525, 6426
2.255, 6434
2.2575, 6430
2.26, 6427
2.2625, 6610
2.265, 6431
2.2675, 6428
2.27, 6425
2.2725, 6429
2.275, 6426
2.2775, 6424
2.28, -2
2.2825, -2
2.285, -1
2.2875, -1
2.29, -1
2.2925, -2
2.295, -2
2.2975, -2
2.3, -1
2.3025, -2
2.305, -2
2.3075, -2
2.31, -2
2.3125, -2
2.315, -2
2.3175, -2
2.32, -2
2.3225, -2
2.325, -2
2.3275, -1
2.33, -2
2.3325, -2
2.335, -1
2.3375, -2
2.34, -2
2.3425, -2
2.345, -2
2.3475, -2
2.35, -2
2.3525, -2
2.355, -1
2.3575, -1
2.36, -2
2.3625, -2
2.365, -1
2.3675, -2
2.37, -2
2.3725, -1
2.375, -2
2.3775, -2
2.38, -2
2.3825, -1
2.385, -2
2.3875, -2
2.39, -2
2.3925, -1
2.395, -1
2.3975, -2
2.4, -2
2.4025, -2
2.405, -1
2.4075, -2
2.41, -2
2.4125, -1
2.415, -1
2.4175, -2
2.42, -2
2.4225, -2
2.425, -1
2.4275, -2
2.43, -2
2.4325, -1
2.435, -1
2.4375, -2
2.44, -1
2.4425, -1
2.445, -1
2.4475, -2
2.45, -2
2.4525, -2
2.455, -2
2.4575, -1
2.46, -1
2.4625, -2
2.465, -1
2.4675, -1
2.47, -1
2.4725, -2
2.475, -2
2.4775, -1
2.48, -1
2.4825, -2
2.485, -2
2.4875, -1
2.49, -1
2.4925, -1
2.495, -1
2.4975, -2
2.5, -2
2.5025, -2
2.505, -2
2.5075, -2
2.51, -1
2.5125, -1
2.515, -2
2.5175, 258
2.52, 769
2.5225, 1513
2.525, 2302
2.5275, 2713
2.53, 3161
2.5325, 3639
2.535, 4100
2.5375, 4517
2.54, 4973
2.5425, 5538
2.545, 5782
2.5475, 6391
2.55, 6427
2.5525, 6515
2.555, 6437
2.5575, 6434
2.56, 6613
2.5625, 6444
2.565, 6437
2.5675, 6435
2.57, 6436
2.5725, 6432
2.575, 6430
2.5775, 6613
2.58, 6433
2.5825, 6431
2.585, 6428
2.5875, 6437
2.59, 6432
2.5925, 6430
2.595, 6609
2.5975, 6434
2.6, 6430
2.6025, 6429
2.605, 6429
2.6075, 6428
2.61, 6424
2.6125, 6609
2.615, 6438
2.6175, 6434
2.62, 6429
2.6225, 6439
2.625, 6432
2.6275, 6432
2.63, 6611
2.6325, 6430
2.635, 6431
2.6375, 6428
2.64, 6438
2.6425, 6432
2.645, 6429
2.6475, 6609
2.65, 6434
2.6525, 6429
2.655, 6428
2.6575, 6437
2.66, 6431
2.6625, 6428
2.665, 6610
2.6675, 6433
2.67, 6429
2.6725, 6425
2.675, 6437
2.6775, 6430
2.68, 6429
2.6825, 6607
2.685, 6430
2.6875, 6426
2.69, 6427
2.6925, 6435
2.695, 6431
2.6975, 6427
2.7, 6608
2.7025, 6431
2.705, 6429
2.7075, 6427
2.71, 6436
2.7125, 6431
2.715, 6429
2.7175, 6609
2.72, 6433
2.7225, 6431
2.725, 6429
2.7275, 6438
2.73, 6432
2.7325, 6429
2.735, 6609
2.7375, 6442
2.74, 6434
2.7425, 6432
2.745, 6435
2.7475, 6430
2.75, 6428
2.7525, 6608
2.755, 6431
2.7575, 6430
2.76, 6427
2.7625, 6430
2.765, 6426
2.7675, 6427
2.77, 6607
2.7725, 6441
2.775, 6433
2.7775, 6431
2.78, 6438
2.7825, 6433
2.785, 6432
2.7875, 6609
2.79, 6436
2.7925, 6432
2.795, 6431
2.7975, 6430
2.8, 6430
2.8025, 6428
2.805, 6608
2.8075, 6433
2.81, 6429
2.8125, 6428
2.815, 6436
2.8175, 6431
2.82, 6427
2.8225, 6606
2.825, 6432
2.8275, 6428
2.83, 6429
2.8325, 6434
2.835, 6431
2.8375, 6427
2.84, 6607
2.8425, 6431
2.845, 6430
2.8475, 6426
2.85, 6437
2.8525, 6431
2.855, 6429
2.8575, 6604
2.86, 6434
2.8625, 6431
2.865, 6429
2.8675, 6433
2.87, 6431
2.8725, 6428
2.875, 6606
2.8775, 6434
2.88, 6430
2.8825, 6428
2.885, 6436
2.8875, 6430
2.89, 6429
2.8925, 6605
2.895, 6434
2.8975, 6429
2.9, 6427
2.9025, 6436
2.905, 6430
2.9075, 6429
2.91, 6605
2.9125, 6433
2.915, 6427
2.9175, 6428
2.92, 6431
2.9225, 6430
2.925, 6425
2.9275, 6605
2.93, 6430
2.9325, 6429
2.935, 6428
2.9375, 6437
2.94, 6430
2.9425, 6428
2.945, 6607
2.9475, 6434
2.95, 6429
2.9525, 6428
2.955, 6437
2.9575, 6433
2.96, 6429
2.9625, 6604
2.965, 6434
2.9675, 6429
2.97, 6429
2.9725, 6436
2.975, 6431
2.9775, 6428
2.98, 6605
2.9825, 6428
2.985, 6427
2.9875, 6425
2.99, 6435
2.9925, 6429
2.995, 6429
2.9975, 6603
3.0, 6433
3.0025, 6428
3.005, 6428
3.0075, 6435
3.01, 6431
3.0125, 6428
3.015, 6604
3.0175, 6435
3.02, 6430
3.0225, 6428
3.025, 6520
3.0275, 6438
3.03, 6433
3.0325, 6608
3.035, 6436
3.0375, 6433
3.04, 6431
3.0425, 6434
3.045, 6430
3.0475, 6429
3.05, 6604
3.0525, 6433
3.055, 6429
3.0575, 6427
3.06, 6436
3.0625, 6430
3.065, 6428
3.0675, 6603
3.07, 6433
3.0725, 6430
3.075, 6426
3.0775, 6437
3.08, 6430
3.0825, 6429
3.085, 6603
3.0875, 6433
3.09, 6431
3.0925, 6428
3.095, 6433
3.0975, 6429
3.1, 6428
3.1025, 6603
3.105, 6433
3.1075, 6429
3.11, 6429
3.1125, 6436
3.115, 6432
3.1175, 6429
3.12, 6603
3.1225, 6433
3.125, 6430
3.1275, 6428
3.13, 6437
3.1325, 6431
3.135, 6428
3.1375, 6603
3.14, 6434
3.1425, 6429
3.145, 6429
3.1475, 6435
3.15, 6431
3.1525, 6426
3.155, 6604
3.1575, 6427
3.16, 6429
3.1625, 6427
3.165, 6436
3.1675, 6430
3.17, 6429
3.1725, 6604
3.175, 6433
3.1775, 6430
3.18, 6429
3.1825, 6437
3.185, 6431
3.1875, 6429
3.19, 6604
3.1925, 6433
3.195, 6430
3.1975, 6428
3.2, 6522
3.2025, 6436
3.205, 6432
3.2075, 6607
3.21, 6431
3.2125, 6429
3.215, 6426
3.2175, 6437
3.22, 6431
3.2225, 6430
3.225, 6603
3.2275, 6433
3.23, 6428
3.2325, 6429
3.235, 6436
3.2375, 6433
3.24, 6428
3.2425, 6603
3.245, 6434
3.2475, 6431
3.25, 6429
3.2525, 6437
3.255, 6433
3.2575, 6430
3.26, 6603
3.2625, 6434
3.265, 6431
3.2675, 6429
3.27, 6433
3.2725, 6429
3.275, 6427
3.2775, 6601
3.28, 6431
3.2825, 6429
3.285, 6427
3.2875, 6436
3.29, 6429
3.2925, 6427
3.295, 6602
3.2975, 6432
3.3, 6430
3.3025, 6426
3.305, 6437
3.3075, 6429
3.31, 6429
3.3125, 6601
3.315, 6441
3.3175, 6434
3.32, 6432
3.3225, 6439
3.325, 6434
3.3275, 6431
3.33, 6603
3.3325, 6432
3.335, 6431
3.3375, 6429
3.34, 6437
3.3425, 6432
3.345, 6430
3.3475, 6603
3.35, 6433
3.3525, 6430
3.355, 6428
3.3575, 6437
3.36, 6431
3.3625, 6429
3.365, 6600
3.3675, 6433
3.37, 6428
3.3725, 6429
3.375, 6435
3.3775, 6431
3.38, 6428
3.3825, 6601
3.385, 6440
3.3875, 6433
3.39, 6431
3.3925, 6437
3.395, 6431
3.3975, 6430
3.4, 6600
3.4025, 6433
3.405, 6432
3.4075, 6430
3.41, 6439
3.4125, 6431
3.415, 6430
3.4175, 6603
3.42, 6436
3.4225, 6431
3.425, 6429
3.4275, 6437
3.43, 6433
3.4325, 6429
3.435, 6601
3.4375, 6434
3.44, 6430
3.4425, 6428
3.445, 6436
3.4475, 6430
3.45, 6430
3.4525, 6600
3.455, 6431
3.4575, 6427
3.46, 6428
3.4625, 6434
3.465, 6431
3.4675, 6427
3.47, 6599
3.4725, 6432
3.475, 6430
3.4775, 6429
3.48, 6431
3.4825, 6429
3.485, 6427
3.4875, 6601
3.49, 6440
3.4925, 6435
3.495, 6430
3.4975, 6440
3.5, 6433
3.5025, 6431
3.505, 6601
3.5075, 6434
3.51, 6430
3.5125, 6429
3.515, 6433
3.5175, 6430
3.52, 6428
3.5225, 6598
3.525, 6431
3.5275, 6429
3.53, 6426
3.5325, 6436
3.535, 6429
3.5375, 6429
3.54, 6596
3.5425, 6432
3.545, 6429
3.5475, 6429
3.55, 6436
3.5525, 6431
3.555, 6430
3.5575, 6599
3.56, 6434
3.5625, 6430
3.565, 6429
3.5675, 6350
3.57, 6270
3.5725, 6134
3.575, 6096
3.5775, 5787
3.58, 5582
3.5825, 5434
3.585, 5215
3.5875, 4986
3.59, 4805
3.5925, 4704
3.595, 4551
3.5975, 4331
3.6, 4146
3.6025, 4158
3.605, 3991
3.6075, 3825
3.61, 3887
3.6125, 3862
3.615, 3827
3.6175, 3776
3.62, 3841
3.6225, 3723
3.625, 3642
3.6275, 4008
3.63, 3836
3.6325, 3391
3.635, 3180
3.6375, 3122
3.64, 3054
3.6425, 2940
3.645, 3659
3.6475, 3200
3.65, 2775
3.6525, 2615
3.655, 2733
3.6575, 2687
3.66, 2608
3.6625, 2615
3.665, 2515
3.6675, 2491
3.67, 2444
3.6725, 3290
3.675, 2789
3.6775, 2431
3.68, 2393
3.6825, 2219
3.685, 2137
3.6875, 2092
3.69, 2043
3.6925, 2127
3.695, 2095
3.6975, 2382
3.7, 2896
3.7025, 2593
3.705, 2234
3.7075, 2041
3.71, 3130
3.7125, 3154
3.715, 3000
3.7175, 2238
3.72, 1934
3.7225, 1789
3.725, 2554
3.7275, 2416
3.73, 3471
3.7325, 3380
3.735, 3432
3.7375, 3022
3.74, 2808
3.7425, 2738
3.745, 2764
3.7475, 2674
3.75, 2712
3.7525, 2765
3.755, 2473
3.7575, 2512
3.76, 2367
3.7625, 2388
3.765, 2541
3.7675, 2634
3.77, 3098
3.7725, 2595
3.775, 2323
3.7775, 2285
3.78, 1871
3.7825, 1717
3.785, 1458
3.7875, 1344
3.79, 1314
3.7925, 1219
3.795, 1641
3.7975, 1174
3.8, 905
3.8025, 962
3.805, 959
3.8075, 1015
3.81, 1161
3.8125, 1279
3.815, 1522
3.8175, 2309
3.82, 3188
3.8225, 3078
3.825, 2849
3.8275, 2966
3.83, 3231
3.8325, 3220
3.835, 3344
3.8375, 3463
3.84, 3362
3.8425, 3413
3.845, 3513
3.8475, 3994
3.85, 3451
3.8525, 3406
3.855, 3424
3.8575, 3362
3.86, 3371
3.8625, 3294
3.865, 3371
3.8675, 3431
3.87, 3384
3.8725, 3490
3.875, 3532
3.8775, 3627
3.88, 3412
3.8825, 3454
3.885, 3543
3.8875, 3582
3.89, 4074
3.8925, 5019
3.895, 5633
3.8975, 5307
3.9, 4632
3.9025, 3695
3.905, 2764
3.9075, 2329
3.91, 2254
3.9125, 2572
3.915, 2381
3.9175, 2345
3.92, 3849
3.9225, 3960
3.925, 4662
3.9275, 6427
3.93, 6430
3.9325, 6426
3.935, 6436
3.9375, 6179
3.94, 5516
3.9425, 5921
3.945, 6433
3.9475, 4699
3.95, 3221
3.9525, 2791
3.955, 2744
3.9575, 3170
3.96, 2237
3.9625, 1891
3.965, 2153
3.9675, 2490
3.97, 2207
3.9725, 2310
3.975, 2541
3.9775, 3076
3.98, 3554
3.9825, 2348
3.985, 1048
3.9875, -1
3.99, 10
3.9925, 5
3.995, -1
3.9975, 98
4.0, 2924
4.0025, 3308
4.005, 2789
4.0075, 1498
4.01, 454
4.0125, -2
4.015, -2
4.0175, -1
4.02, -1
4.0225, -2
4.025, -2
4.0275, 95
4.03, 394
4.0325, 655
4.035, 670
4.0375, 1010
4.04, 1777
4.0425, 2018
4.045, 2953
4.0475, 4645
4.05, 5715
4.0525, 6432
4.055, 6430
4.0575, 6437
4.06, 6433
4.0625, 6428
4.065, 6593
4.0675, 6433
4.07, 6430
4.0725, 6427
4.075, 6437
4.0775, 6430
4.08, 6429
4.0825, 6591
4.085, 6434
4.0875, 6429
4.09, 6430
4.0925, 6432
4.095, 6430
4.0975, 6428
4.1, 6593
4.1025, 6434
4.105, 6431
4.1075, 6431
4.11, 6438
4.1125, 6432
4.115, 6429
4.1175, 6593
4.12, 6435
4.1225, 6430
4.125, 6429
4.1275, 6431
4.13, 6428
4.1325, 6428
4.135, 6593
4.1375, 6441
4.14, 6434
4.1425, 6431
4.145, 6437
4.1475, 6433
4.15, 6430
4.1525, 6593
4.155, 6428
4.1575, 6430
4.16, 6426
4.1625, 6437
4.165, 6431
4.1675, 6430
4.17, 6591
4.1725, 6433
4.175, 6431
4.1775, 6429
4.18, 6438
4.1825, 6431
4.185, 6431
4.1875, 6591
4.19, 6436
4.1925, 6431
4.195, 6431
4.1975, 6438
4.2, 6432
4.2025, 6430
4.205, 6592
4.2075, 6434
4.21, 6431
4.2125, 6428
4.215, 6433
4.2175, 6430
4.22, 6427
4.2225, 6589
4.225, 6432
4.2275, 6428
4.23, 6429
4.2325, 6436
4.235, 6432
4.2375, 6428
4.24, 6591
4.2425, 6433
4.245, 6432
4.2475, 6428
4.25, 6439
4.2525, 6431
4.255, 6430
4.2575, 6591
4.26, 6435
4.2625, 6432
4.265, 6430
4.2675, 6438
4.27, 6432
4.2725, 6431
4.275, 6591
4.2775, 6430
4.28, 6430
4.2825, 6428
4.285, 6437
4.2875, 6430
4.29, 6429
4.2925, 6588
4.295, 6434
4.2975, 6429
4.3, 6427
4.3025, 6437
4.305, 6430
4.3075, 6356
4.31, 5946
4.3125, 5271
4.315, 4541
4.3175, 3970
4.32, 3323
4.3225, 2583
4.325, 2029
4.3275, 1624
4.33, 1299
4.3325, 1201
4.335, 1078
4.3375, 934
4.34, 977
4.3425, 1050
4.345, 1324
4.3475, 1499
4.35, 1722
4.3525, 1867
4.355, 2144
4.3575, 2423
4.36, 2682
4.3625, 3012
4.365, 3114
4.3675, 3240
4.37, 3454
4.3725, 3646
4.375, 3750
4.3775, 3827
4.38, 3881
4.3825, 3739
4.385, 3609
4.3875, 3561
4.39, 3467
4.3925, 3294
4.395, 3200
4.3975, 3288
4.4, 3237
4.4025, 3243
4.405, 3400
4.4075, 3649
4.41, 3785
4.4125, 3603
4.415, 3604
4.4175, 3406
4.42, 3263
4.4225, 3046
4.425, 2810
4.4275, 2571
4.43, 2417
4.4325, 2284
4.435, 2048
4.4375, 1851
4.44, 1684
4.4425, 1494
4.445, 1232
4.4475, 990
4.45, 886
4.4525, 807
4.455, 685
4.4575, 546
4.46, 353
4.4625, 195
4.465, 132
4.4675, 138
4.47, 373
4.4725, 455
4.475, 417
4.4775, 346
4.48, 342
4.4825, 345
4.485, 403
4.4875, 459
4.49, 620
4.4925, 625
4.495, 575
4.4975, 476
4.5, 422
4.5025, 689
4.505, 779
4.5075, 856
4.51, 840
4.5125, 722
4.515, 749
4.5175, 755
4.52, 621
4.5225, 532
4.525, 442
4.5275, 371
4.53, 368
4.5325, 314
4.535, 254
4.5375, 143
4.54, 126
4.5425, 118
4.545, 122
4.5475, 177
4.55, 276
4.5525, 537
4.555, 514
4.5575, 466
4.56, 602
4.5625, 782
4.565, 933
4.5675, 911
4.57, 870
4.5725, 833
4.575, 818
4.5775, 847
4.58, 846
4.5825, 805
4.585, 832
4.5875, 912
4.59, 863
4.5925, 782
4.595, 668
4.5975, 636
4.6, 587
4.6025, 486
4.605, 400
4.6075, 432
4.61, 343
4.6125, 238
4.615, 139
4.6175, -2
4.62, -2
4.6225, -2
4.625, -2
4.6275, -1
4.63, -1
4.6325, -2
4.635, -2
4.6375, -1
4.64, -2
4.6425, -2
4.645, -2
4.6475, -1
4.65, -1
4.6525, -1
4.655, -1
4.6575, -2
4.66, -1
4.6625, -1
4.665, -2
4.6675, -1
4.67, -2
4.6725, -1
4.675, -2
4.6775, -2
4.68, -1
4.6825, -1
4.685, -2
4.6875, -1
4.69, -1
4.6925, -1
4.695, -2
4.6975, -1
4.7, -1
4.7025, -1
4.705, -1
4.7075, -1
4.71, -1
4.7125, -2
4.715, -1
4.7175, -1
4.72, -2
4.7225, -2
4.725, -1
4.7275, -1
4.73, -1
4.7325, -1
4.735, -2
4.7375, -1
4.74, -2
4.7425, -1
4.745, -2
4.7475, -2
4.75, -1
4.7525, -1
4.755, -2
4.7575, -1
4.76, -1
4.7625, -2
4.765, -2
4.7675, -1
4.77, -1
4.7725, -2
4.775, -1
4.7775, -2
4.78, -1
4.7825, -1
4.785, -1
4.7875, -2
4.79, -2
4.7925, -1
4.795, -1
4.7975, -1
4.8, -2
4.8025, -1
4.805, -1
4.8075, -1
4.81, -2
4.8125, -2
4.815, -1
4.8175, -2
4.82, -2
4.8225, -2
4.825, -2
4.8275, -2
4.83, -1
4.8325, -1
4.835, -2
4.8375, -1
4.84, -2
4.8425, -1
4.845, -1
4.8475, -1
4.85, -2
4.8525, -2
4.855, -2
4.8575, -2
4.86, -1
4.8625, -1
4.865, -2
4.8675, -1
4.87, -2
4.8725, -1
4.875, -2
4.8775, -2
4.88, -1
4.8825, -1
4.885, -1
4.8875, -2
4.89, -2
4.8925, -1
4.895, -2
4.8975, -2
4.9, 2
4.9025, 79
4.905, 229
4.9075, 378
4.91, 505
4.9125, 665
4.915, 783
4.9175, 1022
4.92, 1209
4.9225, 1513
4.925, 1701
4.9275, 1731
4.93, 1842
4.9325, 1901
4.935, 2040
4.9375, 2094
4.94, 2205
4.9425, 2228
4.945, 2444
4.9475, 2581
4.95, 2760
4.9525, 2940
4.955, 3119
4.9575, 3452
4.96, 3673
4.9625, 3688
4.965, 3751
4.9675, 4383
4.97, 4429
4.9725, 4530
4.975, 4711
4.9775, 4657
4.98, 4755
4.9825, 4941
4.985, 5004
4.9875, 5047
4.99, 5210
4.9925, 5271
4.995, 5132
4.9975, 5136
5.0, 5160
5.0025, 5129
5.005, 5107
5.0075, 5003
5.01, 5046
5.0125, 4856
5.015, 4831
5.0175, 4629
5.02, 4554
5.0225, 4382
5.025, 4180
5.0275, 4226
5.03, 4076
5.0325, 4135
5.035, 4233
5.0375, 4302
5.04, 4048
5.0425, 3616
5.045, 3151
5.0475, 2212
5.05, 2086
5.0525, 1542
5.055, 1221
5.0575, 944
5.06, 690
5.0625, 562
5.065, 651
5.0675, 617
5.07, 519
5.0725, 462
5.075, 445
5.0775, 407
5.08, 511
5.0825, 445
5.085, 471
5.0875, 453
5.09, 392
5.0925, 436
5.095, 628
5.0975, 820
5.1, 813
5.1025, 776
5.105, 718
5.1075, 804
5.11, 929
5.1125, 958
5.115, 1270
5.1175, 1208
5.12, 1213
5.1225, 1122
5.125, 1104
5.1275, 1074
5.13, 913
5.1325, 785
5.135, 685
5.1375, 439
5.14, 136
5.1425, -2
5.145, -1
5.1475, -1
5.15, -2
5.1525, -1
5.155, -1
5.1575, -1
5.16, -2
5.1625, -1
5.165, -2
5.1675, -2
5.17, -1
5.1725, 118
5.175, 454
5.1775, 552
5.18, 785
5.1825, 1095
5.185, 1559
5.1875, 1674
5.19, 2034
5.1925, 2490
5.195, 2459
5.1975, 2311
5.2, 2248
5.2025, 2247
5.205, 2216
5.2075, 2259
5.21, 2248
5.2125, 2314
5.215, 2446
5.2175, 2576
5.22, 2708
5.2225, 2889
5.225, 3081
5.2275, 3120
5.23, 3328
5.2325, 3284
5.235, 3458
5.2375, 3587
5.24, 3506
5.2425, 3555
5.245, 3590
5.2475, 3771
5.25, 3838
5.2525, 3824
5.255, 3782
5.2575, 3631
5.26, 3575
5.2625, 3509
5.265, 3410
5.2675, 3231
5.27, 3125
5.2725, 3134
5.275, 2968
5.2775, 2781
5.28, 2580
5.2825, 2461
5.285, 2266
5.2875, 2119
5.29, 2066
5.2925, 1888
5.295, 1848
5.2975, 1701
5.3, 1554
5.3025, 1423
5.305, 1375
5.3075, 1376
5.31, 1383
5.3125, 1531
5.315, 1635
5.3175, 1742
5.32, 1563
5.3225, 1338
5.325, 1428
5.3275, 1260
5.33, 1079
5.3325, 1125
5.335, 1207
5.3375, 1180
5.34, 1122
5.3425, 1141
5.345, 1151
5.3475, 1142
5.35, 1129
5.3525, 1104
5.355, 1016
5.3575, 1026
5.36, 1057
5.3625, 1044
5.365, 1058
5.3675, 1012
5.37, 1089
5.3725, 1148
5.375, 1236
5.3775, 1305
5.38, 1393
5.3825, 1521
5.385, 1524
5.3875, 1616
5.39, 1724
5.3925, 1919
5.395, 2102
5.3975, 2191
5.4, 2231
5.4025, 2369
5.405, 2442
5.4075, 2600
5.41, 2727
5.4125, 2907
5.415, 2961
5.4175, 3020
5.42, 3059
5.4225, 3153
5.425, 3120
5.4275, 3133
5.43, 3298
5.4325, 3244
5.435, 3242
5.4375, 3281
5.44, 3262
5.4425, 3317
5.445, 3375
5.4475, 3558
5.45, 3596
5.4525, 3596
5.455, 3541
5.4575, 3606
5.46, 3611
5.4625, 3593
5.465, 3744
5.4675, 3764
5.47, 3650
5.4725, 3558
5.475, 3585
5.4775, 3583
5.48, 3496
5.4825, 3524
5.485, 3396
5.4875, 3341
5.49, 3324
5.4925, 3314
5.495, 3274
5.4975, 3206
5.5, 3201
5.5025, 3053
5.505, 2934
5.5075, 2849
5.51, 2896
5.5125, 2891
5.515, 2786
5.5175, 2825
5.52, 2730
5.5225, 2724
5.525, 2789
5.5275, 2770
5.53, 2765
5.5325, 2726
5.535, 2739
5.5375, 2668
5.54, 2602
5.5425, 2622
5.545, 2637
5.5475, 2642
5.55, 2711
5.5525, 2623
5.555, 2513
5.5575, 2468
5.56, 2450
5.5625, 2473
5.565, 2321
5.5675, 2191
5.57, 2106
5.5725, 2021
5.575, 1936
5.5775, 1858
5.58, 1841
5.5825, 1547
5.585, 1529
5.5875, 1495
5.59, 1454
5.5925, 1406
5.595, 1249
5.5975, 1187
5.6, 1086
5.6025, 1085
5.605, 1016
5.6075, 1015
5.61, 988
5.6125, 987
5.615, 1000
5.6175, 1012
5.62, 1049
5.6225, 1066
5.625, 976
5.6275, 981
5.63, 948
5.6325, 964
5.635, 827
5.6375, 819
5.64, 729
5.6425, 775
5.645, 770
5.6475, 798
5.65, 747
5.6525, 659
5.655, 572
5.6575, 669
5.66, 722
5.6625, 719
5.665, 717
5.6675, 698
5.67, 649
5.6725, 795
5.675, 804
5.6775, 770
5.68, 870
5.6825, 913
5.685, 1002
5.6875, 1112
5.69, 1216
5.6925, 1249
5.695, 1236
5.6975, 1252
5.7, 1284
5.7025, 1325
5.705, 1397
5.7075, 1359
5.71, 1410
5.7125, 1491
5.715, 1451
5.7175, 1511
5.72, 1560
5.7225, 1612
5.725, 1627
5.7275, 1701
5.73, 1621
5.7325, 1752
5.735, 1812
5.7375, 2052
5.74, 2252
5.7425, 2195
5.745, 2168
5.7475, 2098
5.75, 1751
5.7525, 1616
5.755, 1624
5.7575, 1617
5.76, 1730
5.7625, 1917
5.765, 1865
5.7675, 1856
5.77, 1912
5.7725, 1977
5.775, 1986
5.7775, 1982
5.78, 2101
5.7825, 2230
5.785, 2206
5.7875, 2309
5.79, 2399
5.7925, 2371
5.795, 2390
5.7975, 2521
5.8, 2587
5.8025, 2596
5.805, 2604
5.8075, 2588
5.81, 2420
5.8125, 2489
5.815, 2487
5.8175, 2477
5.82, 2543
5.8225, 2511
5.825, 2471
5.8275, 2573
5.83, 2529
5.8325, 2662
5.835, 2606
5.8375, 2611
5.84, 2623
5.8425, 2646
5.845, 2706
5.8475, 2679
5.85, 2711
5.8525, 2606
5.855, 2600
5.8575, 2668
5.86, 2615
5.8625, 2819
5.865, 2581
5.8675, 2837
5.87, 2871
5.8725, 3005
5.875, 3034
5.8775, 3073
5.88, 3426
5.8825, 3400
5.885, 3313
5.8875, 3249
5.89, 3148
5.8925, 3175
5.895, 3146
5.8975, 3095
5.9, 3124
5.9025, 3157
5.905, 3102
5.9075, 3394
5.91, 3057
5.9125, 3005
5.915, 3107
5.9175, 3217
5.92, 3504
5.9225, 3388
5.925, 3131
5.9275, 3057
5.93, 3131
5.9325, 2888
5.935, 2878
5.9375, 2834
5.94, 2739
5.9425, 2780
5.945, 2769
5.9475, 2698
5.95, 2768
5.9525, 2741
5.955, 2685
5.9575, 2789
5.96, 2673
5.9625, 2684
5.965, 2799
5.9675, 2901
5.97, 3065
5.9725, 3069
5.975, 3059
5.9775, 2764
5.98, 2705
5.9825, 2692
5.985, 2696
5.9875, 2686
5.99, 2683
5.9925, 2861
5.995, 3238
5.9975, 3298
6.0, 3276
6.0025, 3305
6.005, 3279
6.0075, 3321
6.01, 3300
6.0125, 3216
6.015, 3301
6.0175, 3293
6.02, 3304
6.0225, 3283
6.025, 3334
6.0275, 3156
6.03, 3102
6.0325, 3040
6.035, 3101
6.0375, 3128
6.04, 3268
6.0425, 3325
6.045, 3294
6.0475, 3494
6.05, 3400
6.0525, 3563
6.055, 3360
6.0575, 3466
6.06, 3669
6.0625, 3761
6.065, 3659
6.0675, 3632
6.07, 3840
6.0725, 3673
6.075, 3506
6.0775, 3531
6.08, 3570
6.0825, 3340
6.085, 3314
6.0875, 3382
6.09, 3116
6.0925, 2961
6.095, 2930
6.0975, 2814
6.1, 2803
6.1025, 2998
6.105, 3076
6.1075, 2859
6.11, 3324
6.1125, 2868
6.115, 2573
6.1175, 2583
6.12, 2613
6.1225, 2631
6.125, 2729
6.1275, 2698
6.13, 2667
6.1325, 2730
6.135, 2812
6.1375, 2822
6.14, 2772
6.1425, 2789
6.145, 2912
6.1475, 2991
6.15, 2924
6.1525, 4109
6.155, 3519
6.1575, 3099
6.16, 2915
6.1625, 2698
6.165, 2762
6.1675, 2726
6.17, 2754
6.1725, 2812
6.175, 2895
6.1775, 2965
6.18, 3208
6.1825, 3471
6.185, 3644
6.1875, 3611
6.19, 3534
6.1925, 3441
6.195, 3573
6.1975, 3728
6.2, 3768
6.2025, 3756
6.205, 3984
6.2075, 4126
6.21, 4231
6.2125, 4291
6.215, 4200
6.2175, 4561
6.22, 5587
6.2225, 4478
6.225, 3990
6.2275, 4021
6.23, 4529
6.2325, 4415
6.235, 4316
6.2375, 4128
6.24, 3993
6.2425, 3896
6.245, 3828
6.2475, 3838
6.25, 3647
6.2525, 3697
6.255, 3521
6.2575, 3345
6.26, 3329
6.2625, 3183
6.265, 3047
6.2675, 2903
6.27, 2976
6.2725, 2882
6.275, 2914
6.2775, 2929
6.28, 2946
6.2825, 2913
6.285, 2960
6.2875, 2958
6.29, 3700
6.2925, 3087
6.295, 2816
6.2975, 2761
6.3, 2745
6.3025, 2829
6.305, 2980
6.3075, 2960
6.31, 2980
6.3125, 2997
6.315, 3035
6.3175, 3013
6.32, 3014
6.3225, 2919
6.325, 2786
6.3275, 3010
6.33, 3151
6.3325, 3154
6.335, 3325
6.3375, 3378
6.34, 3457
6.3425, 3435
6.345, 3401
6.3475, 3386
6.35, 3446
6.3525, 3412
6.355, 3393
6.3575, 3348
6.36, 3318
6.3625, 3343
6.365, 3360
6.3675, 3372
6.37, 3382
6.3725, 3454
6.375, 3791
6.3775, 3715
6.38, 3598
6.3825, 3456
6.385, 3373
6.3875, 3367
6.39, 3230
6.3925, 3178
6.395, 3025
6.3975, 3026
6.4, 3035
6.4025, 2927
6.405, 2784
6.4075, 2766
6.41, 2790
6.4125, 2775
6.415, 2817
6.4175, 2936
6.42, 2932
6.4225, 2896
6.425, 2885
6.4275, 2866
6.43, 2803
6.4325, 2790
6.435, 2904
6.4375, 2971
6.44, 2923
6.4425, 2975
6.445, 2994
6.4475, 2930
6.45, 3037
6.4525, 3115
6.455, 3116
6.4575, 3391
6.46, 3403
6.4625, 3416
6.465, 3333
6.4675, 3324
6.47, 3242
6.4725, 3221
6.475, 3647
6.4775, 3622
6.48, 3542
6.4825, 3291
6.485, 3162
6.4875, 3177
6.49, 3032
6.4925, 2904
6.495, 2702
6.4975, 2628
6.5, 2513
6.5025, 2463
6.505, 2138
6.5075, 1989
6.51, 1899
6.5125, 1750
6.515, 2009
6.5175, 2426
6.52, 2521
6.5225, 2628
6.525, 2630
6.5275, 2565
6.53, 2461
6.5325, 2519
6.535, 2676
6.5375, 2408
6.54, 2270
6.5425, 2237
6.545, 2974
6.5475, 2867
6.55, 2443
6.5525, 2182
6.555, 2138
6.5575, 2106
6.56, 2046
6.5625, 1932
6.565, 1986
6.5675, 2706
6.57, 2584
6.5725, 2128
6.575, 1896
6.5775, 1873
6.58, 1849
6.5825, 1755
6.585, 1725
6.5875, 1734
6.59, 1775
6.5925, 1879
6.595, 1771
6.5975, 1858
6.6, 1783
6.6025, 1814
6.605, 1779
6.6075, 1724
6.61, 1760
6.6125, 1773
6.615, 1754
6.6175, 1781
6.62, 1781
6.6225, 1811
6.625, 1800
6.6275, 1789
6.63, 1871
6.6325, 1911
6.635, 1921
6.6375, 1918
6.64, 1918
6.6425, 1906
6.645, 1895
6.6475, 1915
6.65, 1995
6.6525, 2029
6.655, 2051
6.6575, 2009
6.66, 2170
6.6625, 2240
6.665, 2297
6.6675, 2297
6.67, 2243
6.6725, 2409
6.675, 2683
6.6775, 2815
6.68, 2791
6.6825, 2871
6.685, 2940
6.6875, 2992
6.69, 3090
6.6925, 3089
6.695, 3222
6.6975, 3623
6.7, 3815
6.7025, 4488
6.705, 4975
6.7075, 5754
6.71, 5990
6.7125, 6362
6.715, 6379
6.7175, 6411
6.72, 6339
6.7225, 6280
6.725, 6339
6.7275, 6031
6.73, 5889
6.7325, 5650
6.735, 5541
6.7375, 5517
6.74, 5365
6.7425, 5399
6.745, 5193
6.7475, 4999
6.75, 4980
6.7525, 5012
6.755, 5029
6.7575, 4928
6.76, 4858
6.7625, 4527
6.765, 4630
6.7675, 4675
6.77, 4605
6.7725, 4371
6.775, 4400
6.7775, 4340
6.78, 4059
6.7825, 3933
6.785, 3753
6.7875, 3726
6.79, 3781
6.7925, 3679
6.795, 3681
6.7975, 3622
6.8, 3592
6.8025, 3595
6.805, 3476
6.8075, 3298
6.81, 3340
6.8125, 3513
6.815, 3385
6.8175, 3305
6.82, 3391
6.8225, 3496
6.825, 3459
6.8275, 3400
6.83, 3510
6.8325, 3578
6.835, 3581
6.8375, 3485
6.84, 3476
6.8425, 3511
6.845, 3716
6.8475, 4014
6.85, 3941
6.8525, 3910
6.855, 4063
6.8575, 4249
6.86, 4183
6.8625, 4294
6.865, 4248
6.8675, 4074
6.87, 4094
6.8725, 4082
6.875, 4059
6.8775, 3903
6.88, 3930
6.8825, 3984
6.885, 3892
6.8875, 3773
6.89, 3646
6.8925, 3630
6.895, 3559
6.8975, 3554
6.9, 3572
6.9025, 3541
6.905, 3543
6.9075, 3521
6.91, 3420
6.9125, 3453
6.915, 3423
6.9175, 3579
6.92, 3523
6.9225, 3537
6.925, 3559
6.9275, 3526
6.93, 3512
6.9325, 3433
6.935, 3375
6.9375, 3423
6.94, 3405
6.9425, 3395
6.945, 3940
6.9475, 3964
6.95, 4156
6.9525, 4359
6.955, 4147
6.9575, 4201
6.96, 4101
6.9625, 3876
6.965, 3475
6.9675, 3288
6.97, 3243
6.9725, 3032
6.975, 2932
6.9775, 2700
6.98, 2627
6.9825, 2666
6.985, 3075
6.9875, 3238
6.99, 3130
6.9925, 2885
6.995, 2908
6.9975, 2947
7.0, 3312
7.0025, 3449
7.005, 3407
7.0075, 3348
7.01, 3378
7.0125, 3413
7.015, 3401
7.0175, 3506
7.02, 3556
7.0225, 3591
7.025, 3508
7.0275, 3426
7.03, 3503
7.0325, 3491
7.035, 3597
7.0375, 3490
7.04, 3635
7.0425, 3573
7.045, 3497
7.0475, 3408
7.05, 3328
7.0525, 3448
7.055, 3511
7.0575, 3542
7.06, 3436
7.0625, 3474
7.065, 3510
7.0675, 3348
7.07, 3338
7.0725, 3341
7.075, 3335
7.0775, 3181
7.08, 3070
7.0825, 3045
7.085, 2956
7.0875, 2955
7.09, 3052
7.0925, 3127
7.095, 2929
7.0975, 2848
7.1, 2827
7.1025, 2738
7.105, 2765
7.1075, 2821
7.11, 2832
7.1125, 2767
7.115, 2648
7.1175, 2561
7.12, 2592
7.1225, 2710
7.125, 2625
7.1275, 2715
7.13, 2593
7.1325, 2616
7.135, 2523
7.1375, 2444
7.14, 2434
7.1425, 2380
7.145, 2395
7.1475, 2448
7.15, 2478
7.1525, 2378
7.155, 2412
7.1575, 2345
7.16, 2302
7.1625, 2182
7.165, 2171
7.1675, 2009
7.17, 1831
7.1725, 1770
7.175, 1658
7.1775, 1800
7.18, 1746
7.1825, 1699
7.185, 1754
7.1875, 1476
7.19, 1331
7.1925, 1249
7.195, 1043
7.1975, 1021
7.2, 1118
7.2025, 1010
7.205, 978
7.2075, 998
7.21, 949
7.2125, 957
7.215, 830
7.2175, 748
7.22, 714
7.2225, 638
7.225, 375
7.2275, 20
7.23, -1
7.2325, -2
7.235, -2
7.2375, -2
7.24, -1
7.2425, -2
7.245, -2
7.2475, -1
7.25, -1
7.2525, -2
7.255, -1
7.2575, -2
7.26, -1
7.2625, -2
7.265, -1
7.2675, -2
7.27, -2
7.2725, -1
7.275, -1
7.2775, 88
7.28, 220
7.2825, 227
7.285, 262
7.2875, 270
7.29, 512
7.2925, 650
7.295, 685
7.2975, 699
7.3, 655
7.3025, 784
7.305, 838
7.3075, 827
7.31, 942
7.3125, 991
7.315, 1050
7.3175, 1230
7.32, 1349
7.3225, 1453
7.325, 1442
7.3275, 1491
7.33, 1519
7.3325, 1666
7.335, 1776
7.3375, 1881
7.34, 1933
7.3425, 2024
7.345, 2165
7.3475, 2559
7.35, 2806
7.3525, 2794
7.355, 3067
7.3575, 3101
7.36, 3087
7.3625, 3201
7.365, 3222
7.3675, 3363
7.37, 3269
7.3725, 3269
7.375, 3146
7.3775, 3163
7.38, 3158
7.3825, 3275
7.385, 3257
7.3875, 3294
7.39, 3372
7.3925, 3303
7.395, 3353
7.3975, 3344
7.4, 3227
7.4025, 3109
7.405, 3112
7.4075, 3091
7.41, 2920
7.4125, 2678
7.415, 2879
7.4175, 3443
7.42, 3604
7.4225, 3801
7.425, 4068
7.4275, 4177
7.43, 4351
7.4325, 4326
7.435, 4374
7.4375, 4356
7.44, 4355
7.4425, 4354
7.445, 4198
7.4475, 4097
7.45, 4230
7.4525, 4264
7.455, 4308
7.4575, 4236
7.46, 4314
7.4625, 4178
7.465, 4115
7.4675, 4027
7.47, 3878
7.4725, 3731
7.475, 3685
7.4775, 3681
7.48, 3509
7.4825, 3489
7.485, 3445
7.4875, 3294
7.49, 3207
7.4925, 3127
7.495, 3180
7.4975, 3053
7.5, 3054
7.5025, 2982
7.505, 3039
7.5075, 2977
7.51, 2843
7.5125, 2880
7.515, 2881
7.5175, 2834
7.52, 2790
7.5225, 2829
7.525, 2787
7.5275, 2750
7.53, 2614
7.5325, 2458
7.535, 2411
7.5375, 2489
7.54, 2484
7.5425, 2417
7.545, 2389
7.5475, 2522
7.55, 2460
7.5525, 2367
7.555, 2306
7.5575, 2260
7.56, 2211
7.5625, 2140
7.565, 2220
7.5675, 2285
7.57, 2318
7.5725, 2288
7.575, 2303
7.5775, 2356
7.58, 2406
7.5825, 2510
7.585, 2487
7.5875, 2390
7.59, 2339
7.5925, 2447
7.595, 2396
7.5975, 2471
7.6, 2570
7.6025, 2584
7.605, 2673
7.6075, 2804
7.61, 2779
7.6125, 2835
7.615, 2694
7.6175, 2772
7.62, 2701
7.6225, 2793
7.625, 2909
7.6275, 2960
7.63, 2828
7.6325, 2801
7.635, 2920
7.6375, 2784
7.64, 2718
7.6425, 2542
7.645, 2456
7.6475, 2250
7.65, 1928
7.6525, 1577
7.655, 1081
7.6575, 473
7.66, 250
7.6625, 152
7.665, -2
7.6675, -2
7.67, -2
7.6725, -2
7.675, -1
7.6775, -2
7.68, -1
7.6825, -1
7.685, 0
7.6875, 244
7.69, 255
7.6925, 115
7.695, 23
7.6975, 124
7.7, 86
7.7025, 46
7.705, -1
7.7075, -2
7.71, -1
7.7125, -1
7.715, 47
7.7175, 115
7.72, 25
7.7225, -2
7.725, -1
7.7275, 42
7.73, 29
7.7325, 116
7.735, 202
7.7375, 536
7.74, 932
7.7425, 1029
7.745, 983
7.7475, 1197
7.75, 1376
7.7525, 1504
7.755, 1673
7.7575, 1715
7.76, 1770
7.7625, 2033
7.765, 2148
7.7675, 2192
7.77, 2453
7.7725, 2697
7.775, 2530
7.7775, 2705
7.78, 2954
7.7825, 3190
7.785, 2848
7.7875, 2715
7.79, 2742
7.7925, 3030
7.795, 2977
7.7975, 2869
7.8, 2720
7.8025, 2794
7.805, 2764
7.8075, 2842
7.81, 3020
7.8125, 2995
7.815, 2875
7.8175, 2846
7.82, 2732
7.8225, 2735
7.825, 2768
7.8275, 2885
7.83, 2671
7.8325, 2603
7.835, 2510
7.8375, 2551
7.84, 2391
7.8425, 2448
7.845, 2360
7.8475, 2402
7.85, 2203
7.8525, 2291
7.855, 2434
7.8575, 2349
7.86, 2465
7.8625, 2420
7.865, 2417
7.8675, 2265
7.87, 2606
7.8725, 2662
7.875, 2543
7.8775, 2266
7.88, 2367
7.8825, 2350
7.885, 2442
7.8875, 2499
7.89, 2720
7.8925, 2588
7.895, 2675
7.8975, 2693
7.9, 2863
7.9025, 2768
7.905, 3156
7.9075, 3538
7.91, 3025
7.9125, 3348
7.915, 3634
7.9175, 3347
7.92, 3371
7.9225, 3293
7.925, 3434
7.9275, 3509
7.93, 3587
7.9325, 3462
7.935, 3584
7.9375, 3203
7.94, 3169
7.9425, 3324
7.945, 3328
7.9475, 3522
7.95, 3286
7.9525, 3369
7.955, 3549
7.9575, 3202
7.96, 3451
7.9625, 3184
7.965, 3239
7.9675, 3210
7.97, 3292
7.9725, 3070
7.975, 3016
7.9775, 3147
7.98, 3151
7.9825, 3143
7.985, 3112
7.9875, 3201
7.99, 3070
7.9925, 3039
7.995, 3144
7.9975, 2937
8.0, 3089
8.0025, 3187
8.005, 3026
8.0075, 3108
8.01, 3178
8.0125, 3010
8.015, 3036
8.0175, 3155
8.02, 3402
8.0225, 3117
8.025, 3153
8.0275, 3006
8.03, 3525
8.0325, 3258
8.035, 3026
8.0375, 3493
8.04, 3659
8.0425, 3622
8.045, 3582
8.0475, 3402
8.05, 3231
8.0525, 3103
8.055, 3065
8.0575, 2839
8.06, 2979
8.0625, 3229
8.065, 3132
8.0675, 3446
8.07, 3695
8.0725, 3766
8.075, 3801
8.0775, 3751
8.08, 3759
8.0825, 3583
8.085, 3621
8.0875, 3419
8.09, 3594
8.0925, 2955
8.095, 3260
8.0975, 3442
8.1, 3461
8.1025, 3415
8.105, 3563
8.1075, 3230
8.11, 3271
8.1125, 3146
8.115, 3320
8.1175, 3415
8.12, 3364
8.1225, 3309
8.125, 3248
8.1275, 3347
8.13, 3160
8.1325, 3213
8.135, 3327
8.1375, 3417
8.14, 3636
8.1425, 3601
8.145, 3597
8.1475, 3547
8.15, 3476
8.1525, 3378
8.155, 3333
8.1575, 3262
8.16, 3303
8.1625, 3234
8.165, 3311
8.1675, 3284
8.17, 3369
8.1725, 3436
8.175, 3434
8.1775, 3329
8.18, 3445
8.1825, 3497
8.185, 3500
8.1875, 3506
8.19, 3702
8.1925, 3356
8.195, 3581
8.1975, 3438
8.2, 3567
8.2025, 4273
8.205, 4455
8.2075, 4076
8.21, 3445
8.2125, 3862
8.215, 4254
8.2175, 4332
8.22, 4301
8.2225, 4085
8.225, 3959
8.2275, 3715
8.23, 3944
8.2325, 3615
8.235, 3434
8.2375, 3347
8.24, 3364
8.2425, 3226
8.245, 3245
8.2475, 3323
8.25, 2930
8.2525, 3189
8.255, 3181
8.2575, 3271
8.26, 3257
8.2625, 3244
8.265, 3208
8.2675, 3195
8.27, 3202
8.2725, 3119
8.275, 3167
8.2775, 3397
8.28, 3221
8.2825, 3233
8.285, 3194
8.2875, 3148
8.29, 3071
8.2925, 3219
8.295, 3245
8.2975, 3414
8.3, 3521
8.3025, 3384
8.305, 3274
8.3075, 2935
8.31, 3003
8.3125, 3047
8.315, 2951
8.3175, 2901
8.32, 2897
8.3225, 2836
8.325, 2845
8.3275, 2688
8.33, 2601
8.3325, 2727
8.335, 2854
8.3375, 2839
8.34, 2638
8.3425, 2769
8.345, 3446
8.3475, 2755
8.35, 2716
8.3525, 2886
8.355, 2521
8.3575, 2559
8.36, 2615
8.3625, 2758
8.365, 2772
8.3675, 2490
8.37, 2494
8.3725, 2531
8.375, 2556
8.3775, 2455
8.38, 2365
8.3825, 2634
8.385, 2663
8.3875, 2831
8.39, 2825
8.3925, 2733
8.395, 2621
8.3975, 2787
8.4, 2681
8.4025, 2506
8.405, 2479
8.4075, 2335
8.41, 2326
8.4125, 2505
8.415, 2482
8.4175, 2226
8.42, 2506
8.4225, 2142
8.425, 2030
8.4275, 2010
8.43, 2068
8.4325, 2199
8.435, 2331
8.4375, 2460
8.44, 2696
8.4425, 2734
8.445, 2584
8.4475, 2639
8.45, 2914
8.4525, 2864
8.455, 2749
8.4575, 3041
8.46, 3075
8.4625, 3380
8.465, 3933
8.4675, 3233
8.47, 3074
8.4725, 3069
8.475, 3120
8.4775, 3031
8.48, 3215
8.4825, 3043
8.485, 3165
8.4875, 2909
8.49, 2873
8.4925, 2760
8.495, 2761
8.4975, 2725
8.5, 2813
8.5025, 2872
8.505, 2860
8.5075, 2917
8.51, 3068
8.5125, 3065
8.515, 3554
8.5175, 3839
8.52, 4036
8.5225, 3793
8.525, 3801
8.5275, 3687
8.53, 3716
8.5325, 3533
8.535, 3218
8.5375, 3294
8.54, 3653
8.5425, 3798
8.545, 4063
8.5475, 3854
8.55, 3596
8.5525, 3647
8.555, 3764
8.5575, 3826
8.56, 3806
8.5625, 3877
8.565, 3707
8.5675, 3702
8.57, 3700
8.5725, 3849
8.575, 4276
8.5775, 3921
8.58, 3456
8.5825, 3610
8.585, 3856
8.5875, 3976
8.59, 4054
8.5925, 4189
8.595, 4258
8.5975, 4380
8.6, 4033
8.6025, 3976
8.605, 3788
8.6075, 3767
8.61, 3701
8.6125, 3829
8.615, 3725
8.6175, 3558
8.62, 3637
8.6225, 4316
8.625, 4299
8.6275, 4325
8.63, 4321
8.6325, 4551
8.635, 4876
8.6375, 5386
8.64, 5585
8.6425, 5541
8.645, 5360
8.6475, 5115
8.65, 4708
8.6525, 4052
8.655, 2999
8.6575, 1558
8.66, 786
8.6625, 506
8.665, 377
8.6675, 1105
8.67, 771
8.6725, 796
8.675, 638
8.6775, 753
8.68, 806
8.6825, 1143
8.685, 1398
8.6875, 1562
8.69, 1556
8.6925, 1739
8.695, 2183
8.6975, 2162
8.7, 2110
8.7025, 2636
8.705, 2215
8.7075, 2504
8.71, 2216
8.7125, 2438
8.715, 2752
8.7175, 2746
8.72, 3206
8.7225, 2721
8.725, 2578
8.7275, 2401
8.73, 2582
8.7325, 2354
8.735, 2561
8.7375, 2579
8.74, 2795
8.7425, 2694
8.745, 2609
8.7475, 2713
8.75, 2749
8.7525, 2936
8.755, 2828
8.7575, 2845
8.76, 2880
8.7625, 2936
8.765, 2909
8.7675, 2871
8.77, 2907
8.7725, 2832
8.775, 2498
8.7775, 2337
8.78, 2446
8.7825, 2369
8.785, 2388
8.7875, 2507
8.79, 2567
8.7925, 2493
8.795, 2656
8.7975, 2666
8.8, 2989
8.8025, 2926
8.805, 2747
8.8075, 2740
8.81, 2823
8.8125, 2690
8.815, 2624
8.8175, 2815
8.82, 2967
8.8225, 2968
8.825, 3023
8.8275, 2804
8.83, 2779
8.8325, 2955
8.835, 2963
8.8375, 3039
8.84, 3024
8.8425, 3057
8.845, 3056
8.8475, 3175
8.85, 2967
8.8525, 3007
8.855, 3054
8.8575, 3156
8.86, 3101
8.8625, 3116
8.865, 3081
8.8675, 3025
8.87, 2921
8.8725, 2955
8.875, 2968
8.8775, 3177
8.88, 3126
8.8825, 3113
8.885, 3063
8.8875, 3303
8.89, 3336
8.8925, 3386
8.895, 3274
8.8975, 3282
8.9, 3206
8.9025, 3191
8.905, 3265
8.9075, 3268
8.91, 3194
8.9125, 3291
8.915, 3176
8.9175, 3024
8.92, 2960
8.9225, 3235
8.925, 3103
8.9275, 2942
8.93, 3005
8.9325, 2940
8.935, 2824
8.9375, 2744
8.94, 2776
8.9425, 2768
8.945, 2791
8.9475, 2778
8.95, 2813
8.9525, 2820
8.955, 2768
8.9575, 2722
8.96, 2835
8.9625, 2824
8.965, 2874
8.9675, 2803
8.97, 2829
8.9725, 2861
8.975, 2878
8.9775, 2876
8.98, 2980
8.9825, 3034
8.985, 3219
8.9875, 3030
8.99, 3097
8.9925, 3071
8.995, 3038
8.9975, 3046
9.0, 3125
9.0025, 3108
9.005, 3170
9.0075, 3157
9.01, 3441
9.0125, 3164
9.015, 3402
9.0175, 3539
9.02, 3388
9.0225, 3347
9.025, 3344
9.0275, 3309
9.03, 3327
9.0325, 3336
9.035, 3306
9.0375, 3098
9.04, 3081
9.0425, 3044
9.045, 3028
9.0475, 2994
9.05, 2880
9.0525, 2912
9.055, 2743
9.0575, 2748
9.06, 2712
9.0625, 2639
9.065, 2613
9.0675, 2620
9.07, 2582
9.0725, 2553
9.075, 2575
9.0775, 2696
9.08, 2769
9.0825, 2808
9.085, 2852
9.0875, 3012
9.09, 2930
9.0925, 2957
9.095, 2919
9.0975, 2868
9.1, 2877
9.1025, 2943
9.105, 2957
9.1075, 2856
9.11, 2892
9.1125, 2888
9.115, 2950
9.1175, 2933
9.12, 3080
9.1225, 3034
9.125, 3027
9.1275, 3102
9.13, 3158
9.1325, 3151
9.135, 3119
9.1375, 3233
9.14, 3275
9.1425, 3305
9.145, 3276
9.1475, 3200
9.15, 3314
9.1525, 3044
9.155, 3050
9.1575, 3136
9.16, 3029
9.1625, 2991
9.165, 2955
9.1675, 2959
9.17, 3225
9.1725, 3047
9.175, 2961
9.1775, 3027
9.18, 2898
9.1825, 2938
9.185, 2880
9.1875, 2936
9.19, 2867
9.1925, 2947
9.195, 2835
9.1975, 2942
9.2, 2855
9.2025, 2693
9.205, 2863
9.2075, 2937
9.21, 2861
9.2125, 2780
9.215, 2724
9.2175, 2797
9.22, 2785
9.2225, 2803
9.225, 2802
9.2275, 2788
9.23, 2712
9.2325, 2732
9.235, 2703
9.2375, 2714
9.24, 2740
9.2425, 2791
9.245, 2688
9.2475, 2758
9.25, 2608
9.2525, 2556
9.255, 2617
9.2575, 2608
9.26, 2694
9.2625, 2688
9.265, 2709
9.2675, 2586
9.27, 2759
9.2725, 2751
9.275, 2818
9.2775, 2931
9.28, 2929
9.2825, 2907
9.285, 2754
9.2875, 2642
9.29, 2438
9.2925, 2483
9.295, 2387
9.2975, 2370
9.3, 2479
9.3025, 2512
9.305, 2476
9.3075, 2404
9.31, 2358
9.3125, 2504
9.315, 2577
9.3175, 2390
9.32, 2363
9.3225, 2402
9.325, 2522
9.3275, 2534
9.33, 2575
9.3325, 2531
9.335, 2491
9.3375, 2518
9.34, 2594
9.3425, 2574
9.345, 2579
9.3475, 2439
9.35, 2536
9.3525, 2464
9.355, 2415
9.3575, 2548
9.36, 2588
9.3625, 2588
9.365, 2445
9.3675, 2512
9.37, 2368
9.3725, 2242
9.375, 2249
9.3775, 2229
9.38, 2252
9.3825, 2189
9.385, 2453
9.3875, 2388
9.39, 2618
9.3925, 2486
9.395, 2493
9.3975, 2424
9.4, 2322
9.4025, 2337
9.405, 2230
9.4075, 2222
9.41, 2100
9.4125, 2091
9.415, 2013
9.4175, 1990
9.42, 2062
9.4225, 2064
9.425, 2110
9.4275, 2202
9.43, 2308
9.4325, 2481
9.435, 2536
9.4375, 2592
9.44, 2431
9.4425, 2472
9.445, 2533
9.4475, 2460
9.45, 2464
9.4525, 2520
9.455, 2551
9.4575, 2515
9.46, 2462
9.4625, 2332
9.465, 2278
9.4675, 2262
9.47, 2292
9.4725, 2550
9.475, 2520
9.4775, 2592
9.48, 2679
9.4825, 2664
9.485, 2650
9.4875, 2813
9.49, 2902
9.4925, 2811
9.495, 2808
9.4975, 2940
9.5, 3086
9.5025, 3180
9.505, 3020
9.5075, 3006
9.51, 2978
9.5125, 2960
9.515, 2988
9.5175, 3088
9.52, 2967
9.5225, 2937
9.525, 2934
9.5275, 2905
9.53, 3009
9.5325, 3006
9.535, 3284
9.5375, 3139
9.54, 3163
9.5425, 3213
9.545, 3278
9.5475, 3274
9.55, 3230
9.5525, 3227
9.555, 3359
9.5575, 3198
9.56, 3247
9.5625, 3219
9.565, 3134
9.5675, 3111
9.57, 3106
9.5725, 3125
9.575, 3107
9.5775, 3134
9.58, 3090
9.5825, 2968
9.585, 3091
9.5875, 3174
9.59, 3059
9.5925, 3040
9.595, 3109
9.5975, 3126
9.6, 2898
9.6025, 3057
9.605, 3183
9.6075, 3149
9.61, 3226
9.6125, 3407
9.615, 3401
9.6175, 3446
9.62, 3465
9.6225, 3525
9.625, 3483
9.6275, 3548
9.63, 3633
9.6325, 3537
9.635, 3465
9.6375, 3427
9.64, 3607
9.6425, 3592
9.645, 3554
9.6475, 3542
9.65, 3480
9.6525, 3395
9.655, 3409
9.6575, 3459
9.66, 3348
9.6625, 3362
9.665, 3557
9.6675, 3592
9.67, 3639
9.6725, 3629
9.675, 3497
9.6775, 3524
9.68, 3394
9.6825, 3308
9.685, 3241
9.6875, 3317
9.69, 3345
9.6925, 3302
9.695, 3412
9.6975, 3408
9.7, 3470
9.7025, 3398
9.705, 3530
9.7075, 3555
9.71, 3448
9.7125, 3513
9.715, 3482
9.7175, 3690
9.72, 3651
9.7225, 3603
9.725, 3682
9.7275, 3572
9.73, 3664
9.7325, 3761
9.735, 3569
9.7375, 3404
9.74, 3566
9.7425, 3379
9.745, 3355
9.7475, 3312
9.75, 3383
9.7525, 3364
9.755, 3446
9.7575, 3487
9.76, 3428
9.7625, 3430
9.765, 3377
9.7675, 3397
9.77, 3617
9.7725, 3479
9.775, 3394
9.7775, 3330
9.78, 3264
9.7825, 3325
9.785, 3219
9.7875, 3229
9.79, 3155
9.7925, 3071
9.795, 3013
9.7975, 3061
9.8, 3015
9.8025, 3062
9.805, 3126
9.8075, 3038
9.81, 3108
9.8125, 3057
9.815, 2879
9.8175, 2958
9.82, 3053
9.8225, 3217
9.825, 3063
9.8275, 3100
9.83, 3148
9.8325, 3152
9.835, 3128
9.8375, 3036
9.84, 3018
9.8425, 3052
9.845, 3056
9.8475, 2944
9.85, 2989
9.8525, 2834
9.855, 2902
9.8575, 2933
9.86, 2879
9.8625, 2936
9.865, 2987
9.8675, 2973
9.87, 2966
9.8725, 2898
9.875, 2937
9.8775, 2910
9.88, 2931
9.8825, 2953
9.885, 2887
9.8875, 2893
9.89, 3003
9.8925, 3086
9.895, 3109
9.8975, 3175
9.9, 3164
9.9025, 3024
9.905, 3030
9.9075, 2988
9.91, 2983
9.9125, 2932
9.915, 2758
9.9175, 2753
9.92, 2797
9.9225, 2700
9.925, 2753
9.9275, 2730
9.93, 2705
9.9325, 2671
9.935, 2807
9.9375, 2809
9.94, 2838
9.9425, 2868
9.945, 2803
9.9475, 2980
9.95, 2960
9.9525, 2971
9.955, 3038
9.9575, 3057
9.96, 3021
9.9625, 2954
9.965, 2880
9.9675, 2808
9.97, 2850
9.9725, 2908
9.975, 2927
9.9775, 2938
9.98, 2916
9.9825, 2821
9.985, 2792
9.9875, 2757
9.99, 2762
9.9925, 2758
9.995, 2544
9.9975, 2605
10.0, 2630
10.0025, 2503
10.005, 2590
10.0075, 2590
10.01, 2644
10.0125, 2702
10.015, 2778
10.0175, 2737
10.02, 2635
10.0225, 2543
10.025, 2597
10.0275, 2718
10.03, 2609
10.0325, 2744
10.035, 2543
10.0375, 2515
10.04, 2636
10.0425, 2541
10.045, 2603
10.0475, 2568
10.05, 2762
10.0525, 2650
10.055, 2830
10.0575, 2701
10.06, 2601
10.0625, 2574
10.065, 2530
10.0675, 2511
10.07, 2373
10.0725, 2426
10.075, 2350
10.0775, 2525
10.08, 2601
10.0825, 2606
10.085, 2511
10.0875, 2532
10.09, 2450
10.0925, 2576
10.095, 2476
10.0975, 2440
10.1, 2394
10.1025, 2302
10.105, 2251
10.1075, 2400
10.11, 2568
10.1125, 2774
10.115, 2819
10.1175, 2964
10.12, 3082
10.1225, 3225
10.125, 3036
10.1275, 2863
10.13, 2740
10.1325, 2672
10.135, 2619
10.1375, 2595
10.14, 2539
10.1425, 2715
10.145, 2824
10.1475, 2702
10.15, 2803
10.1525, 2760
10.155, 2736
10.1575, 2939
10.16, 3030
10.1625, 2862
10.165, 2826
10.1675, 2874
10.17, 2735
10.1725, 2773
10.175, 2874
10.1775, 2985
10.18, 2733
10.1825, 2545
10.185, 2676
10.1875, 2969
10.19, 3153
10.1925, 3209
10.195, 2975
10.1975, 3006
10.2, 3000
10.2025, 2782
10.205, 2746
10.2075, 2893
10.21, 2801
10.2125, 2601
10.215, 2527
10.2175, 2425
10.22, 2404
10.2225, 2162
10.225, 2100
10.2275, 1937
10.23, 1940
10.2325, 1811
10.235, 1909
10.2375, 1958
10.24, 2296
10.2425, 3301
10.245, 3566
10.2475, 3572
10.25, 3479
10.2525, 3327
10.255, 3318
10.2575, 3425
10.26, 3541
10.2625, 3533
10.265, 3536
10.2675, 3432
10.27, 3387
10.2725, 3372
10.275, 3153
10.2775, 3007
10.28, 2795
10.2825, 2866
10.285, 2685
10.2875, 2642
10.29, 2592
10.2925, 2677
10.295, 2666
10.2975, 2524
10.3, 2462
10.3025, 2443
10.305, 2573
10.3075, 2732
10.31, 2809
10.3125, 2806
10.315, 2647
10.3175, 2712
10.32, 2822
10.3225, 2721
10.325, 2835
10.3275, 2982
10.33, 2995
10.3325, 2947
10.335, 2747
10.3375, 2554
10.34, 2572
10.3425, 2349
10.345, 2521
10.3475, 2667
10.35, 2605
10.3525, 2524
10.355, 2593
10.3575, 2442
10.36, 2627
10.3625, 2802
10.365, 2732
10.3675, 2666
10.37, 2571
10.3725, 2617
10.375, 2602
10.3775, 2668
10.38, 2727
10.3825, 2718
10.385, 2532
10.3875, 2609
10.39, 2628
10.3925, 2717
10.395, 2791
10.3975, 2856
10.4, 2932
10.4025, 2770
10.405, 2814
10.4075, 2970
10.41, 3057
10.4125, 3299
10.415, 3219
10.4175, 3178
10.42, 3085
10.4225, 3014
10.425, 2923
10.4275, 2998
10.43, 3102
10.4325, 3061
10.435, 3121
10.4375, 2966
10.44, 2946
10.4425, 3044
10.445, 3023
10.4475, 3124
10.45, 3195
10.4525, 3198
10.455, 3103
10.4575, 3126
10.46, 3088
10.4625, 3013
10.465, 2991
10.4675, 2954
10.47, 2977
10.4725, 2914
10.475, 2885
10.4775, 2764
10.48, 2857
10.4825, 2903
10.485, 2845
10.4875, 2928
10.49, 3050
10.4925, 3150
10.495, 3213
10.4975, 3168
10.5, 3237
10.5025, 3187
10.505, 3048
10.5075, 2997
10.51, 3064
10.5125, 3207
10.515, 3156
10.5175, 3095
10.52, 3112
10.5225, 3274
10.525, 3179
10.5275, 3163
10.53, 3324
10.5325, 3416
10.535, 3454
10.5375, 3452
10.54, 3502
10.5425, 3666
10.545, 3549
10.5475, 3558
10.55, 3643
10.5525, 3551
10.555, 3454
10.5575, 3533
10.56, 3446
10.5625, 3235
10.565, 3315
10.5675, 3423
10.57, 3439
10.5725, 3351
10.575, 3208
10.5775, 3198
10.58, 3317
10.5825, 3246
10.585, 3310
10.5875, 3250
10.59, 3219
10.5925, 3176
10.595, 3042
10.5975, 3087
10.6, 3251
10.6025, 3287
10.605, 3327
10.6075, 3348
10.61, 3553
10.6125, 3558
10.615, 3519
10.6175, 3508
10.62, 3430
10.6225, 3528
10.625, 3564
10.6275, 3587
10.63, 3560
10.6325, 3605
10.635, 3572
10.6375, 3622
10.64, 3584
10.6425, 3531
10.645, 3607
10.6475, 3503
10.65, 3489
10.6525, 3546
10.655, 3553
10.6575, 3465
10.66, 3554
10.6625, 3627
10.665, 3601
10.6675, 3585
10.67, 3545
10.6725, 3476
10.675, 3546
10.6775, 3600
10.68, 3632
10.6825, 3550
10.685, 3509
10.6875, 3413
10.69, 3404
10.6925, 3209
10.695, 3134
10.6975, 2947
10.7, 2824
10.7025, 2729
10.705, 2721
10.7075, 2750
10.71, 2885
10.7125, 2885
10.715, 3111
10.7175, 3107
10.72, 3255
10.7225, 3317
10.725, 3420
10.7275, 3461
10.73, 3575
10.7325, 3754
10.735, 3750
10.7375, 3834
10.74, 3836
10.7425, 3844
10.745, 3907
10.7475, 4093
10.75, 3959
10.7525, 3843
10.755, 3831
10.7575, 3884
10.76, 3943
10.7625, 4006
10.765, 3905
10.7675, 4027
10.77, 4083
10.7725, 3942
10.775, 3868
10.7775, 3906
10.78, 3992
10.7825, 3896
10.785, 4005
10.7875, 3832
10.79, 3691
10.7925, 3609
10.795, 3753
10.7975, 3575
10.8, 3553
10.8025, 3403
10.805, 3353
10.8075, 3263
10.81, 3256
10.8125, 3244
10.815, 3113
10.8175, 2967
10.82, 3038
10.8225, 3115
10.825, 3119
10.8275, 3162
10.83, 3270
10.8325, 3355
10.835, 3402
10.8375, 3525
10.84, 3362
10.8425, 3342
10.845, 3310
10.8475, 3266
10.85, 3160
10.8525, 3036
10.855, 2959
10.8575, 2783
10.86, 2929
10.8625, 2939
10.865, 2899
10.8675, 2894
10.87, 2863
10.8725, 2843
10.875, 2801
10.8775, 2813
10.88, 2828
10.8825, 3089
10.885, 2885
10.8875, 2918
10.89, 2977
10.8925, 2852
10.895, 2585
10.8975, 2445
10.9, 2502
10.9025, 2505
10.905, 2283
10.9075, 2070
10.91, 2007
10.9125, 1933
10.915, 1891
10.9175, 1934
10.92, 1819
10.9225, 1622
10.925, 1634
10.9275, 1462
10.93, 1369
10.9325, 1312
10.935, 1233
10.9375, 1274
10.94, 1234
10.9425, 1253
10.945, 1288
10.9475, 1404
10.95, 1491
10.9525, 1584
10.955, 1686
10.9575, 1798
10.96, 1859
10.9625, 1772
10.965, 1807
10.9675, 1733
10.97, 1772
10.9725, 1835
10.975, 1848
10.9775, 1995
10.98, 2053
10.9825, 2059
10.985, 2205
10.9875, 2254
10.99, 2209
10.9925, 2263
10.995, 2297
10.9975, 2347
11.0, 2415
11.0025, 2434
11.005, 2427
11.0075, 2436
11.01, 2430
11.0125, 2519
11.015, 2498
11.0175, 2400
11.02, 2494
11.0225, 2591
11.025, 2512
11.0275, 2602
11.03, 2804
11.0325, 2720
11.035, 2802
11.0375, 2939
11.04, 3324
11.0425, 3602
11.045, 3835
11.0475, 4097
11.05, 4157
11.0525, 3896
11.055, 3867
11.0575, 3762
11.06, 3716
11.0625, 3641
11.065, 3623
11.0675, 3595
11.07, 3520
11.0725, 3703
11.075, 3660
11.0775, 3568
11.08, 3551
11.0825, 3632
11.085, 3528
11.0875, 3522
11.09, 3476
11.0925, 3449
11.095, 3374
11.0975, 3241
11.1, 3557
11.1025, 3698
11.105, 3754
11.1075, 3833
11.11, 3707
11.1125, 3666
11.115, 3677
11.1175, 3697
11.12, 3812
11.1225, 3804
11.125, 3878
11.1275, 3838
11.13, 3638
11.1325, 3674
11.135, 3656
11.1375, 3643
11.14, 3387
11.1425, 3394
11.145, 3276
11.1475, 3094
11.15, 3032
11.1525, 3099
11.155, 2630
11.1575, 2172
11.16, 2681
11.1625, 2986
11.165, 3276
11.1675, 3263
11.17, 3102
11.1725, 3098
11.175, 2960
11.1775, 2958
11.18, 3042
11.1825, 3124
11.185, 3162
11.1875, 3293
11.19, 3297
11.1925, 3395
11.195, 3527
11.1975, 3628
11.2, 3681
11.2025, 3530
11.205, 3088
11.2075, 2932
11.21, 2954
11.2125, 3018
11.215, 3111
11.2175, 2881
11.22, 3069
11.2225, 3160
11.225, 3191
11.2275, 3040
11.23, 2870
11.2325, 2604
11.235, 2413
11.2375, 2208
11.24, 2480
11.2425, 2663
11.245, 2409
11.2475, 2456
11.25, 2572
11.2525, 2586
11.255, 2739
11.2575, 2689
11.26, 2554
11.2625, 2573
11.265, 2507
11.2675, 2385
11.27, 2474
11.2725, 2641
11.275, 2547
11.2775, 2657
11.28, 2797
11.2825, 2522
11.285, 2598
11.2875, 2654
11.29, 2910
11.2925, 3061
11.295, 2798
11.2975, 2456
11.3, 2483
11.3025, 2514
11.305, 2359
11.3075, 2659
11.31, 2800
11.3125, 2428
11.315, 2683
11.3175, 2691
11.32, 2895
11.3225, 2808
11.325, 2584
11.3275, 2505
11.33, 2388
11.3325, 2213
11.335, 2469
11.3375, 2647
11.34, 2573
11.3425, 2569
11.345, 2506
11.3475, 2230
11.35, 2493
11.3525, 2503
11.355, 2644
11.3575, 2509
11.36, 2310
11.3625, 2414
11.365, 2644
11.3675, 2437
11.37, 2676
11.3725, 2636
11.375, 2426
11.3775, 2719
11.38, 2729
11.3825, 2511
11.385, 2353
11.3875, 2408
11.39, 2418
11.3925, 2501
11.395, 2447
11.3975, 2742
11.4, 3002
11.4025, 2946
11.405, 2967
11.4075, 3067
11.41, 2974
11.4125, 2751
11.415, 2812
11.4175, 2957
11.42, 3216
11.4225, 3452
11.425, 3498
11.4275, 3606
11.43, 3625
11.4325, 3711
11.435, 3552
11.4375, 3770
11.44, 3875
11.4425, 3963
11.445, 3886
11.4475, 4141
11.45, 4433
11.4525, 4535
11.455, 4567
11.4575, 4625
11.46, 4544
11.4625, 4484
11.465, 4316
11.4675, 4190
11.47, 3863
11.4725, 3617
11.475, 4034
11.4775, 3774
11.48, 3632
11.4825, 3715
11.485, 3992
11.4875, 4043
11.49, 3997
11.4925, 4105
11.495, 4121
11.4975, 4046
11.5, 3989
11.5025, 4123
11.505, 4193
11.5075, 3975
11.51, 3663
11.5125, 3604
11.515, 3370
11.5175, 3355
11.52, 3318
11.5225, 3490
11.525, 3303
11.5275, 2828
11.53, 2589
11.5325, 2474
11.535, 2776
11.5375, 3108
11.54, 3199
11.5425, 3339
11.545, 3576
11.5475, 3704
11.55, 4056
11.5525, 4125
11.555, 4094
11.5575, 4000
11.56, 3909
11.5625, 3861
11.565, 3682
11.5675, 3687
11.57, 3751
11.5725, 3662
11.575, 3556
11.5775, 3451
11.58, 3571
11.5825, 3733
11.585, 3558
11.5875, 3612
11.59, 3614
11.5925, 3464
11.595, 3248
11.5975, 3166
11.6, 3257
11.6025, 3288
11.605, 3425
11.6075, 3624
11.61, 3708
11.6125, 3789
11.615, 3881
11.6175, 3978
11.62, 3809
11.6225, 3898
11.625, 3869
11.6275, 3635
11.63, 3500
11.6325, 3462
11.635, 3559
11.6375, 3597
11.64, 3675
11.6425, 3714
11.645, 3644
11.6475, 3617
11.65, 3660
11.6525, 3686
11.655, 3575
11.6575, 3591
11.66, 3560
11.6625, 3431
11.665, 3367
11.6675, 3265
11.67, 3225
11.6725, 3228
11.675, 3280
11.6775, 3379
11.68, 3375
11.6825, 3401
11.685, 3235
11.6875, 3062
11.69, 3158
11.6925, 3122
11.695, 3017
11.6975, 3024
11.7, 2986
11.7025, 2863
11.705, 2771
11.7075, 2720
11.71, 2640
11.7125, 2505
11.715, 2399
11.7175, 2631
11.72, 2660
11.7225, 2675
11.725, 2756
11.7275, 2693
11.73, 2679
11.7325, 2704
11.735, 2783
11.7375, 2898
11.74, 3157
11.7425, 3155
11.745, 3032
11.7475, 3167
11.75, 3288
11.7525, 3289
11.755, 3316
11.7575, 3300
11.76, 3224
11.7625, 3101
11.765, 2854
11.7675, 2751
11.77, 2516
11.7725, 2544
11.775, 2557
11.7775, 2744
11.78, 2611
11.7825, 2648
11.785, 2652
11.7875, 2488
11.79, 2432
11.7925, 2193
11.795, 2202
11.7975, 2228
11.8, 2201
11.8025, 2093
11.805, 2026
11.8075, 1942
11.81, 1891
11.8125, 1948
11.815, 1962
11.8175, 1963
11.82, 1979
11.8225, 2102
11.825, 2112
11.8275, 2198
11.83, 2253
11.8325, 2617
11.835, 2611
11.8375, 2504
11.84, 2478
11.8425, 2495
11.845, 2437
11.8475, 2454
11.85, 2499
11.8525, 2491
11.855, 2469
11.8575, 2452
11.86, 2425
11.8625, 2373
11.865, 2302
11.8675, 2303
11.87, 2382
11.8725, 2480
11.875, 2462
11.8775, 2493
11.88, 2483
11.8825, 2498
11.885, 2636
11.8875, 2597
11.89, 2492
11.8925, 2497
11.895, 2498
11.8975, 2468
11.9, 2453
11.9025, 2452
11.905, 2327
11.9075, 2270
11.91, 2255
11.9125, 2192
11.915, 2146
11.9175, 2331
11.92, 2335
11.9225, 2454
11.925, 2381
11.9275, 2503
11.93, 2554
11.9325, 2456
11.935, 2500
11.9375, 2491
11.94, 2433
11.9425, 2571
11.945, 2591
11.9475, 2549
11.95, 2457
11.9525, 2383
11.955, 2441
11.9575, 2387
11.96, 2433
11.9625, 2460
11.965, 2325
11.9675, 2466
11.97, 2833
11.9725, 2812
11.975, 2711
11.9775, 2748
11.98, 2810
11.9825, 2849
11.985, 2692
11.9875, 2557
11.99, 2443
11.9925, 2407
11.995, 2637
11.9975, 2706
12.0, 2824
12.0025, 2684
12.005, 2781
12.0075, 2743
12.01, 2707
12.0125, 2645
12.015, 2576
12.0175, 2617
12.02, 2714
12.0225, 2724
12.025, 2771
12.0275, 2812
12.03, 2912
12.0325, 2690
12.035, 2622
12.0375, 2498
12.04, 2374
12.0425, 2414
12.045, 2430
12.0475, 2754
12.05, 2629
12.0525, 2523
12.055, 2731
12.0575, 2603
12.06, 2744
12.0625, 3244
12.065, 3338
12.0675, 3500
12.07, 3473
12.0725, 3199
12.075, 3198
12.0775, 3379
12.08, 3209
12.0825, 3469
12.085, 3591
12.0875, 3560
12.09, 3589
12.0925, 3543
12.095, 3630
12.0975, 3803
12.1, 3663
12.1025, 3544
12.105, 3387
12.1075, 3327
12.11, 3357
12.1125, 3312
12.115, 3202
12.1175, 3377
12.12, 3309
12.1225, 3097
12.125, 3576
12.1275, 3256
12.13, 3118
12.1325, 3025
12.135, 3017
12.1375, 2977
12.14, 3127
12.1425, 3254
12.145, 3387
12.1475, 3508
12.15, 3758
12.1525, 3502
12.155, 3363
12.1575, 3296
12.16, 3304
12.1625, 3228
12.165, 3085
12.1675, 3113
12.17, 3058
12.1725, 3381
12.175, 3750
12.1775, 3716
12.18, 3701
12.1825, 3686
12.185, 3631
12.1875, 3566
12.19, 3389
12.1925, 3604
12.195, 3534
12.1975, 3379
12.2, 3261
12.2025, 3219
12.205, 3139
12.2075, 3273
12.21, 3354
12.2125, 3336
12.215, 3663
12.2175, 3674
12.22, 3666
12.2225, 3562
12.225, 3479
12.2275, 3475
12.23, 3638
12.2325, 3415
12.235, 3403
12.2375, 3282
12.24, 3227
12.2425, 3332
12.245, 3574
12.2475, 3394
12.25, 3355
12.2525, 3398
12.255, 3360
12.2575, 3159
12.26, 3224
12.2625, 3058
12.265, 3132
12.2675, 2926
12.27, 2943
12.2725, 3015
12.275, 3116
12.2775, 3107
12.28, 3056
12.2825, 2863
12.285, 2700
12.2875, 2829
12.29, 2972
12.2925, 2882
12.295, 2824
12.2975, 2820
12.3, 2709
12.3025, 2596
12.305, 2689
12.3075, 2784
12.31, 2668
12.3125, 2599
12.315, 2558
12.3175, 2515
12.32, 2613
12.3225, 2514
12.325, 2427
12.3275, 2474
12.33, 2466
12.3325, 2475
12.335, 2599
12.3375, 2796
12.34, 2692
12.3425, 2671
12.345, 2535
12.3475, 2452
12.35, 2555
12.3525, 2538
12.355, 3113
12.3575, 3461
12.36, 3558
12.3625, 3592
12.365, 3499
12.3675, 3379
12.37, 3341
12.3725, 3359
12.375, 3260
12.3775, 3181
12.38, 3046
12.3825, 2974
12.385, 2908
12.3875, 2887
12.39, 2845
12.3925, 2756
12.395, 2720
12.3975, 2682
12.4, 2695
12.4025, 2748
12.405, 2677
12.4075, 2604
12.41, 2641
12.4125, 2617
12.415, 2600
12.4175, 2575
12.42, 2742
12.4225, 2746
12.425, 2770
12.4275, 2774
12.43, 2899
12.4325, 2968
12.435, 3044
12.4375, 3071
12.44, 2971
12.4425, 2924
12.445, 3195
12.4475, 3226
12.45, 3155
12.4525, 3078
12.455, 2943
12.4575, 3012
12.46, 3053
12.4625, 3051
12.465, 3043
12.4675, 2958
12.47, 2982
12.4725, 2873
12.475, 2788
12.4775, 2729
12.48, 2753
12.4825, 2786
12.485, 2966
12.4875, 2978
12.49, 2851
12.4925, 2832
12.495, 2728
12.4975, 2643
12.5, 2674
12.5025, 2723
12.505, 2716
12.5075, 2674
12.51, 2546
12.5125, 2518
12.515, 2582
12.5175, 2661
12.52, 2625
12.5225, 2554
12.525, 2772
12.5275, 2833
12.53, 2743
12.5325, 2808
12.535, 2823
12.5375, 2732
12.54, 2662
12.5425, 2720
12.545, 2810
12.5475, 2921
12.55, 2940
12.5525, 2948
12.555, 2864
12.5575, 2728
12.56, 2659
12.5625, 2988
12.565, 3040
12.5675, 2898
12.57, 2904
12.5725, 2827
12.575, 2774
12.5775, 2736
12.58, 2700
12.5825, 2734
12.585, 2678
12.5875, 2696
12.59, 2655
12.5925, 2708
12.595, 2724
12.5975, 2656
12.6, 2644
12.6025, 2712
12.605, 2841
12.6075, 2799
12.61, 2930
12.6125, 3016
12.615, 2995
12.6175, 2880
12.62, 2852
12.6225, 2763
12.625, 2736
12.6275, 2763
12.63, 2792
12.6325, 2702
12.635, 2738
12.6375, 2788
12.64, 2882
12.6425, 2824
12.645, 2744
12.6475, 2814
12.65, 2803
12.6525, 2811
12.655, 2807
12.6575, 2847
12.66, 2802
12.6625, 2784
12.665, 2745
12.6675, 2625
12.67, 2605
12.6725, 2576
12.675, 2581
12.6775, 2544
12.68, 2710
12.6825, 2651
12.685, 2512
12.6875, 2443
12.69, 2420
12.6925, 2302
12.695, 2246
12.6975, 2364
12.7, 2401
12.7025, 2450
12.705, 2482
12.7075, 2466
12.71, 2473
12.7125, 2450
12.715, 2440
12.7175, 2451
12.72, 2401
12.7225, 2401
12.725, 2364
12.7275, 2376
12.73, 2331
12.7325, 2235
12.735, 2244
12.7375, 2451
12.74, 2496
12.7425, 2336
12.745, 2343
12.7475, 2281
12.75, 2281
12.7525, 2336
12.755, 2264
12.7575, 2193
12.76, 2107
12.7625, 2027
12.765, 2044
12.7675, 2094
12.77, 2212
12.7725, 2515
12.775, 2526
12.7775, 2583
12.78, 2633
12.7825, 2601
12.785, 2591
12.7875, 2565
12.79, 2597
12.7925, 2550
12.795, 2658
12.7975, 2681
12.8, 2530
12.8025, 2429
12.805, 2382
12.8075, 2444
12.81, 2430
12.8125, 2384
12.815, 2423
12.8175, 2498
12.82, 2632
12.8225, 2895
12.825, 3047
12.8275, 3017
12.83, 2940
12.8325, 2917
12.835, 2853
12.8375, 2881
12.84, 3007
12.8425, 2953
12.845, 2867
12.8475, 2831
12.85, 2766
12.8525, 2830
12.855, 2718
12.8575, 2525
12.86, 2640
12.8625, 2956
12.865, 3407
12.8675, 3506
12.87, 3496
12.8725, 3532
12.875, 3694
12.8775, 3672
12.88, 3570
12.8825, 3449
12.885, 3294
12.8875, 3101
12.89, 2942
12.8925, 2805
12.895, 2646
12.8975, 2492
12.9, 2271
12.9025, 2437
12.905, 2722
12.9075, 2928
12.91, 3037
12.9125, 3176
12.915, 3412
12.9175, 3650
12.92, 3897
12.9225, 3708
12.925, 3535
12.9275, 3467
12.93, 3449
12.9325, 3389
12.935, 3545
12.9375, 3525
12.94, 3376
12.9425, 3243
12.945, 3221
12.9475, 3104
12.95, 3089
12.9525, 3145
12.955, 3470
12.9575, 3410
12.96, 3306
12.9625, 3215
12.965, 3202
12.9675, 3188
12.97, 3216
12.9725, 3250
12.975, 3227
12.9775, 3317
12.98, 3405
12.9825, 3477
12.985, 3434
12.9875, 3373
12.99, 3475
12.9925, 3367
12.995, 3431
12.9975, 3492
13.0, 3661
13.0025, 3662
13.005, 3573
13.0075, 3625
13.01, 3729
13.0125, 3568
13.015, 3427
13.0175, 3286
13.02, 3267
13.0225, 3365
13.025, 3377
13.0275, 3435
13.03, 3579
13.0325, 3541
13.035, 3304
13.0375, 3108
13.04, 3026
13.0425, 2967
13.045, 2855
13.0475, 2759
13.05, 2682
13.0525, 2730
13.055, 2609
13.0575, 2591
13.06, 2583
13.0625, 2528
13.065, 2616
13.0675, 2627
13.07, 2773
13.0725, 3224
13.075, 3279
13.0775, 3309
13.08, 3245
13.0825, 3191
13.085, 3138
13.0875, 3018
13.09, 2996
13.0925, 3012
13.095, 2908
13.0975, 2885
13.1, 2908
13.1025, 3027
13.105, 3225
13.1075, 3133
13.11, 2967
13.1125, 2892
13.115, 2847
13.1175, 2750
13.12, 2717
13.1225, 2709
13.125, 2592
13.1275, 2505
13.13, 2429
13.1325, 2363
13.135, 2353
13.1375, 2287
13.14, 2187
13.1425, 2283
13.145, 2199
13.1475, 2302
13.15, 2557
13.1525, 2789
13.155, 2902
13.1575, 3249
13.16, 3313
13.1625, 3243
13.165, 3266
13.1675, 3182
13.17, 3051
13.1725, 2990
13.175, 3025
13.1775, 3147
13.18, 3196
13.1825, 3321
13.185, 3489
13.1875, 3542
13.19, 3384
13.1925, 3300
13.195, 3220
13.1975, 3167
13.2, 3094
13.2025, 3002
13.205, 2969
13.2075, 2940
13.21, 2956
13.2125, 2905
13.215, 2881
13.2175, 2817
13.22, 2811
13.2225, 2730
13.225, 2649
13.2275, 2638
13.23, 2603
13.2325, 2582
13.235, 2678
13.2375, 2635
13.24, 2865
13.2425, 2914
13.245, 2907
13.2475, 2854
13.25, 2851
13.2525, 2742
13.255, 2597
13.2575, 2526
13.26, 2446
13.2625, 2494
13.265, 2555
13.2675, 2477
13.27, 2494
13.2725, 2456
13.275, 2519
13.2775, 2515
13.28, 2524
13.2825, 2559
13.285, 2522
13.2875, 2565
13.29, 2671
13.2925, 2737
13.295, 2803
13.2975, 2816
13.3, 2840
13.3025, 2805
13.305, 2849
13.3075, 2804
13.31, 3054
13.3125, 3220
13.315, 3216
13.3175, 3159
13.32, 3203
13.3225, 3242
13.325, 3123
13.3275, 3069
13.33, 3020
13.3325, 3063
13.335, 3195
13.3375, 3189
13.34, 3295
13.3425, 3303
13.345, 3333
13.3475, 3302
13.35, 3318
13.3525, 3301
13.355, 3323
13.3575, 3330
13.36, 3219
13.3625, 3204
13.365, 3232
13.3675, 3247
13.37, 3222
13.3725, 3249
13.375, 3266
13.3775, 3198
13.38, 3270
13.3825, 3254
13.385, 3289
13.3875, 3329
13.39, 3526
13.3925, 3727
13.395, 3670
13.3975, 3574
13.4, 3372
13.4025, 3318
13.405, 3293
13.4075, 3485
13.41, 3795
13.4125, 3976
13.415, 4015
13.4175, 3937
13.42, 3834
13.4225, 3700
13.425, 3649
13.4275, 3738
13.43, 3676
13.4325, 3772
13.435, 3796
13.4375, 3776
13.44, 3735
13.4425, 3705
13.445, 3838
13.4475, 3714
13.45, 3697
13.4525, 3598
13.455, 3686
13.4575, 3516
13.46, 3515
13.4625, 3584
13.465, 3563
13.4675, 3576
13.47, 3467
13.4725, 3304
13.475, 3179
13.4775, 3070
13.48, 3071
13.4825, 2980
13.485, 3064
13.4875, 3382
13.49, 3021
13.4925, 2821
13.495, 2975
13.4975, 2960
13.5, 2825
13.5025, 2762
13.505, 2954
13.5075, 2799
13.51, 2725
13.5125, 2726
13.515, 2738
13.5175, 2745
13.52, 2706
13.5225, 2748
13.525, 2729
13.5275, 2717
13.53, 2806
13.5325, 2871
13.535, 2937
13.5375, 2985
13.54, 3037
13.5425, 3129
13.545, 3163
13.5475, 3141
13.55, 3169
13.5525, 3167
13.555, 3112
13.5575, 3427
13.56, 3367
13.5625, 3197
13.565, 3226
13.5675, 3228
13.57, 3219
13.5725, 3132
13.575, 3158
13.5775, 3073
13.58, 3081
13.5825, 3038
13.585, 3029
13.5875, 2969
13.59, 2956
13.5925, 2951
13.595, 2995
13.5975, 2955
13.6, 3080
13.6025, 3044
13.605, 3036
13.6075, 2914
13.61, 2853
13.6125, 2682
13.615, 2566
13.6175, 2524
13.62, 2641
13.6225, 2597
13.625, 2483
13.6275, 2430
13.63, 2449
13.6325, 2478
13.635, 2635
13.6375, 2791
13.64, 2895
13.6425, 3037
13.645, 3183
13.6475, 3319
13.65, 3505
13.6525, 3933
13.655, 4214
13.6575, 4236
13.66, 4214
13.6625, 4258
13.665, 4380
13.6675, 4377
13.67, 4361
13.6725, 4349
13.675, 4274
13.6775, 4168
13.68, 4043
13.6825, 4084
13.685, 4065
13.6875, 4057
13.69, 4050
13.6925, 3961
13.695, 3843
13.6975, 3815
13.7, 3775
13.7025, 3666
13.705, 3576
13.7075, 3554
13.71, 3477
13.7125, 3478
13.715, 3385
13.7175, 3310
13.72, 3298
13.7225, 3281
13.725, 3265
13.7275, 3243
13.73, 3296
13.7325, 3241
13.735, 3291
13.7375, 3267
13.74, 3294
13.7425, 3261
13.745, 3270
13.7475, 3277
13.75, 3272
13.7525, 3266
13.755, 3358
13.7575, 3413
13.76, 3488
13.7625, 3538
13.765, 3552
13.7675, 3477
13.77, 3369
13.7725, 3297
13.775, 3304
13.7775, 3228
13.78, 3147
13.7825, 3056
13.785, 3010
13.7875, 2936
13.79, 2799
13.7925, 2842
13.795, 2805
13.7975, 2759
13.8, 2702
13.8025, 2700
13.805, 2677
13.8075, 2700
13.81, 2742
13.8125, 2706
13.815, 2686
13.8175, 2671
13.82, 2619
13.8225, 2572
13.825, 2567
13.8275, 2538
13.83, 2491
13.8325, 2465
13.835, 2462
13.8375, 2418
13.84, 2488
13.8425, 2461
13.845, 2491
13.8475, 2546
13.85, 2520
13.8525, 2526
13.855, 2553
13.8575, 2626
13.86, 2619
13.8625, 2627
13.865, 2650
13.8675, 2670
13.87, 2736
13.8725, 2748
13.875, 2829
13.8775, 2884
13.88, 2929
13.8825, 2998
13.885, 3181
13.8875, 3293
13.89, 3316
13.8925, 3327
13.895, 3345
13.8975, 3356
13.9, 3356
13.9025, 3244
13.905, 3110
13.9075, 3142
13.91, 3116
13.9125, 3053
13.915, 3033
13.9175, 3058
13.92, 3029
13.9225, 3067
13.925, 3026
13.9275, 2998
13.93, 2941
13.9325, 2912
13.935, 2904
13.9375, 2782
13.94, 2751
13.9425, 2785
13.945, 2801
13.9475, 2715
13.95, 2669
13.9525, 2651
13.955, 2693
13.9575, 2720
13.96, 2695
13.9625, 2722
13.965, 2723
13.9675, 2744
13.97, 2843
13.9725, 2831
13.975, 2841
13.9775, 2824
13.98, 2828
13.9825, 2860
13.985, 2767
13.9875, 2831
13.99, 2854
13.9925, 2912
13.995, 2915
13.9975, 2918
14.0, 2971
14.0025, 3008
14.005, 3039
14.0075, 3009
14.01, 2989
14.0125, 2981
14.015, 3027
14.0175, 3062
14.02, 3086
14.0225, 3164
14.025, 3188
14.0275, 3224
14.03, 3275
14.0325, 3283
14.035, 3267
14.0375, 3251
14.04, 3230
14.0425, 3187
14.045, 3170
14.0475, 3145
14.05, 3217
14.0525, 3167
14.055, 3120
14.0575, 3176
14.06, 3161
14.0625, 3175
14.065, 3221
14.0675, 3253
14.07, 3228
14.0725, 3209
14.075, 3188
14.0775, 3124
14.08, 3079
14.0825, 3073
14.085, 3077
14.0875, 3010
14.09, 3011
14.0925, 3039
14.095, 2998
14.0975, 2937
14.1, 2916
14.1025, 2894
14.105, 2855
14.1075, 2877
14.11, 2888
14.1125, 2860
14.115, 2851
14.1175, 2864
14.12, 2889
14.1225, 2849
14.125, 2879
14.1275, 2894
14.13, 2831
14.1325, 2889
14.135, 2935
14.1375, 2964
14.14, 2922
14.1425, 2947
14.145, 3018
14.1475, 3051
14.15, 3034
14.1525, 2975
14.155, 2922
14.1575, 2936
14.16, 2969
14.1625, 3042
14.165, 2979
14.1675, 2961
14.17, 2914
14.1725, 3100
14.175, 2973
14.1775, 3012
14.18, 2989
14.1825, 2954
14.185, 2909
14.1875, 2974
14.19, 2979
14.1925, 2981
14.195, 3013
14.1975, 3005
14.2, 2972
14.2025, 2955
14.205, 2944
14.2075, 2921
14.21, 2932
14.2125, 2846
14.215, 2885
14.2175, 2822
14.22, 2802
14.2225, 2766
14.225, 2803
14.2275, 2805
14.23, 2798
14.2325, 2825
14.235, 2813
14.2375, 2785
14.24, 2762
14.2425, 2745
14.245, 2755
14.2475, 2723
14.25, 2729
14.2525, 2734
14.255, 2766
14.2575, 2767
14.26, 2770
14.2625, 2777
14.265, 2800
14.2675, 2848
14.27, 2826
14.2725, 2780
14.275, 2747
14.2775, 2754
14.28, 2728
14.2825, 2694
14.285, 2753
14.2875, 2777
14.29, 2787
14.2925, 2784
14.295, 2829
14.2975, 2862
14.3, 2867
14.3025, 2793
14.305, 2754
14.3075, 2684
14.31, 2696
14.3125, 2706
14.315, 2701
14.3175, 2676
14.32, 2671
14.3225, 2643
14.325, 2733
14.3275, 2797
14.33, 2768
14.3325, 2773
14.335, 2741
14.3375, 2752
14.34, 2810
14.3425, 2847
14.345, 2861
14.3475, 2839
14.35, 2821
14.3525, 2756
14.355, 2743
14.3575, 2699
14.36, 2678
14.3625, 2673
14.365, 2591
14.3675, 2589
14.37, 2509
14.3725, 2567
14.375, 2623
14.3775, 2745
14.38, 2834
14.3825, 3000
14.385, 3088
14.3875, 3141
14.39, 3169
14.3925, 3139
14.395, 3155
14.3975, 3245
14.4, 3203
14.4025, 3152
14.405, 3129
14.4075, 3151
14.41, 3100
14.4125, 3103
14.415, 3049
14.4175, 3045
14.42, 3232
14.4225, 3242
14.425, 3311
14.4275, 3218
14.43, 3192
14.4325, 3156
14.435, 3083
14.4375, 3035
14.44, 3054
14.4425, 3068
14.445, 3066
14.4475, 3068
14.45, 3038
14.4525, 2993
14.455, 2984
14.4575, 2967
14.46, 2945
14.4625, 2926
14.465, 2855
14.4675, 2826
14.47, 2783
14.4725, 2742
14.475, 2750
14.4775, 2770
14.48, 2808
14.4825, 2785
14.485, 2836
14.4875, 2860
14.49, 2810
14.4925, 2851
14.495, 2905
14.4975, 2931
14.5, 3019
14.5025, 3008
14.505, 2935
14.5075, 2937
14.51, 2932
14.5125, 2952
14.515, 2923
14.5175, 2740
14.52, 2656
14.5225, 2622
14.525, 2686
14.5275, 2667
14.53, 2674
14.5325, 2654
14.535, 2675
14.5375, 2742
14.54, 2710
14.5425, 2805
14.545, 2787
14.5475, 2672
14.55, 2745
14.5525, 2652
14.555, 2584
14.5575, 2548
14.56, 2495
14.5625, 2479
14.565, 2507
14.5675, 2434
14.57, 2436
14.5725, 2368
14.575, 2786
14.5775, 2963
14.58, 2942
14.5825, 2933
14.585, 2895
14.5875, 2883
14.59, 2851
14.5925, 2827
14.595, 2776
14.5975, 2733
14.6, 2723
14.6025, 2662
14.605, 2646
14.6075, 2665
14.61, 2630
14.6125, 2584
14.615, 2560
14.6175, 2618
14.62, 2521
14.6225, 2462
14.625, 2438
14.6275, 2465
14.63, 2472
14.6325, 2428
14.635, 2401
14.6375, 2357
14.64, 2343
14.6425, 2243
14.645, 2217
14.6475, 2254
14.65, 2254
14.6525, 2344
14.655, 2407
14.6575, 2365
14.66, 2334
14.6625, 2281
14.665, 2224
14.6675, 2212
14.67, 2293
14.6725, 2322
14.675, 2851
14.6775, 3009
14.68, 3045
14.6825, 3082
14.685, 3014
14.6875, 3047
14.69, 3023
14.6925, 2967
14.695, 2886
14.6975, 2879
14.7, 2882
14.7025, 2871
14.705, 2846
14.7075, 2797
14.71, 2769
14.7125, 2775
14.715, 2726
14.7175, 2753
14.72, 2865
14.7225, 2966
14.725, 3010
14.7275, 3042
14.73, 3167
14.7325, 3154
14.735, 3169
14.7375, 3189
14.74, 3188
14.7425, 3231
14.745, 3512
14.7475, 3534
14.75, 3435
14.7525, 3415
14.755, 3349
14.7575, 3314
14.76, 3238
14.7625, 3146
14.765, 3111
14.7675, 3044
14.77, 3033
14.7725, 3252
14.775, 3325
14.7775, 3382
14.78, 3447
14.7825, 3456
14.785, 3595
14.7875, 3386
14.79, 3372
14.7925, 3427
14.795, 3357
14.7975, 3416
14.8, 3395
14.8025, 3536
14.805, 3603
14.8075, 3242
14.81, 3147
14.8125, 3095
14.815, 3030
14.8175, 3041
14.82, 3134
14.8225, 3182
14.825, 3220
14.8275, 3285
14.83, 3259
14.8325, 3452
14.835, 3550
14.8375, 3564
14.84, 3531
14.8425, 3584
14.845, 3692
14.8475, 3675
14.85, 3650
14.8525, 3630
14.855, 3546
14.8575, 3479
14.86, 3440
14.8625, 3398
14.865, 3302
14.8675, 3264
14.87, 3274
14.8725, 3288
14.875, 3232
14.8775, 3195
14.88, 3228
14.8825, 3200
14.885, 3141
14.8875, 3034
14.89, 3010
14.8925, 3022
14.895, 3093
14.8975, 3180
14.9, 3052
14.9025, 3197
14.905, 3173
14.9075, 3089
14.91, 3044
14.9125, 2988
14.915, 2948
14.9175, 2842
14.92, 2877
14.9225, 2867
14.925, 2813
14.9275, 2761
14.93, 2748
14.9325, 2759
14.935, 2709
14.9375, 2703
14.94, 2745
14.9425, 2788
14.945, 2816
14.9475, 2857
14.95, 2902
14.9525, 2856
14.955, 2802
14.9575, 2771
14.96, 2772
14.9625, 2709
14.965, 2671
14.9675, 2651
14.97, 2667
14.9725, 2666
14.975, 2627
14.9775, 2575
14.98, 2560
14.9825, 2540
14.985, 2560
14.9875, 2553
14.99, 2560
14.9925, 2546
14.995, 2470
14.9975, 2447
15.0, 2433
15.0025, 2403
15.005, 2382
15.0075, 2414
15.01, 2386
15.0125, 2410
15.015, 2418
15.0175, 2415
15.02, 2409
15.0225, 2318
15.025, 2337
15.0275, 2348
15.03, 2339
15.0325, 2346
15.035, 2357
15.0375, 2348
15.04, 2320
15.0425, 2337
15.045, 2318
15.0475, 2307
15.05, 2307
15.0525, 2376
15.055, 2367
15.0575, 2328
15.06, 2310
15.0625, 2312
15.065, 2346
15.0675, 2406
15.07, 2383
15.0725, 2466
15.075, 2507
15.0775, 2496
15.08, 2493
15.0825, 2506
15.085, 2471
15.0875, 2469
15.09, 2489
15.0925, 2473
15.095, 2506
15.0975, 2489
15.1, 2495
15.1025, 2505
15.105, 2540
15.1075, 2593
15.11, 2540
15.1125, 2554
15.115, 2531
15.1175, 2572
15.12, 2506
15.1225, 2475
15.125, 2397
15.1275, 2303
15.13, 2272
15.1325, 2267
15.135, 2201
15.1375, 2230
15.14, 2239
15.1425, 2316
15.145, 2376
15.1475, 2443
15.15, 2574
15.1525, 2742
15.155, 2885
15.1575, 2942
15.16, 2973
15.1625, 2961
15.165, 3245
15.1675, 3333
15.17, 3250
15.1725, 3185
15.175, 3086
15.1775, 3033
15.18, 2966
15.1825, 2909
15.185, 2886
15.1875, 2819
15.19, 2798
15.1925, 2835
15.195, 2864
15.1975, 2824
15.2, 2796
15.2025, 2837
15.205, 3126
15.2075, 3599
15.21, 3790
15.2125, 3904
15.215, 3887
15.2175, 3938
15.22, 3903
15.2225, 3478
15.225, 3152
15.2275, 2996
15.23, 2951
15.2325, 2905
15.235, 2844
15.2375, 2770
15.24, 2782
15.2425, 2728
15.245, 2720
15.2475, 2758
15.25, 2738
15.2525, 2779
15.255, 2805
15.2575, 2784
15.26, 2789
15.2625, 2788
15.265, 2827
15.2675, 2844
15.27, 2780
15.2725, 2751
15.275, 2847
15.2775, 2830
15.28, 2817
15.2825, 2825
15.285, 2778
15.2875, 2760
15.29, 2724
15.2925, 2732
15.295, 2729
15.2975, 2702
15.3, 2710
15.3025, 2676
15.305, 2662
15.3075, 2686
15.31, 2709
15.3125, 2812
15.315, 2814
15.3175, 2867
15.32, 2904
15.3225, 2903
15.325, 2859
15.3275, 2881
15.33, 2867
15.3325, 2928
15.335, 3005
15.3375, 3258
15.34, 3601
15.3425, 3760
15.345, 3849
15.3475, 3892
15.35, 3931
15.3525, 3948
15.355, 3891
15.3575, 3680
15.36, 3449
15.3625, 3335
15.365, 3298
15.3675, 3194
15.37, 3149
15.3725, 3132
15.375, 3142
15.3775, 3110
15.38, 3087
15.3825, 3113
15.385, 3094
15.3875, 3009
15.39, 2962
15.3925, 2932
15.395, 2884
15.3975, 2879
15.4, 2872
15.4025, 2887
15.405, 2946
15.4075, 2977
15.41, 2964
15.4125, 2959
15.415, 2944
15.4175, 2942
15.42, 2966
15.4225, 2984
15.425, 3012
15.4275, 3010
15.43, 3056
15.4325, 3076
15.435, 3087
15.4375, 3083
15.44, 3103
15.4425, 3070
15.445, 3087
15.4475, 3149
15.45, 3323
15.4525, 3117
15.455, 3051
15.4575, 3013
15.46, 3016
15.4625, 2993
15.465, 3015
15.4675, 2989
15.47, 3030
15.4725, 3068
15.475, 3081
15.4775, 3004
15.48, 2983
15.4825, 3211
15.485, 3107
15.4875, 3027
15.49, 2939
15.4925, 2919
15.495, 2876
15.4975, 2858
15.5, 2855
15.5025, 2909
15.505, 2919
15.5075, 2984
15.51, 2957
15.5125, 2907
15.515, 2901
15.5175, 2937
15.52, 3180
15.5225, 3034
15.525, 2962
15.5275, 2964
15.53, 2920
15.5325, 2896
15.535, 2851
15.5375, 2869
15.54, 2921
15.5425, 2910
15.545, 2976
15.5475, 2954
15.55, 2879
15.5525, 2902
15.555, 2972
15.5575, 3213
15.56, 3120
15.5625, 3106
15.565, 3066
15.5675, 3019
15.57, 3035
15.5725, 3046
15.575, 3049
15.5775, 3062
15.58, 3068
15.5825, 2997
15.585, 2956
15.5875, 2920
15.59, 2935
15.5925, 2960
15.595, 2946
15.5975, 2957
15.6, 2945
15.6025, 3301
15.605, 3384
15.6075, 3090
15.61, 2999
15.6125, 2926
15.615, 2961
15.6175, 2930
15.62, 2940
15.6225, 2953
15.625, 2948
15.6275, 2990
15.63, 2964
15.6325, 2978
15.635, 2976
15.6375, 2961
15.64, 2974
15.6425, 2955
15.645, 2943
15.6475, 2931
15.65, 2942
15.6525, 2947
15.655, 2898
15.6575, 3274
15.66, 3361
15.6625, 3089
15.665, 2976
15.6675, 3053
15.67, 3035
15.6725, 2978
15.675, 2948
15.6775, 2956
15.68, 2984
15.6825, 2980
15.685, 3000
15.6875, 3024
15.69, 3080
15.6925, 3142
15.695, 3168
15.6975, 3225
15.7, 3152
15.7025, 3111
15.705, 3117
15.7075, 3100
15.71, 3037
15.7125, 3017
15.715, 3001
15.7175, 3008
15.72, 3037
15.7225, 3017
15.725, 2984
15.7275, 2984
15.73, 3263
15.7325, 3474
15.735, 3184
15.7375, 3088
15.74, 2984
15.7425, 2929
15.745, 2891
15.7475, 2851
15.75, 2836
15.7525, 2806
15.755, 2777
15.7575, 2783
15.76, 2802
15.7625, 2840
15.765, 2832
15.7675, 2811
15.77, 2809
15.7725, 2836
15.775, 2837
15.7775, 2861
15.78, 2847
15.7825, 2893
15.785, 2899
15.7875, 2905
15.79, 2936
15.7925, 2965
15.795, 2973
15.7975, 2904
15.8, 2892
15.8025, 2862
15.805, 2866
15.8075, 2843
15.81, 2816
15.8125, 2829
15.815, 2865
15.8175, 2876
15.82, 2868
15.8225, 2838
15.825, 2837
15.8275, 2842
15.83, 2813
15.8325, 2770
15.835, 2748
15.8375, 2705
15.84, 2698
15.8425, 2688
15.845, 2700
15.8475, 2736
15.85, 2731
15.8525, 2681
15.855, 2622
15.8575, 2592
15.86, 2587
15.8625, 2498
15.865, 2489
15.8675, 2491
15.87, 2427
15.8725, 2434
15.875, 2411
15.8775, 2362
15.88, 2276
15.8825, 2193
15.885, 2153
15.8875, 2138
15.89, 2074
15.8925, 2058
15.895, 2106
15.8975, 2010
15.9, 1866
15.9025, 1852
15.905, 1920
15.9075, 2056
15.91, 2254
15.9125, 2446
15.915, 2624
15.9175, 2723
15.92, 2918
15.9225, 3467
15.925, 3781
15.9275, 3733
15.93, 3699
15.9325, 3934
15.935, 4296
15.9375, 4578
15.94, 4650
15.9425, 4592
15.945, 4537
15.9475, 4523
15.95, 4490
15.9525, 4457
15.955, 4367
15.9575, 4331
15.96, 4273
15.9625, 4221
15.965, 4245
15.9675, 4188
15.97, 4137
15.9725, 4075
15.975, 4028
15.9775, 4032
15.98, 3996
15.9825, 3879
15.985, 3744
15.9875, 3706
15.99, 3706
15.9925, 3600
15.995, 3541
15.9975, 3592
16.0, 3803
16.0025, 3948
16.005, 3981
16.0075, 4008
16.01, 3990
16.0125, 3925
16.015, 3895
16.0175, 3889
16.02, 3899
16.0225, 3889
16.025, 3886
16.0275, 3866
16.03, 3877
16.0325, 3888
16.035, 3875
16.0375, 3845
16.04, 3856
16.0425, 3799
16.045, 3742
16.0475, 3701
16.05, 3700
16.0525, 3721
16.055, 3693
16.0575, 3612
16.06, 3549
16.0625, 3563
16.065, 3556
16.0675, 3554
16.07, 3522
16.0725, 3424
16.075, 3371
16.0775, 3346
16.08, 3519
16.0825, 3313
16.085, 3317
16.0875, 3312
16.09, 3295
16.0925, 3320
16.095, 3596
16.0975, 3719
16.1, 3749
16.1025, 3701
16.105, 3613
16.1075, 3591
16.11, 3717
16.1125, 3770
16.115, 3689
16.1175, 3600
16.12, 3490
16.1225, 3416
16.125, 3296
16.1275, 3370
16.13, 3512
16.1325, 3515
16.135, 3471
16.1375, 3462
16.14, 3544
16.1425, 3567
16.145, 3445
16.1475, 3386
16.15, 3275
16.1525, 3202
16.155, 3099
16.1575, 3077
16.16, 3007
16.1625, 2936
16.165, 2998
16.1675, 3094
16.17, 3043
16.1725, 3042
16.175, 2937
16.1775, 2814
16.18, 2692
16.1825, 2616
16.185, 2592
16.1875, 2552
16.19, 2497
16.1925, 2553
16.195, 2483
16.1975, 2453
16.2, 2366
16.2025, 2329
16.205, 2241
16.2075, 2179
16.21, 2089
16.2125, 2055
16.215, 2037
16.2175, 2035
16.22, 2020
16.2225, 2019
16.225, 1997
16.2275, 2024
16.23, 2065
16.2325, 2096
16.235, 2107
16.2375, 2178
16.24, 2179
16.2425, 2187
16.245, 2314
16.2475, 2308
16.25, 2276
16.2525, 2266
16.255, 2224
16.2575, 2201
16.26, 2155
16.2625, 2135
16.265, 2085
16.2675, 2087
16.27, 2116
16.2725, 2180
16.275, 2144
16.2775, 2112
16.28, 2093
16.2825, 2124
16.285, 2139
16.2875, 2174
16.29, 2572
16.2925, 2567
16.295, 2568
16.2975, 2774
16.3, 2863
16.3025, 2877
16.305, 2852
16.3075, 2871
16.31, 2941
16.3125, 3242
16.315, 3080
16.3175, 3012
16.32, 3420
16.3225, 3228
16.325, 3012
16.3275, 2838
16.33, 2504
16.3325, 2497
16.335, 2463
16.3375, 2909
16.34, 3263
16.3425, 3158
16.345, 3015
16.3475, 3018
16.35, 3035
16.3525, 2965
16.355, 2931
16.3575, 2874
16.36, 2871
16.3625, 2909
16.365, 2899
16.3675, 2960
16.37, 3205
16.3725, 3594
16.375, 3697
16.3775, 3695
16.38, 3553
16.3825, 3428
16.385, 3215
16.3875, 3050
16.39, 2968
16.3925, 2902
16.395, 2911
16.3975, 2924
16.4, 2889
16.4025, 2906
16.405, 2810
16.4075, 2773
16.41, 2725
16.4125, 2694
16.415, 2763
16.4175, 3286
16.42, 3401
16.4225, 2996
16.425, 2806
16.4275, 2758
16.43, 2910
16.4325, 2941
16.435, 2899
16.4375, 2782
16.44, 2650
16.4425, 2592
16.445, 2487
16.4475, 2347
16.45, 2261
16.4525, 2177
16.455, 2112
16.4575, 2414
16.46, 2764
16.4625, 3180
16.465, 3372
16.4675, 3390
16.47, 3322
16.4725, 3214
16.475, 3058
16.4775, 2959
16.48, 2779
16.4825, 2733
16.485, 2680
16.4875, 2546
16.49, 2536
16.4925, 2655
16.495, 2696
16.4975, 2721
16.5, 2597
16.5025, 2624
16.505, 2688
16.5075, 2744
16.51, 2710
16.5125, 2607
16.515, 2646
16.5175, 2584
16.52, 2497
16.5225, 2429
16.525, 2553
16.5275, 2559
16.53, 2517
16.5325, 2555
16.535, 2694
16.5375, 2638
16.54, 2538
16.5425, 2652
16.545, 2672
16.5475, 2662
16.55, 2655
16.5525, 2778
16.555, 2974
16.5575, 2900
16.56, 2859
16.5625, 2883
16.565, 2799
16.5675, 2836
16.57, 2902
16.5725, 2934
16.575, 2890
16.5775, 2975
16.58, 2921
16.5825, 2873
16.585, 2756
16.5875, 2849
16.59, 2707
16.5925, 2602
16.595, 2532
16.5975, 2483
16.6, 2462
16.6025, 2400
16.605, 2396
16.6075, 2438
16.61, 2677
16.6125, 2897
16.615, 3129
16.6175, 3185
16.62, 3235
16.6225, 3247
16.625, 3228
16.6275, 3273
16.63, 3418
16.6325, 3334
16.635, 3393
16.6375, 3407
16.64, 3364
16.6425, 3497
16.645, 3522
16.6475, 3532
16.65, 3480
16.6525, 3419
16.655, 3333
16.6575, 3341
16.66, 3282
16.6625, 3277
16.665, 3317
16.6675, 3328
16.67, 3320
16.6725, 3365
16.675, 3358
16.6775, 3330
16.68, 3353
16.6825, 3489
16.685, 3551
16.6875, 3472
16.69, 3320
16.6925, 3298
16.695, 3294
16.6975, 3245
16.7, 3285
16.7025, 3176
16.705, 3064
16.7075, 3091
16.71, 3078
16.7125, 3127
16.715, 3126
16.7175, 3110
16.72, 3128
16.7225, 3054
16.725, 3019
16.7275, 3082
16.73, 3105
16.7325, 3080
16.735, 3025
16.7375, 2964
16.74, 2928
16.7425, 3227
16.745, 3318
16.7475, 3370
16.75, 3343
16.7525, 3413
16.755, 3458
16.7575, 3499
16.76, 3416
16.7625, 3417
16.765, 3382
16.7675, 3268
16.77, 3182
16.7725, 3054
16.775, 2922
16.7775, 2955
16.78, 2835
16.7825, 2754
16.785, 2779
16.7875, 2850
16.79, 2827
16.7925, 2941
16.795, 2986
16.7975, 3012
16.8, 2945
16.8025, 2919
16.805, 2935
16.8075, 2950
16.81, 2923
16.8125, 2946
16.815, 2971
16.8175, 3003
16.82, 3027
16.8225, 3054
16.825, 3058
16.8275, 3122
16.83, 3085
16.8325, 3024
16.835, 3018
16.8375, 3030
16.84, 3069
16.8425, 3188
16.845, 3097
16.8475, 3036
16.85, 3098
16.8525, 3158
16.855, 3175
16.8575, 3180
16.86, 3211
16.8625, 3144
16.865, 3136
16.8675, 3083
16.87, 3175
16.8725, 3225
16.875, 3186
16.8775, 3069
16.88, 3027
16.8825, 3105
16.885, 3051
16.8875, 2920
16.89, 3150
16.8925, 3254
16.895, 3113
16.8975, 3038
16.9, 3033
16.9025, 2992
16.905, 2940
16.9075, 3150
16.91, 3026
16.9125, 2970
16.915, 3100
16.9175, 3095
16.92, 3098
16.9225, 3151
16.925, 3407
16.9275, 3506
16.93, 4032
16.9325, 4529
16.935, 4617
16.9375, 4491
16.94, 4403
16.9425, 4405
16.945, 4347
16.9475, 4259
16.95, 4236
16.9525, 4117
16.955, 4225
16.9575, 4438
16.96, 4386
16.9625, 4228
16.965, 3981
16.9675, 4029
16.97, 4157
16.9725, 4164
16.975, 4092
16.9775, 3980
16.98, 3961
16.9825, 3724
16.985, 3859
16.9875, 4026
16.99, 4046
16.9925, 3983
16.995, 3955
16.9975, 3806
17.0, 3798
17.0025, 3787
17.005, 3805
17.0075, 3875
17.01, 3908
17.0125, 3910
17.015, 4034
17.0175, 3848
17.02, 3753
17.0225, 3697
17.025, 3682
17.0275, 3674
17.03, 3900
17.0325, 4026
17.035, 4172
17.0375, 4096
17.04, 3976
17.0425, 3915
17.045, 3835
17.0475, 3758
17.05, 3712
17.0525, 3616
17.055, 3612
17.0575, 3435
17.06, 3201
17.0625, 3430
17.065, 3462
17.0675, 3344
17.07, 3226
17.0725, 3155
17.075, 3103
17.0775, 3090
17.08, 3102
17.0825, 3048
17.085, 2980
17.0875, 2922
17.09, 2959
17.0925, 2964
17.095, 2952
17.0975, 2941
17.1, 2892
17.1025, 2939
17.105, 2961
17.1075, 2902
17.11, 2875
17.1125, 2917
17.115, 3151
17.1175, 3343
17.12, 3315
17.1225, 3204
17.125, 3082
17.1275, 3053
17.13, 3097
17.1325, 3121
17.135, 3107
17.1375, 3087
17.14, 3031
17.1425, 3074
17.145, 3160
17.1475, 3387
17.15, 3567
17.1525, 3770
17.155, 3803
17.1575, 3816
17.16, 3832
17.1625, 3748
17.165, 3738
17.1675, 3731
17.17, 3831
17.1725, 3774
17.175, 3731
17.1775, 3629
17.18, 3523
17.1825, 3439
17.185, 3358
17.1875, 3186
17.19, 3100
17.1925, 3168
17.195, 3373
17.1975, 3274
17.2, 3178
17.2025, 3137
17.205, 3120
17.2075, 3082
17.21, 3056
17.2125, 3102
17.215, 3057
17.2175, 2971
17.22, 2962
17.2225, 2898
17.225, 2847
17.2275, 2791
17.23, 2760
17.2325, 2724
17.235, 2724
17.2375, 2722
17.24, 2718
17.2425, 2746
17.245, 2769
17.2475, 2786
17.25, 2823
17.2525, 2794
17.255, 2883
17.2575, 2860
17.26, 2843
17.2625, 2811
17.265, 2874
17.2675, 2849
17.27, 2776
17.2725, 2812
17.275, 2812
17.2775, 2902
17.28, 3034
17.2825, 3211
17.285, 3398
17.2875, 3452
17.29, 3280
17.2925, 3156
17.295, 3075
17.2975, 2953
17.3, 2814
17.3025, 2749
17.305, 2696
17.3075, 2713
17.31, 2662
17.3125, 2608
17.315, 2592
17.3175, 2518
17.32, 2418
17.3225, 2318
17.325, 2288
17.3275, 2278
17.33, 2334
17.3325, 2368
17.335, 2331
17.3375, 2250
17.34, 2280
17.3425, 2293
17.345, 2264
17.3475, 2267
17.35, 2307
17.3525, 2305
17.355, 2365
17.3575, 2265
17.36, 2219
17.3625, 2217
17.365, 2247
17.3675, 2341
17.37, 2429
17.3725, 2536
17.375, 2899
17.3775, 2757
17.38, 2802
17.3825, 2969
17.385, 3023
17.3875, 2983
17.39, 2966
17.3925, 2923
17.395, 2932
17.3975, 3049
17.4, 3084
17.4025, 3119
17.405, 3157
17.4075, 3137
17.41, 3121
17.4125, 3174
17.415, 3089
17.4175, 3150
17.42, 3117
17.4225, 3128
17.425, 3077
17.4275, 3093
17.43, 3155
17.4325, 3253
17.435, 3222
17.4375, 3167
17.44, 3104
17.4425, 3038
17.445, 3072
17.4475, 3058
17.45, 3003
17.4525, 2911
17.455, 2899
17.4575, 2780
17.46, 2741
17.4625, 2696
17.465, 2685
17.4675, 2677
17.47, 2725
17.4725, 2692
17.475, 2657
17.4775, 2637
17.48, 2581
17.4825, 2585
17.485, 2561
17.4875, 2631
17.49, 2679
17.4925, 2722
17.495, 2789
17.4975, 3079
17.5, 3052
17.5025, 3051
17.505, 3054
17.5075, 3054
17.51, 3089
17.5125, 3108
17.515, 3082
17.5175, 3110
17.52, 3156
17.5225, 3181
17.525, 3192
17.5275, 3240
17.53, 3320
17.5325, 3444
17.535, 3561
17.5375, 3416
17.54, 3411
17.5425, 3321
17.545, 3240
17.5475, 3208
17.55, 3176
17.5525, 3266
17.555, 3248
17.5575, 3242
17.56, 3342
17.5625, 3362
17.565, 3220
17.5675, 3115
17.57, 3082
17.5725, 3023
17.575, 3020
17.5775, 3026
17.58, 3030
17.5825, 2887
17.585, 2813
17.5875, 2853
17.59, 3089
17.5925, 3112
17.595, 3006
17.5975, 2927
17.6, 2929
17.6025, 2922
17.605, 2933
17.6075, 2984
17.61, 3007
17.6125, 2882
17.615, 2808
17.6175, 2748
17.62, 2683
17.6225, 2623
17.625, 2642
17.6275, 2580
17.63, 2602
17.6325, 2590
17.635, 2593
17.6375, 2680
17.64, 2657
17.6425, 2642
17.645, 2736
17.6475, 2760
17.65, 3017
17.6525, 2954
17.655, 2880
17.6575, 2770
17.66, 2660
17.6625, 2486
17.665, 2092
17.6675, 1904
17.67, 1835
17.6725, 1773
17.675, 1745
17.6775, 1667
17.68, 1672
17.6825, 1737
17.685, 1718
17.6875, 1680
17.69, 1642
17.6925, 1690
17.695, 1701
17.6975, 1709
17.7, 1629
17.7025, 1571
17.705, 1599
17.7075, 1677
17.71, 1733
17.7125, 1671
17.715, 1676
17.7175, 1693
17.72, 1702
17.7225, 1759
17.725, 1864
17.7275, 2068
17.73, 2366
17.7325, 2457
17.735, 2454
17.7375, 2420
17.74, 2458
17.7425, 2477
17.745, 2519
17.7475, 2536
17.75, 2476
17.7525, 2503
17.755, 2533
17.7575, 2579
17.76, 2601
17.7625, 2561
17.765, 2635
17.7675, 2684
17.77, 2630
17.7725, 2657
17.775, 2663
17.7775, 2598
17.78, 2633
17.7825, 2734
17.785, 2843
17.7875, 2785
17.79, 2758
17.7925, 2731
17.795, 2778
17.7975, 2770
17.8, 2761
17.8025, 2787
17.805, 2757
17.8075, 2749
17.81, 2835
17.8125, 2943
17.815, 2987
17.8175, 2924
17.82, 2894
17.8225, 2878
17.825, 2961
17.8275, 2960
17.83, 2921
17.8325, 2888
17.835, 2928
17.8375, 2988
17.84, 3041
17.8425, 3103
17.845, 3313
17.8475, 3369
17.85, 3295
17.8525, 3190
17.855, 3158
17.8575, 3053
17.86, 3055
17.8625, 3267
17.865, 3331
17.8675, 3351
17.87, 3325
17.8725, 3295
17.875, 3319
17.8775, 3293
17.88, 3288
17.8825, 3423
17.885, 3243
17.8875, 3243
17.89, 3209
17.8925, 3199
17.895, 3163
17.8975, 3110
17.9, 3063
17.9025, 3099
17.905, 3092
17.9075, 3099
17.91, 3144
17.9125, 3156
17.915, 3157
17.9175, 3284
17.92, 3359
17.9225, 3320
17.925, 3339
17.9275, 3394
17.93, 3383
17.9325, 3387
17.935, 3431
17.9375, 3443
17.94, 3471
17.9425, 3511
17.945, 3476
17.9475, 3386
17.95, 3293
17.9525, 3247
17.955, 3111
17.9575, 3008
17.96, 2939
17.9625, 3006
17.965, 2983
17.9675, 3005
17.97, 3033
17.9725, 3053
17.975, 3129
17.9775, 3224
17.98, 3299
17.9825, 3410
17.985, 3423
17.9875, 3451
17.99, 3503
17.9925, 3520
17.995, 3537
17.9975, 3578
18.0, 3499
18.0025, 3278
18.005, 3260
18.0075, 3277
18.01, 3220
18.0125, 3459
18.015, 3601
18.0175, 3632
18.02, 3601
18.0225, 3555
18.025, 3554
18.0275, 3499
18.03, 3473
18.0325, 3470
18.035, 3482
18.0375, 3465
18.04, 3444
18.0425, 3437
18.045, 3383
18.0475, 3380
18.05, 3338
18.0525, 3314
18.055, 3284
18.0575, 3217
18.06, 3215
18.0625, 3279
18.065, 3349
18.0675, 3349
18.07, 3362
18.0725, 3363
18.075, 3457
18.0775, 3529
18.08, 3482
18.0825, 3499
18.085, 3450
18.0875, 3429
18.09, 3376
18.0925, 3382
18.095, 3414
18.0975, 3454
18.1, 3439
18.1025, 3425
18.105, 3382
18.1075, 3343
18.11, 3345
18.1125, 3292
18.115, 3275
18.1175, 3258
18.12, 3343
18.1225, 2906
18.125, 2719
18.1275, 2626
18.13, 2696
18.1325, 2940
18.135, 3114
18.1375, 2655
18.14, 2435
18.1425, 2493
18.145, 2656
18.1475, 2791
18.15, 2518
18.1525, 2447
18.155, 2541
18.1575, 2781
18.16, 2613
18.1625, 2501
18.165, 2519
18.1675, 2521
18.17, 2647
18.1725, 2965
18.175, 2812
18.1775, 2659
18.18, 2615
18.1825, 2671
18.185, 2846
18.1875, 2555
18.19, 2541
18.1925, 2609
18.195, 2791
18.1975, 3103
18.2, 3157
18.2025, 3115
18.205, 3166
18.2075, 3119
18.21, 3099
18.2125, 3069
18.215, 3040
18.2175, 3081
18.22, 3114
18.2225, 3163
18.225, 3152
18.2275, 3134
18.23, 3126
18.2325, 3135
18.235, 3119
18.2375, 3122
18.24, 3115
18.2425, 3204
18.245, 2952
18.2475, 2798
18.25, 2818
18.2525, 2885
18.255, 3156
18.2575, 2817
18.26, 2673
18.2625, 2638
18.265, 2737
18.2675, 2873
18.27, 2827
18.2725, 2661
18.275, 2675
18.2775, 2725
18.28, 2824
18.2825, 2994
18.285, 3150
18.2875, 3406
18.29, 3198
18.2925, 2943
18.295, 2916
18.2975, 3010
18.3, 3040
18.3025, 3127
18.305, 3069
18.3075, 2832
18.31, 2793
18.3125, 2789
18.315, 2884
18.3175, 2918
18.32, 3227
18.3225, 2775
18.325, 2666
18.3275, 2680
18.33, 2697
18.3325, 2820
18.335, 2930
18.3375, 3088
18.34, 2951
18.3425, 2718
18.345, 2701
18.3475, 2696
18.35, 2725
18.3525, 2887
18.355, 2947
18.3575, 3266
18.36, 2838
18.3625, 2578
18.365, 2590
18.3675, 2797
18.37, 2972
18.3725, 3125
18.375, 3300
18.3775, 3524
18.38, 3698
18.3825, 3574
18.385, 3093
18.3875, 3025
18.39, 2993
18.3925, 2952
18.395, 3146
18.3975, 3025
18.4, 3088
18.4025, 3091
18.405, 3159
18.4075, 3477
18.41, 3289
18.4125, 3307
18.415, 3378
18.4175, 3453
18.42, 3554
18.4225, 3676
18.425, 3550
18.4275, 3587
18.43, 3600
18.4325, 3626
18.435, 3582
18.4375, 3631
18.44, 3827
18.4425, 3607
18.445, 3539
18.4475, 3466
18.45, 3508
18.4525, 3521
18.455, 3676
18.4575, 3968
18.46, 3686
18.4625, 3513
18.465, 3459
18.4675, 3432
18.47, 3408
18.4725, 3467
18.475, 3531
18.4775, 3798
18.48, 3444
18.4825, 3350
18.485, 3320
18.4875, 3297
18.49, 3295
18.4925, 3415
18.495, 3506
18.4975, 3163
18.5, 3095
18.5025, 3078
18.505, 3058
18.5075, 3255
18.51, 3039
18.5125, 2989
18.515, 3054
18.5175, 3146
18.52, 3109
18.5225, 3358
18.525, 3117
18.5275, 3060
18.53, 3089
18.5325, 3146
18.535, 3203
18.5375, 3302
18.54, 3209
18.5425, 3058
18.545, 3053
18.5475, 3072
18.55, 3103
18.5525, 3134
18.555, 3133
18.5575, 3441
18.56, 3253
18.5625, 3039
18.565, 3166
18.5675, 2990
18.57, 3012
18.5725, 3048
18.575, 3179
18.5775, 3099
18.58, 2972
18.5825, 2956
18.585, 2956
18.5875, 2950
18.59, 2967
18.5925, 2943
18.595, 3013
18.5975, 3122
18.6, 3127
18.6025, 3009
18.605, 3075
18.6075, 3080
18.61, 3336
18.6125, 3105
18.615, 3047
18.6175, 3391
18.62, 3565
18.6225, 3677
18.625, 3808
18.6275, 3835
18.63, 3848
18.6325, 3853
18.635, 3828
18.6375, 3827
18.64, 3843
18.6425, 3854
18.645, 3791
18.6475, 3785
18.65, 3787
18.6525, 3749
18.655, 3704
18.6575, 3655
18.66, 3650
18.6625, 3666
18.665, 3676
18.6675, 3593
18.67, 3699
18.6725, 3423
18.675, 3342
18.6775, 3276
18.68, 3214
18.6825, 3123
18.685, 3079
18.6875, 3181
18.69, 3167
18.6925, 3206
18.695, 3288
18.6975, 3375
18.7, 3442
18.7025, 3515
18.705, 3576
18.7075, 3546
18.71, 3491
18.7125, 3507
18.715, 3471
18.7175, 3406
18.72, 3294
18.7225, 3260
18.725, 3203
18.7275, 3126
18.73, 3125
18.7325, 3090
18.735, 3059
18.7375, 3073
18.74, 3039
18.7425, 3066
18.745, 3053
18.7475, 3014
18.75, 2972
18.7525, 2967
18.755, 2943
18.7575, 2916
18.76, 2874
18.7625, 2870
18.765, 2830
18.7675, 2759
18.77, 2786
18.7725, 2835
18.775, 2810
18.7775, 2769
18.78, 2697
18.7825, 2638
18.785, 2635
18.7875, 2604
18.79, 2623
18.7925, 2619
18.795, 2614
18.7975, 2603
18.8, 2678
18.8025, 2677
18.805, 2658
18.8075, 2708
18.81, 2752
18.8125, 2755
18.815, 2744
18.8175, 2731
18.82, 2721
18.8225, 2671
18.825, 2636
18.8275, 2661
18.83, 2615
18.8325, 2571
18.835, 2615
18.8375, 2641
18.84, 2673
18.8425, 2672
18.845, 2637
18.8475, 2591
18.85, 2573
18.8525, 2588
18.855, 2600
18.8575, 2600
18.86, 2613
18.8625, 2635
18.865, 2599
18.8675, 2584
18.87, 2533
18.8725, 2504
18.875, 2531
18.8775, 2536
18.88, 2530
18.8825, 2506
18.885, 2524
18.8875, 2611
18.89, 2651
18.8925, 2650
18.895, 2573
18.8975, 2579
18.9, 2561
18.9025, 2601
18.905, 2664
18.9075, 2668
18.91, 2642
18.9125, 2608
18.915, 2555
18.9175, 2603
18.92, 2603
18.9225, 2615
18.925, 2664
18.9275, 2680
18.93, 2720
18.9325, 2792
18.935, 2865
18.9375, 2870
18.94, 2909
18.9425, 2905
18.945, 2875
18.9475, 2814
18.95, 2814
18.9525, 2732
18.955, 2661
18.9575, 2643
18.96, 2652
18.9625, 2685
18.965, 2619
18.9675, 2552
18.97, 2546
18.9725, 2506
18.975, 2475
18.9775, 2511
18.98, 2503
18.9825, 2520
18.985, 2610
18.9875, 2622
18.99, 2682
18.9925, 2685
18.995, 2685
18.9975, 2689
19.0, 2638
19.0025, 2639
19.005, 2596
19.0075, 2609
19.01, 2626
19.0125, 2641
19.015, 2666
19.0175, 2651
19.02, 2628
19.0225, 2642
19.025, 2653
19.0275, 2695
19.03, 2677
19.0325, 2670
19.035, 2656
19.0375, 2723
19.04, 2731
19.0425, 2711
19.045, 2772
19.0475, 2761
19.05, 2731
19.0525, 2748
19.055, 2727
19.0575, 2766
19.06, 2784
19.0625, 2774
19.065, 2764
19.0675, 2748
19.07, 2797
19.0725, 2848
19.075, 2869
19.0775, 2938
19.08, 2930
19.0825, 2892
19.085, 2872
19.0875, 2923
19.09, 2912
19.0925, 2950
19.095, 2942
19.0975, 2946
19.1, 2925
19.1025, 2910
19.105, 2916
19.1075, 2907
19.11, 2848
19.1125, 2824
19.115, 2821
19.1175, 2799
19.12, 2821
19.1225, 2797
19.125, 2821
19.1275, 2864
19.13, 2913
19.1325, 2851
19.135, 2811
19.1375, 2903
19.14, 2914
19.1425, 2897
19.145, 2904
19.1475, 2873
19.15, 2900
19.1525, 2877
19.155, 2868
19.1575, 2836
19.16, 2821
19.1625, 2819
19.165, 2757
19.1675, 2762
19.17, 2776
19.1725, 2759
19.175, 2779
19.1775, 2802
19.18, 2795
19.1825, 2798
19.185, 2813
19.1875, 2804
19.19, 2800
19.1925, 2877
19.195, 2943
19.1975, 2945
19.2, 2940
19.2025, 2968
19.205, 2941
19.2075, 2939
19.21, 2952
19.2125, 2942
19.215, 3084
19.2175, 3139
19.22, 3192
19.2225, 3172
19.225, 3169
19.2275, 3204
19.23, 3263
19.2325, 3236
19.235, 3280
19.2375, 3299
19.24, 3269
19.2425, 3264
19.245, 3260
19.2475, 3251
19.25, 3190
19.2525, 3111
19.255, 3105
19.2575, 3174
19.26, 3157
19.2625, 3088
19.265, 3071
19.2675, 3053
19.27, 3068
19.2725, 3073
19.275, 3058
19.2775, 3058
19.28, 3019
19.2825, 3133
19.285, 3210
19.2875, 3248
19.29, 3253
19.2925, 3229
19.295, 3257
19.2975, 3239
19.3, 3236
19.3025, 3205
19.305, 3217
19.3075, 3179
19.31, 3180
19.3125, 3194
19.315, 3133
19.3175, 3310
19.32, 3093
19.3225, 3044
19.325, 2998
19.3275, 2956
19.33, 2966
19.3325, 2995
19.335, 3036
19.3375, 3086
19.34, 3104
19.3425, 3106
19.345, 3094
19.3475, 3085
19.35, 3066
19.3525, 3233
19.355, 3071
19.3575, 3065
19.36, 3031
19.3625, 2972
19.365, 2944
19.3675, 2923
19.37, 2912
19.3725, 2912
19.375, 2851
19.3775, 2885
19.38, 2880
19.3825, 2876
19.385, 2845
19.3875, 2843
19.39, 2811
19.3925, 2802
19.395, 2820
19.3975, 2828
19.4, 2854
19.4025, 2835
19.405, 2820
19.4075, 2781
19.41, 2767
19.4125, 2725
19.415, 2643
19.4175, 2574
19.42, 2537
19.4225, 2517
19.425, 2455
19.4275, 2398
19.43, 2415
19.4325, 2479
19.435, 2590
19.4375, 2644
19.44, 2749
19.4425, 2914
19.445, 2972
19.4475, 3013
19.45, 3029
19.4525, 3028
19.455, 2983
19.4575, 2943
19.46, 2880
19.4625, 2806
19.465, 2690
19.4675, 2687
19.47, 2675
19.4725, 2687
19.475, 2721
19.4775, 2743
19.48, 2739
19.4825, 2763
19.485, 2720
19.4875, 2712
19.49, 2743
19.4925, 2751
19.495, 2758
19.4975, 2769
19.5, 2775
19.5025, 2762
19.505, 2662
19.5075, 2657
19.51, 2688
19.5125, 2675
19.515, 2692
19.5175, 2706
19.52, 2749
19.5225, 2748
19.525, 2742
19.5275, 2786
19.53, 2816
19.5325, 2846
19.535, 2849
19.5375, 2891
19.54, 2904
19.5425, 2896
19.545, 2877
19.5475, 2863
19.55, 2875
19.5525, 2920
19.555, 2918
19.5575, 2943
19.56, 2961
19.5625, 2930
19.565, 2887
19.5675, 2884
19.57, 2844
19.5725, 2816
19.575, 2850
19.5775, 2888
19.58, 2943
19.5825, 2918
19.585, 2879
19.5875, 2865
19.59, 2931
19.5925, 2983
19.595, 3004
19.5975, 3017
19.6, 3041
19.6025, 3017
19.605, 3026
19.6075, 2972
19.61, 2956
19.6125, 2983
19.615, 3018
19.6175, 3004
19.62, 3020
19.6225, 2997
19.625, 2947
19.6275, 2917
19.63, 2940
19.6325, 2886
19.635, 2867
19.6375, 2866
19.64, 2875
19.6425, 2838
19.645, 2844
19.6475, 2801
19.65, 2816
19.6525, 2822
19.655, 2812
19.6575, 2816
19.66, 2824
19.6625, 2929
19.665, 2953
19.6675, 2913
19.67, 2876
19.6725, 2845
19.675, 2857
19.6775, 2894
19.68, 2884
19.6825, 2919
19.685, 2932
19.6875, 2948
19.69, 3013
19.6925, 3041
19.695, 3029
19.6975, 2976
19.7, 2979
19.7025, 2965
19.705, 2996
19.7075, 3008
19.71, 3004
19.7125, 2994
19.715, 3004
19.7175, 2994
19.72, 2981
19.7225, 2983
19.725, 2975
19.7275, 3028
19.73, 3000
19.7325, 3002
19.735, 2956
19.7375, 2980
19.74, 2956
19.7425, 2962
19.745, 2954
19.7475, 2964
19.75, 2977
19.7525, 2986
19.755, 2993
19.7575, 2947
19.76, 2950
19.7625, 2960
19.765, 2963
19.7675, 2905
19.77, 2930
19.7725, 2952
19.775, 2953
19.7775, 2992
19.78, 2997
19.7825, 2961
19.785, 2915
19.7875, 2900
19.79, 2879
19.7925, 2909
19.795, 2932
19.7975, 2929
19.8, 2919
19.8025, 2932
19.805, 2976
19.8075, 2950
19.81, 2938
19.8125, 2962
19.815, 3033
19.8175, 2992
19.82, 3030
19.8225, 3054
19.825, 3278
19.8275, 3416
19.83, 3477
19.8325, 3543
19.835, 3583
19.8375, 3626
19.84, 3631
19.8425, 3645
19.845, 3627
19.8475, 3600
19.85, 3613
19.8525, 3567
19.855, 3546
19.8575, 3511
19.86, 3499
19.8625, 3453
19.865, 3458
19.8675, 3451
19.87, 3466
19.8725, 3445
19.875, 3441
19.8775, 3414
19.88, 3408
19.8825, 3386
19.885, 3402
19.8875, 3367
19.89, 3347
19.8925, 3346
19.895, 3332
19.8975, 3309
19.9, 3332
19.9025, 3296
19.905, 3260
19.9075, 3238
19.91, 3205
19.9125, 3216
19.915, 3182
19.9175, 3142
19.92, 3150
19.9225, 3123
19.925, 3108
19.9275, 3101
19.93, 3302
19.9325, 3150
19.935, 3159
19.9375, 3149
19.94, 3108
19.9425, 3078
19.945, 3070
19.9475, 3053
19.95, 3065
19.9525, 3035
19.955, 3047
19.9575, 3047
19.96, 3038
19.9625, 3038
19.965, 3034
19.9675, 3021
19.97, 3059
19.9725, 3141
19.975, 3026
19.9775, 3025
19.98, 3008
19.9825, 3015
19.985, 2995
19.9875, 2974
19.99, 2958
19.9925, 2947
19.995, 2920
19.9975, 2903
20.0, 2919
20.0025, 2901
20.005, 2915
20.0075, 2905
20.01, 2901
20.0125, 2891
20.015, 2887
20.0175, 2892
20.02, 2867
20.0225, 2849
20.025, 2858
20.0275, 2852
20.03, 2854
20.0325, 2870
20.035, 2928
20.0375, 2945
20.04, 2952
20.0425, 2950
20.045, 2949
20.0475, 2916
20.05, 2915
20.0525, 2899
20.055, 2912
20.0575, 2930
20.06, 2967
20.0625, 2963
20.065, 2949
20.0675, 2908
20.07, 2843
20.0725, 2833
20.075, 2852
20.0775, 2804
20.08, 2778
20.0825, 2772
20.085, 2740
20.0875, 2687
20.09, 2673
20.0925, 2627
20.095, 2565
20.0975, 2526
20.1, 2474
20.1025, 2446
20.105, 2428
20.1075, 2404
20.11, 2387
20.1125, 2451
20.115, 2424
20.1175, 2361
20.12, 2333
20.1225, 2314
20.125, 2283
20.1275, 2296
20.13, 2341
20.1325, 2311
20.135, 2344
20.1375, 2316
20.14, 2295
20.1425, 2255
20.145, 2228
20.1475, 2122
20.15, 2098
20.1525, 2106
20.155, 2098
20.1575, 2085
20.16, 2141
20.1625, 2226
20.165, 2367
20.1675, 2487
20.17, 2621
20.1725, 2750
20.175, 2812
20.1775, 2859
20.18, 2866
20.1825, 2891
20.185, 2913
20.1875, 2893
20.19, 2887
20.1925, 2860
20.195, 2820
20.1975, 2765
20.2, 2739
20.2025, 2703
20.205, 2625
20.2075, 2614
20.21, 2642
20.2125, 2671
20.215, 2725
20.2175, 2766
20.22, 2776
20.2225, 2795
20.225, 2813
20.2275, 2867
20.23, 2886
20.2325, 2900
20.235, 2919
20.2375, 2960
20.24, 2983
20.2425, 3053
20.245, 3099
20.2475, 3101
20.25, 3071
20.2525, 3084
20.255, 3074
20.2575, 3099
20.26, 3059
20.2625, 3078
20.265, 3049
20.2675, 3053
20.27, 3127
20.2725, 3113
20.275, 3131
20.2775, 3177
20.28, 3158
20.2825, 3140
20.285, 3103
20.2875, 3067
20.29, 3048
20.2925, 3031
20.295, 3017
20.2975, 3037
20.3, 2996
20.3025, 3001
20.305, 3024
20.3075, 3010
20.31, 2998
20.3125, 2968
20.315, 2968
20.3175, 2970
20.32, 2919
20.3225, 2986
20.325, 2995
20.3275, 3016
20.33, 3003
20.3325, 3029
20.335, 3011
20.3375, 3014
20.34, 2993
20.3425, 2960
20.345, 2953
20.3475, 2947
20.35, 2964
20.3525, 2972
20.355, 2968
20.3575, 2948
20.36, 2931
20.3625, 2909
20.365, 2916
20.3675, 2946
20.37, 2935
20.3725, 2921
20.375, 2940
20.3775, 2932
20.38, 2934
20.3825, 2976
20.385, 2992
20.3875, 3019
20.39, 3027
20.3925, 3096
20.395, 3082
20.3975, 3050
20.4, 3064
20.4025, 3070
20.405, 3107
20.4075, 3087
20.41, 3110
20.4125, 3107
20.415, 3103
20.4175, 3060
20.42, 3081
20.4225, 3118
20.425, 3158
20.4275, 3140
20.43, 3139
20.4325, 3125
20.435, 3148
20.4375, 3175
20.44, 3133
20.4425, 3125
20.445, 3150
20.4475, 3187
20.45, 3269
20.4525, 3305
20.455, 3288
20.4575, 3278
20.46, 3334
20.4625, 3385
20.465, 3418
20.4675, 3420
20.47, 3396
20.4725, 3392
20.475, 3373
20.4775, 3324
20.48, 3314
20.4825, 3264
20.485, 3253
20.4875, 3235
20.49, 3205
20.4925, 3227
20.495, 3243
20.4975, 3231
20.5, 3209
20.5025, 3197
20.505, 3203
20.5075, 3176
20.51, 3102
20.5125, 3106
20.515, 3095
20.5175, 3091
20.52, 3107
20.5225, 3070
20.525, 3056
20.5275, 3059
20.53, 3070
20.5325, 3029
20.535, 3020
20.5375, 3023
20.54, 3045
20.5425, 3059
20.545, 3008
20.5475, 2996
20.55, 3026
20.5525, 2997
20.555, 2985
20.5575, 2943
20.56, 2932
20.5625, 2893
20.565, 2929
20.5675, 2976
20.57, 2973
20.5725, 2958
20.575, 2963
20.5775, 2972
20.58, 2992
20.5825, 2978
20.585, 3048
20.5875, 3069
20.59, 3028
20.5925, 3025
20.595, 3010
20.5975, 3056
20.6, 3032
20.6025, 3026
20.605, 2992
20.6075, 2978
20.61, 3013
20.6125, 2980
20.615, 2982
20.6175, 2982
20.62, 3002
20.6225, 2968
20.625, 3019
20.6275, 3051
20.63, 3073
20.6325, 3065
20.635, 2998
20.6375, 3062
20.64, 3102
20.6425, 3115
20.645, 3132
20.6475, 3156
20.65, 3166
20.6525, 3159
20.655, 3138
20.6575, 3178
20.66, 3163
20.6625, 3153
20.665, 3188
20.6675, 3173
20.67, 3157
20.6725, 3167
20.675, 3138
20.6775, 3135
20.68, 3124
20.6825, 3088
20.685, 3067
20.6875, 3054
20.69, 3072
20.6925, 3100
20.695, 3096
20.6975, 3168
20.7, 3215
20.7025, 3168
20.705, 3131
20.7075, 3143
20.71, 3117
20.7125, 3152
20.715, 3167
20.7175, 3158
20.72, 3176
20.7225, 3183
20.725, 3168
20.7275, 3185
20.73, 3219
20.7325, 3212
20.735, 3191
20.7375, 3232
20.74, 3221
20.7425, 3237
20.745, 3208
20.7475, 3200
20.75, 3208
20.7525, 3215
20.755, 3232
20.7575, 3239
20.76, 3254
20.7625, 3240
20.765, 3188
20.7675, 3218
20.77, 3261
20.7725, 3182
20.775, 3195
20.7775, 3235
20.78, 3227
20.7825, 3242
20.785, 3288
20.7875, 3320
20.79, 3235
20.7925, 3205
20.795, 3222
20.7975, 3247
20.8, 3247
20.8025, 3225
20.805, 3145
20.8075, 3099
20.81, 3049
20.8125, 2960
20.815, 2840
20.8175, 2762
20.82, 2744
20.8225, 2713
20.825, 2694
20.8275, 2728
20.83, 2739
20.8325, 2807
20.835, 2914
20.8375, 3050
20.84, 3174
20.8425, 3261
20.845, 3285
20.8475, 3278
20.85, 3277
20.8525, 3278
20.855, 3260
20.8575, 3210
20.86, 3167
20.8625, 3152
20.865, 3151
20.8675, 3105
20.87, 3095
20.8725, 3073
20.875, 3033
20.8775, 3092
20.88, 3093
20.8825, 3127
20.885, 3115
20.8875, 3122
20.89, 3149
20.8925, 3135
20.895, 3102
20.8975, 3065
20.9, 3120
20.9025, 3058
20.905, 3046
20.9075, 2998
20.91, 3013
20.9125, 2960
20.915, 2950
20.9175, 2924
20.92, 2913
20.9225, 2921
20.925, 2875
20.9275, 2895
20.93, 2871
20.9325, 2853
20.935, 2852
20.9375, 2858
20.94, 2846
20.9425, 2840
20.945, 2845
20.9475, 2842
20.95, 2853
20.9525, 2897
20.955, 2910
20.9575, 2907
20.96, 2884
20.9625, 2924
20.965, 2922
20.9675, 2874
20.97, 2839
20.9725, 2853
20.975, 2860
20.9775, 2898
20.98, 2943
20.9825, 2963
20.985, 2977
20.9875, 2971
20.99, 2915
20.9925, 2884
20.995, 2839
20.9975, 2845
21.0, 2868
21.0025, 2868
21.005, 2866
21.0075, 2873
21.01, 2887
21.0125, 2882
21.015, 2879
21.0175, 2891
21.02, 2904
21.0225, 2886
21.025, 2911
21.0275, 2914
21.03, 2919
21.0325, 2908
21.035, 2931
21.0375, 2965
21.04, 2992
21.0425, 2958
21.045, 2963
21.0475, 3019
21.05, 3071
21.0525, 3105
21.055, 3096
21.0575, 3136
21.06, 3154
21.0625, 3125
21.065, 3144
21.0675, 3144
21.07, 3137
21.0725, 3121
21.075, 3129
21.0775, 3147
21.08, 3134
21.0825, 3110
21.085, 3164
21.0875, 3170
21.09, 3168
21.0925, 3170
21.095, 3172
21.0975, 3133
21.1, 3124
21.1025, 3028
21.105, 3042
21.1075, 3090
21.11, 3074
21.1125, 3052
21.115, 3045
21.1175, 3035
21.12, 3050
21.1225, 3070
21.125, 3087
21.1275, 3101
21.13, 3106
21.1325, 3137
21.135, 3126
21.1375, 3195
21.14, 3161
21.1425, 3214
21.145, 3170
21.1475, 3160
21.15, 3154
21.1525, 3116
21.155, 3077
21.1575, 3079
21.16, 3187
21.1625, 3168
21.165, 3146
21.1675, 3123
21.17, 3130
21.1725, 3159
21.175, 3160
21.1775, 3154
21.18, 3207
21.1825, 3218
21.185, 3155
21.1875, 3191
21.19, 3213
21.1925, 3225
21.195, 3187
21.1975, 3239
21.2, 3241
21.2025, 3220
21.205, 3202
21.2075, 3192
21.21, 3185
21.2125, 3096
21.215, 3069
21.2175, 3109
21.22, 3141
21.2225, 3118
21.225, 3111
21.2275, 3089
21.23, 3066
21.2325, 3053
21.235, 3080
21.2375, 3021
21.24, 3008
21.2425, 3006
21.245, 3021
21.2475, 2998
21.25, 2992
21.2525, 2994
21.255, 2993
21.2575, 2993
21.26, 3068
21.2625, 2995
21.265, 2962
21.2675, 2904
21.27, 2905
21.2725, 2899
21.275, 2897
21.2775, 2874
21.28, 2876
21.2825, 2904
21.285, 2922
21.2875, 2940
21.29, 2927
21.2925, 2949
21.295, 2987
21.2975, 2992
21.3, 3018
21.3025, 2997
21.305, 3003
21.3075, 3036
21.31, 3002
21.3125, 3024
21.315, 3049
21.3175, 2978
21.32, 2975
21.3225, 3038
21.325, 3028
21.3275, 3013
21.33, 3061
21.3325, 3054
21.335, 3040
21.3375, 3028
21.34, 3011
21.3425, 3012
21.345, 2966
21.3475, 2956
21.35, 2960
21.3525, 3011
21.355, 2983
21.3575, 2986
21.36, 2971
21.3625, 3010
21.365, 3016
21.3675, 3032
21.37, 3060
21.3725, 3126
21.375, 3181
21.3775, 3182
21.38, 3180
21.3825, 3166
21.385, 3161
21.3875, 3124
21.39, 3100
21.3925, 3075
21.395, 3109
21.3975, 3090
21.4, 3129
21.4025, 3147
21.405, 3146
21.4075, 3097
21.41, 3089
21.4125, 3091
21.415, 3049
21.4175, 3025
21.42, 3050
21.4225, 3102
21.425, 3119
21.4275, 3105
21.43, 3149
21.4325, 3213
21.435, 3260
21.4375, 3269
21.44, 3355
21.4425, 3383
21.445, 3416
21.4475, 3443
21.45, 3510
21.4525, 3578
21.455, 3601
21.4575, 3821
21.46, 4307
21.4625, 4492
21.465, 4567
21.4675, 4568
21.47, 4555
21.4725, 4546
21.475, 4497
21.4775, 4440
21.48, 4414
21.4825, 4358
21.485, 4261
21.4875, 4138
21.49, 4061
21.4925, 3923
21.495, 3859
21.4975, 3765
21.5, 3693
21.5025, 3635
21.505, 3523
21.5075, 3419
21.51, 3376
21.5125, 3395
21.515, 3443
21.5175, 3505
21.52, 3562
21.5225, 3671
21.525, 3747
21.5275, 3750
21.53, 3761
21.5325, 3755
21.535, 3694
21.5375, 3616
21.54, 3566
21.5425, 3493
21.545, 3357
21.5475, 3329
21.55, 3251
21.5525, 3187
21.555, 3112
21.5575, 3132
21.56, 3140
21.5625, 3139
21.565, 3043
21.5675, 3039
21.57, 2992
21.5725, 3004
21.575, 2963
21.5775, 3006
21.58, 3002
21.5825, 2980
21.585, 2971
21.5875, 2948
21.59, 2974
21.5925, 2921
21.595, 2900
21.5975, 2826
21.6, 2848
21.6025, 2884
21.605, 2863
21.6075, 2883
21.61, 2909
21.6125, 2915
21.615, 2918
21.6175, 2893
21.62, 2871
21.6225, 2851
21.625, 2780
21.6275, 2804
21.63, 2815
21.6325, 2803
21.635, 2784
21.6375, 2787
21.64, 2820
21.6425, 2844
21.645, 2828
21.6475, 2840
21.65, 2863
21.6525, 2858
21.655, 2914
21.6575, 2914
21.66, 2894
21.6625, 2891
21.665, 2934
21.6675, 2917
21.67, 2913
21.6725, 2937
21.675, 2968
21.6775, 3012
21.68, 3008
21.6825, 3003
21.685, 3030
21.6875, 3043
21.69, 2999
21.6925, 2988
21.695, 2951
21.6975, 2946
21.7, 2866
21.7025, 2831
21.705, 2896
21.7075, 2897
21.71, 2928
21.7125, 3155
21.715, 3388
21.7175, 3550
21.72, 3721
21.7225, 3868
21.725, 3940
21.7275, 3959
21.73, 3941
21.7325, 3950
21.735, 3951
21.7375, 3942
21.74, 3890
21.7425, 3872
21.745, 3835
21.7475, 3794
21.75, 3742
21.7525, 3688
21.755, 3670
21.7575, 3615
21.76, 3559
21.7625, 3531
21.765, 3531
21.7675, 3498
21.77, 3457
21.7725, 3464
21.775, 3418
21.7775, 3411
21.78, 3359
21.7825, 3269
21.785, 3200
21.7875, 3170
21.79, 3134
21.7925, 3128
21.795, 3081
21.7975, 3007
21.8, 3040
21.8025, 3039
21.805, 2984
21.8075, 2976
21.81, 2877
21.8125, 2818
21.815, 2815
21.8175, 2734
21.82, 2680
21.8225, 2598
21.825, 2583
21.8275, 2565
21.83, 2537
21.8325, 2538
21.835, 2497
21.8375, 2499
21.84, 2488
21.8425, 2456
21.845, 2448
21.8475, 2427
21.85, 2379
21.8525, 2392
21.855, 2444
21.8575, 2461
21.86, 2465
21.8625, 2472
21.865, 2482
21.8675, 2474
21.87, 2461
21.8725, 2470
21.875, 2528
21.8775, 2526
21.88, 2527
21.8825, 2508
21.885, 2467
21.8875, 2477
21.89, 2497
21.8925, 2485
21.895, 2517
21.8975, 2544
21.9, 2516
21.9025, 2511
21.905, 2493
21.9075, 2471
21.91, 2444
21.9125, 2411
21.915, 2422
21.9175, 2428
21.92, 2546
21.9225, 2580
21.925, 2607
21.9275, 2605
21.93, 2610
21.9325, 2608
21.935, 2608
21.9375, 2619
21.94, 2612
21.9425, 2633
21.945, 2640
21.9475, 2635
21.95, 2641
21.9525, 2626
21.955, 2629
21.9575, 2616
21.96, 2597
21.9625, 2617
21.965, 2605
21.9675, 2589
21.97, 2563
21.9725, 2519
21.975, 2512
21.9775, 2531
21.98, 2546
21.9825, 2563
21.985, 2583
21.9875, 2579
21.99, 2574
21.9925, 2622
21.995, 2629
21.9975, 2632
22.0, 2625
22.0025, 2585
22.005, 2553
22.0075, 2556
22.01, 2551
22.0125, 2613
22.015, 2620
22.0175, 2645
22.02, 2671
22.0225, 2630
22.025, 2594
22.0275, 2568
22.03, 2598
22.0325, 2557
22.035, 2583
22.0375, 2590
22.04, 2614
22.0425, 2620
22.045, 2550
22.0475, 2563
22.05, 2577
22.0525, 2600
22.055, 2604
22.0575, 2631
22.06, 2592
22.0625, 2604
22.065, 2594
22.0675, 2590
22.07, 2619
22.0725, 2587
22.075, 2579
22.0775, 2589
22.08, 2581
22.0825, 2561
22.085, 2534
22.0875, 2546
22.09, 2594
22.0925, 2604
22.095, 2580
22.0975, 2586
22.1, 2599
22.1025, 2616
22.105, 2616
22.1075, 2605
22.11, 2674
22.1125, 2631
22.115, 2641
22.1175, 2678
22.12, 2745
22.1225, 2708
22.125, 2701
22.1275, 2687
22.13, 2681
22.1325, 2702
22.135, 2752
22.1375, 2781
22.14, 2786
22.1425, 2763
22.145, 2725
22.1475, 2738
22.15, 2715
22.1525, 2717
22.155, 2744
22.1575, 2758
22.16, 2765
22.1625, 2762
22.165, 2744
22.1675, 2696
22.17, 2632
22.1725, 2598
22.175, 2547
22.1775, 2482
22.18, 2424
22.1825, 2376
22.185, 2338
22.1875, 2276
22.19, 2290
22.1925, 2413
22.195, 2521
22.1975, 2641
22.2, 2713
22.2025, 2872
22.205, 2980
22.2075, 2947
22.21, 2994
22.2125, 3048
22.215, 3049
22.2175, 3063
22.22, 3043
22.2225, 2969
22.225, 2876
22.2275, 2826
22.23, 2789
22.2325, 2786
22.235, 2804
22.2375, 2762
22.24, 2796
22.2425, 2771
22.245, 2784
22.2475, 2870
22.25, 2930
22.2525, 2892
22.255, 2898
22.2575, 2919
22.26, 2919
22.2625, 2865
22.265, 2878
22.2675, 2900
22.27, 2876
22.2725, 2849
22.275, 2859
22.2775, 2808
22.28, 2804
22.2825, 2821
22.285, 2862
22.2875, 2896
22.29, 2886
22.2925, 2875
22.295, 2852
22.2975, 2805
22.3, 2777
22.3025, 2753
22.305, 2797
22.3075, 2798
22.31, 2818
22.3125, 2837
22.315, 2800
22.3175, 2847
22.32, 2855
22.3225, 2878
22.325, 2858
22.3275, 2867
22.33, 2913
22.3325, 2904
22.335, 2883
22.3375, 2865
22.34, 2871
22.3425, 2849
22.345, 2883
22.3475, 2888
22.35, 2943
22.3525, 3002
22.355, 3036
22.3575, 3038
22.36, 2984
22.3625, 2981
22.365, 2947
22.3675, 2947
22.37, 2971
22.3725, 2926
22.375, 2885
22.3775, 2886
22.38, 2882
22.3825, 2832
22.385, 2824
22.3875, 2864
22.39, 2886
22.3925, 2920
22.395, 2966
22.3975, 2962
22.4, 2987
22.4025, 3004
22.405, 2977
22.4075, 3007
22.41, 2997
22.4125, 2992
22.415, 2998
22.4175, 2992
22.42, 2990
22.4225, 2961
22.425, 2995
22.4275, 2991
22.43, 3019
22.4325, 3053
22.435, 3035
22.4375, 3056
22.44, 3064
22.4425, 3030
22.445, 3002
22.4475, 3007
22.45, 3015
22.4525, 3029
22.455, 3023
22.4575, 3071
22.46, 3014
22.4625, 3080
22.465, 3121
22.4675, 3148
22.47, 3144
22.4725, 3118
22.475, 3078
22.4775, 3087
22.48, 3088
22.4825, 3076
22.485, 3092
22.4875, 3118
22.49, 3108
22.4925, 3112
22.495, 3120
22.4975, 3138
22.5, 3152
22.5025, 3143
22.505, 3110
22.5075, 3115
22.51, 3083
22.5125, 3122
22.515, 3092
22.5175, 3027
22.52, 3022
22.5225, 3034
22.525, 3045
22.5275, 3066
22.53, 3039
22.5325, 2995
22.535, 2981
22.5375, 2955
22.54, 2935
22.5425, 2963
22.545, 2935
22.5475, 2945
22.55, 2975
22.5525, 3014
22.555, 3025
22.5575, 3021
22.56, 2998
22.5625, 2989
22.565, 3020
22.5675, 2987
22.57, 2921
22.5725, 2916
22.575, 2903
22.5775, 2943
22.58, 2940
22.5825, 2909
22.585, 2965
22.5875, 2982
22.59, 2988
22.5925, 2973
22.595, 2943
22.5975, 2968
22.6, 2934
22.6025, 3008
22.605, 2999
22.6075, 3011
22.61, 3007
22.6125, 3014
22.615, 2967
22.6175, 2980
22.62, 2969
22.6225, 2956
22.625, 2970
22.6275, 3007
22.63, 2969
22.6325, 2976
22.635, 2958
22.6375, 2935
22.64, 2884
22.6425, 2866
22.645, 2905
22.6475, 2960
22.65, 2955
22.6525, 2992
22.655, 3064
22.6575, 3055
22.66, 3041
22.6625, 3111
22.665, 3162
22.6675, 3234
22.67, 3292
22.6725, 3279
22.675, 3286
22.6775, 3368
22.68, 3419
22.6825, 3426
22.685, 3441
22.6875, 3470
22.69, 3444
22.6925, 3429
22.695, 3408
22.6975, 3255
22.7, 3105
22.7025, 3004
22.705, 2808
22.7075, 2632
22.71, 2434
22.7125, 2723
22.715, 2502
22.7175, 2123
22.72, 1940
22.7225, 1770
22.725, 1510
22.7275, 332
22.73, -1
22.7325, -1
22.735, -2
22.7375, -1
22.74, 534
22.7425, 717
22.745, 901
22.7475, 2097
22.75, 2993
22.7525, 4010
22.755, 4896
22.7575, 6005
22.76, 6433
22.7625, 6432
22.765, 6100
22.7675, 4896
22.77, 3938
22.7725, 4155
22.775, 5619
22.7775, 5922
22.78, 5829
22.7825, 5540
22.785, 6435
22.7875, 6434
22.79, 6435
22.7925, 6438
22.795, 6435
22.7975, 6433
22.8, 6443
22.8025, 6436
22.805, 6434
22.8075, 6434
22.81, 6438
22.8125, 6434
22.815, 6432
22.8175, 6442
22.82, 6435
22.8225, 6433
22.825, 6434
22.8275, 6432
22.83, 6433
22.8325, 6430
22.835, 6442
22.8375, 6432
22.84, 6432
22.8425, 6433
22.845, 6439
22.8475, 6434
22.85, 6432
22.8525, 6442
22.855, 6437
22.8575, 6434
22.86, 6435
22.8625, 6439
22.865, 6434
22.8675, 6433
22.87, 6444
22.8725, 6438
22.875, 6435
22.8775, 6433
22.88, 6438
22.8825, 6435
22.885, -1
22.8875, -2
22.89, -2
22.8925, 4314
22.895, 6433
22.8975, 6436
22.9, 6433
22.9025, 6433
22.905, 6442
22.9075, 6435
22.91, 6431
22.9125, 6434
22.915, 6436
22.9175, 6435
22.92, 6432
22.9225, 6444
22.925, 6435
22.9275, 6434
22.93, 6435
22.9325, 6440
22.935, 6436
22.9375, 6433
22.94, 6439
22.9425, 6435
22.945, 6433
22.9475, 6433
22.95, 6439
22.9525, 6435
22.955, 6433
22.9575, 6444
22.96, 6437
22.9625, 6433
22.965, 6434
22.9675, 6438
22.97, 6435
22.9725, 3866
22.975, -2
22.9775, -1
22.98, -1
22.9825, -1
22.985, -2
22.9875, -2
22.99, -1
22.9925, 763
22.995, 4820
22.9975, 6433
23.0, 6435
23.0025, 6432
23.005, 6433
23.0075, 6431
23.01, 6442
23.0125, 6436
23.015, 6433
23.0175, 6435
23.02, 6438
23.0225, 6436
23.025, 6432
23.0275, 6444
23.03, 6437
23.0325, 6434
23.035, 6435
23.0375, 6439
23.04, 6435
23.0425, 6431
23.045, 6442
23.0475, 6437
23.05, 6433
23.0525, 6394
23.055, 5634
23.0575, 4753
23.06, 3986
23.0625, 3257
23.065, 2631
23.0675, 1982
23.07, 1617
23.0725, 1553
23.075, 975
23.0775, 635
23.08, 271
23.0825, 65
23.085, 61
23.0875, 218
23.09, 733
23.0925, 1831
23.095, 2490
23.0975, 1601
23.1, 531
23.1025, -2
23.105, -1
23.1075, -1
23.11, -1
23.1125, -2
23.115, -2
23.1175, -1
23.12, -1
23.1225, -2
23.125, 5188
23.1275, 6435
23.13, 6432
23.1325, 6442
23.135, 6436
23.1375, 6432
23.14, 6433
23.1425, 6437
23.145, 6432
23.1475, 6431
23.15, 6444
23.1525, 6436
23.155, 6435
23.1575, 6433
23.16, 6438
23.1625, 6435
23.165, 6434
23.1675, 6443
23.17, 6436
23.1725, 6435
23.175, 6436
23.1775, 6434
23.18, 6434
23.1825, 6434
23.185, 6443
23.1875, 6436
23.19, 6434
23.1925, 6434
23.195, 6438
23.1975, 6435
23.2, 6433
23.2025, 6442
23.205, 6436
23.2075, 6433
23.21, 6433
23.2125, 6439
23.215, 6433
23.2175, 6431
23.22, 6441
23.2225, 6437
23.225, 6431
23.2275, 6432
23.23, 6438
23.2325, 6436
23.235, 6432
23.2375, 6437
23.24, 6434
23.2425, 6433
23.245, 6434
23.2475, 6437
23.25, 6435
23.2525, 6433
23.255, 6444
23.2575, 6437
23.26, 6436
23.2625, 6434
23.265, 6439
23.2675, 6435
23.27, 6434
23.2725, 6445
23.275, 6437
23.2775, 6435
23.28, 6434
23.2825, 6438
23.285, 6434
23.2875, 6432
23.29, 6438
23.2925, 6433
23.295, 6432
23.2975, 6432
23.3, 6435
23.3025, 6432
23.305, 6432
23.3075, 6442
23.31, 6434
23.3125, 6433
23.315, 6433
23.3175, 6437
23.32, 6436
23.3225, 6434
23.325, 6443
23.3275, 6437
23.33, 6434
23.3325, 6434
23.335, 6439
23.3375, 6435
23.34, 6434
23.3425, 6443
23.345, 6375
23.3475, 6039
23.35, 5345
23.3525, 4710
23.355, 4622
23.3575, 3968
23.36, 3276
23.3625, 3392
23.365, 3076
23.3675, 2021
23.37, 823
23.3725, 122
23.375, -1
23.3775, 301
23.38, 796
23.3825, 1753
23.385, 2246
23.3875, 1747
23.39, 1945
23.3925, 2430
23.395, 3586
23.3975, 4104
23.4, 3222
23.4025, 1394
23.405, 7
23.4075, -1
23.41, -2
23.4125, -2
23.415, -1
23.4175, -1
23.42, -2
23.4225, -2
23.425, -2
23.4275, -2
23.43, -2
23.4325, -2
23.435, -2
23.4375, -1
23.44, -2
23.4425, -2
23.445, -1
23.4475, -1
23.45, -2
23.4525, -1
23.455, -1
23.4575, -2
23.46, -2
23.4625, -1
23.465, -2
23.4675, -1
23.47, -2
23.4725, -2
23.475, -2
23.4775, -2
23.48, -1
23.4825, -2
23.485, -2
23.4875, -2
23.49, -1
23.4925, -1
23.495, -2
23.4975, -2
23.5, -2
23.5025, -2
23.505, -2
23.5075, -2
23.51, -2
23.5125, -1
23.515, -1
23.5175, -2
23.52, -2
23.5225, -1
23.525, -1
23.5275, -2
23.53, -1
23.5325, -2
23.535, -1
23.5375, -2
23.54, -1
23.5425, 6435
23.545, -2
23.5475, 6433
23.55, 6433
23.5525, 6444
23.555, 6437
23.5575, -1
23.56, -2
23.5625, 6447
23.565, 6441
23.5675, 6437
23.57, 6446
23.5725, 6439
23.575, 6435
23.5775, 6435
23.58, -2
23.5825, -2
23.585, 6433
23.5875, -2
23.59, -2
23.5925, 755
23.595, 6434
23.5975, 2879
23.6, -1
23.6025, -1
23.605, -2
23.6075, -2
23.61, -1
23.6125, -2
23.615, -2
23.6175, -1
23.62, -2
23.6225, -2
23.625, -2
23.6275, -2
23.63, -2
23.6325, -2
23.635, -1
23.6375, -1
23.64, -1
23.6425, -1
23.645, -2
23.6475, 0
23.65, -1
23.6525, -1
23.655, -2
23.6575, -2
23.66, -1
23.6625, -2
23.665, -1
23.6675, -1
23.67, -1
23.6725, -2
23.675, 4828
23.6775, -1
23.68, -1
23.6825, -2
23.685, -1
23.6875, -2
23.69, -1
23.6925, -1
23.695, -1
23.6975, -1
23.7, -1
23.7025, -1
23.705, -2
23.7075, -2
23.71, -2
23.7125, -1
23.715, -1
23.7175, -1
23.72, -1
23.7225, -1
23.725, 6435
23.7275, 6444
23.73, 6437
23.7325, 6435
23.735, 6435
23.7375, 6437
23.74, -2
23.7425, -2
23.745, 6443
23.7475, 6436
23.75, 6433
23.7525, 6433
23.755, 6439
23.7575, 6434
23.76, 6433
23.7625, 6437
23.765, 6434
23.7675, 6431
23.77, 6432
23.7725, 6441
23.775, 6439
23.7775, 6433
23.78, 6445
23.7825, 6435
23.785, 6436
23.7875, 6436
23.79, 6439
23.7925, 6435
23.795, 6435
23.7975, 6446
23.8, 6438
23.8025, 6435
23.805, 6435
23.8075, 6440
23.81, 6436
23.8125, 6435
23.815, 6445
23.8175, 6437
23.82, 6435
23.8225, 6434
23.825, 6436
23.8275, 6432
23.83, 6431
23.8325, 6443
23.835, 6435
23.8375, 6433
23.84, 6433
