0.0,0.0
0.0025,3858.0
0.005,3844.0
0.0075,3835.0
0.01,3815.0
0.0125,3832.0
0.015,3831.0
0.0175,3797.0
0.02,3799.0
0.0225,3815.0
0.025,3806.0
0.0275,3798.0
0.03,3801.0
0.0325,3821.0
0.035,3837.0
0.0375,3854.0
0.04,3862.0
0.0425,3875.0
0.045,3892.0
0.0475,3874.0
0.05,3819.0
0.0525,3741.0
0.055,3639.0
0.0575,3460.0
0.06,3374.0
0.0625,3409.0
0.065,3713.0
0.0675,4114.0
0.07,4654.0
0.0725,5276.0
0.075,6002.0
0.0775,6138.0
0.08,5442.0
0.0825,4580.0
0.085,4161.0
0.0875,3952.0
0.09,3571.0
0.0925,3094.0
0.095,2760.0
0.0975,2123.0
0.1,1717.0
0.1025,1615.0
0.105,1815.0
0.1075,2017.0
0.11,2107.0
0.1125,2241.0
0.115,2540.0
0.1175,2795.0
0.12,3048.0
0.1225,3359.0
0.125,3831.0
0.1275,4167.0
0.13,4354.0
0.1325,4490.0
0.135,4678.0
0.1375,4711.0
0.14,4693.0
0.1425,4704.0
0.145,4716.0
0.1475,4703.0
0.15,4712.0
0.1525,4714.0
0.155,4708.0
0.1575,4718.0
0.16,4721.0
0.1625,4741.0
0.165,4735.0
0.1675,4737.0
0.17,4745.0
0.1725,4753.0
0.175,4743.0
0.1775,4737.0
0.18,4721.0
0.1825,4727.0
0.185,4753.0
0.1875,4758.0
0.19,4733.0
0.1925,4728.0
0.195,4717.0
0.1975,4714.0
0.2,4705.0
0.2025,4686.0
0.205,4726.0
0.2075,4715.0
0.21,4738.0
0.2125,4749.0
0.215,4786.0
0.2175,4778.0
0.22,4788.0
0.2225,4792.0
0.225,4788.0
0.2275,4818.0
0.23,4813.0
0.2325,4802.0
0.235,4804.0
0.2375,4828.0
0.24,4871.0
0.2425,4869.0
0.245,4904.0
0.2475,4941.0
0.25,4957.0
0.2525,4977.0
0.255,4968.0
0.2575,4980.0
0.26,4995.0
0.2625,5013.0
0.265,4976.0
0.2675,4949.0
0.27,4983.0
0.2725,4963.0
0.275,4971.0
0.2775,4939.0
0.28,4946.0
0.2825,4924.0
0.285,4926.0
0.2875,4917.0
0.29,4885.0
0.2925,4884.0
0.295,4841.0
0.2975,4772.0
0.3,4761.0
0.3025,4747.0
0.305,4687.0
0.3075,4643.0
0.31,4612.0
0.3125,4552.0
0.315,4502.0
0.3175,4470.0
0.32,4397.0
0.3225,4321.0
0.325,4258.0
0.3275,4211.0
0.33,4183.0
0.3325,4131.0
0.335,4080.0
0.3375,4040.0
0.34,3977.0
0.3425,3955.0
0.345,3893.0
0.3475,3847.0
0.35,3813.0
0.3525,3792.0
0.355,3769.0
0.3575,3750.0
0.36,3722.0
0.3625,3720.0
0.365,3711.0
0.3675,3681.0
0.37,3660.0
0.3725,3657.0
0.375,3649.0
0.3775,3650.0
0.38,3634.0
0.3825,3621.0
0.385,3629.0
0.3875,3624.0
0.39,3637.0
0.3925,3647.0
0.395,3655.0
0.3975,3635.0
0.4,3642.0
0.4025,3654.0
0.405,3633.0
0.4075,3706.0
0.41,3656.0
0.4125,3696.0
0.415,3727.0
0.4175,3691.0
0.42,3672.0
0.4225,3696.0
0.425,3665.0
0.4275,3688.0
0.43,3706.0
0.4325,3720.0
0.435,3703.0
0.4375,3699.0
0.44,3681.0
0.4425,3698.0
0.445,3700.0
0.4475,3681.0
0.45,3684.0
0.4525,3685.0
0.455,3666.0
0.4575,3650.0
0.46,3650.0
0.4625,3633.0
0.465,3625.0
0.4675,3612.0
0.47,3579.0
0.4725,3575.0
0.475,3549.0
0.4775,3517.0
0.48,3490.0
0.4825,3497.0
0.485,3477.0
0.4875,3470.0
0.49,3462.0
0.4925,3439.0
0.495,3425.0
0.4975,3420.0
0.5,3382.0
0.5025,3347.0
0.505,3328.0
0.5075,3347.0
0.51,3333.0
0.5125,3321.0
0.515,3331.0
0.5175,3317.0
0.52,3317.0
0.5225,3324.0
0.525,3345.0
0.5275,3354.0
0.53,3330.0
0.5325,3312.0
0.535,3311.0
0.5375,3269.0
0.54,3316.0
0.5425,3275.0
0.545,3261.0
0.5475,3265.0
0.55,3283.0
0.5525,3270.0
0.555,3301.0
0.5575,3283.0
0.56,3297.0
0.5625,3328.0
0.565,3321.0
0.5675,3329.0
0.57,3319.0
0.5725,3312.0
0.575,3326.0
0.5775,3326.0
0.58,3350.0
0.5825,3354.0
0.585,3349.0
0.5875,3355.0
0.59,3348.0
0.5925,3351.0
0.595,3357.0
0.5975,3342.0
0.6,3322.0
0.6025,3345.0
0.605,3372.0
0.6075,3333.0
0.61,3317.0
0.6125,3296.0
0.615,3302.0
0.6175,3339.0
0.62,3347.0
0.6225,3330.0
0.625,3350.0
0.6275,3384.0
0.63,3390.0
0.6325,3388.0
0.635,3405.0
0.6375,3417.0
0.64,3452.0
0.6425,3454.0
0.645,3478.0
0.6475,3508.0
0.65,3511.0
0.6525,3508.0
0.655,3507.0
0.6575,3528.0
0.66,3526.0
0.6625,3513.0
0.665,3531.0
0.6675,3518.0
0.67,3529.0
0.6725,3554.0
0.675,3564.0
0.6775,3578.0
0.68,3628.0
0.6825,3630.0
0.685,3625.0
0.6875,3666.0
0.69,3652.0
0.6925,3666.0
0.695,3656.0
0.6975,3648.0
0.7,3667.0
0.7025,3660.0
0.705,3700.0
0.7075,3704.0
0.71,3723.0
0.7125,3685.0
0.715,3719.0
0.7175,3747.0
0.72,3765.0
0.7225,3791.0
0.725,3805.0
0.7275,3879.0
0.73,3900.0
0.7325,3941.0
0.735,3911.0
0.7375,3911.0
0.74,3869.0
0.7425,3867.0
0.745,3876.0
0.7475,3875.0
0.75,3896.0
0.7525,3901.0
0.755,3928.0
0.7575,3938.0
0.76,3908.0
0.7625,3908.0
0.765,3899.0
0.7675,3839.0
0.77,3815.0
0.7725,3798.0
0.775,3776.0
0.7775,3745.0
0.78,3726.0
0.7825,3709.0
0.785,3698.0
0.7875,3685.0
0.79,3702.0
0.7925,3693.0
0.795,3691.0
0.7975,3681.0
0.8,3681.0
0.8025,3702.0
0.805,3701.0
0.8075,3677.0
0.81,3662.0
0.8125,3693.0
0.815,3706.0
0.8175,3699.0
0.82,3719.0
0.8225,3738.0
0.825,3770.0
0.8275,3794.0
0.83,3819.0
0.8325,3878.0
0.835,3936.0
0.8375,4005.0
0.84,4050.0
0.8425,4056.0
0.845,4062.0
0.8475,3994.0
0.85,3884.0
0.8525,3781.0
0.855,3715.0
0.8575,3818.0
0.86,4168.0
0.8625,4537.0
0.865,5150.0
0.8675,5816.0
0.87,6500.0
0.8725,6654.0
0.875,5971.0
0.8775,5086.0
0.88,4635.0
0.8825,4373.0
0.885,3907.0
0.8875,3392.0
0.89,3031.0
0.8925,2341.0
0.895,1973.0
0.8975,1910.0
0.9,2173.0
0.9025,2341.0
0.905,2447.0
0.9075,2602.0
0.91,2851.0
0.9125,3099.0
0.915,3330.0
0.9175,3670.0
0.92,4119.0
0.9225,4466.0
0.925,4703.0
0.9275,4871.0
0.93,5037.0
0.9325,5036.0
0.935,5044.0
0.9375,5027.0
0.94,5060.0
0.9425,5036.0
0.945,5009.0
0.9475,5006.0
0.95,4978.0
0.9525,4970.0
0.955,4945.0
0.9575,4962.0
0.96,4969.0
0.9625,4972.0
0.965,4957.0
0.9675,4938.0
0.97,4947.0
0.9725,4940.0
0.975,4968.0
0.9775,4966.0
0.98,4939.0
0.9825,4901.0
0.985,4912.0
0.9875,4894.0
0.99,4876.0
0.9925,4877.0
0.995,4885.0
0.9975,4880.0
1.0,4909.0
1.0025,4889.0
1.005,4898.0
1.0075,4912.0
1.01,4918.0
1.0125,4882.0
1.015,4872.0
1.0175,4905.0
1.02,4888.0
1.0225,4892.0
1.025,4904.0
1.0275,4897.0
1.03,4908.0
1.0325,4917.0
1.035,4935.0
1.0375,4948.0
1.04,4915.0
1.0425,4893.0
1.045,4880.0
1.0475,4868.0
1.05,4863.0
1.0525,4891.0
1.055,4880.0
1.0575,4893.0
1.06,4883.0
1.0625,4884.0
1.065,4883.0
1.0675,4888.0
1.07,4884.0
1.0725,4881.0
1.075,4881.0
1.0775,4874.0
1.08,4872.0
1.0825,4846.0
1.085,4837.0
1.0875,4833.0
1.09,4788.0
1.0925,4761.0
1.095,4711.0
1.0975,4692.0
1.1,4653.0
1.1025,4618.0
1.105,4585.0
1.1075,4527.0
1.11,4487.0
1.1125,4423.0
1.115,4362.0
1.1175,4343.0
1.12,4273.0
1.1225,4251.0
1.125,4223.0
1.1275,4174.0
1.13,4141.0
1.1325,4099.0
1.135,4099.0
1.1375,4046.0
1.14,4041.0
1.1425,4015.0
1.145,4001.0
1.1475,3973.0
1.15,3951.0
1.1525,3919.0
1.155,3934.0
1.1575,3928.0
1.16,3933.0
1.1625,3899.0
1.165,3915.0
1.1675,3903.0
1.17,3919.0
1.1725,3886.0
1.175,3889.0
1.1775,3873.0
1.18,3863.0
1.1825,3863.0
1.185,3842.0
1.1875,3817.0
1.19,3838.0
1.1925,3827.0
1.195,3839.0
1.1975,3861.0
1.2,3885.0
1.2025,3860.0
1.205,3874.0
1.2075,3893.0
1.21,3892.0
1.2125,3888.0
1.215,3903.0
1.2175,3901.0
1.22,3902.0
1.2225,3923.0
1.225,3909.0
1.2275,3952.0
1.23,3947.0
1.2325,3928.0
1.235,3940.0
1.2375,3950.0
1.24,3962.0
1.2425,3968.0
1.245,3977.0
1.2475,3978.0
1.25,3975.0
1.2525,3951.0
1.255,3956.0
1.2575,3955.0
1.26,3992.0
1.2625,3993.0
1.265,4003.0
1.2675,4000.0
1.27,3983.0
1.2725,4026.0
1.275,4024.0
1.2775,4012.0
1.28,4015.0
1.2825,4007.0
1.285,4018.0
1.2875,3971.0
1.29,3980.0
1.2925,3967.0
1.295,3992.0
1.2975,4004.0
1.3,4018.0
1.3025,4036.0
1.305,4005.0
1.3075,4012.0
1.31,4020.0
1.3125,4006.0
1.315,3999.0
1.3175,3990.0
1.32,4011.0
1.3225,4027.0
1.325,4005.0
1.3275,3994.0
1.33,3999.0
1.3325,4006.0
1.335,3972.0
1.3375,3962.0
1.34,3969.0
1.3425,3985.0
1.345,3977.0
1.3475,4001.0
1.35,3983.0
1.3525,3994.0
1.355,4020.0
1.3575,4032.0
1.36,4010.0
1.3625,4007.0
1.365,4007.0
1.3675,3981.0
1.37,3994.0
1.3725,3972.0
1.375,3991.0
1.3775,4000.0
1.38,3998.0
1.3825,4031.0
1.385,4001.0
1.3875,3996.0
1.39,4012.0
1.3925,4026.0
1.395,4003.0
1.3975,3999.0
1.4,4006.0
1.4025,4019.0
1.405,4017.0
1.4075,4014.0
1.41,4027.0
1.4125,4047.0
1.415,4046.0
1.4175,4046.0
1.42,4049.0
1.4225,4045.0
1.425,4057.0
1.4275,4035.0
1.43,4080.0
1.4325,4069.0
1.435,4059.0
1.4375,4064.0
1.44,4085.0
1.4425,4096.0
1.445,4086.0
1.4475,4117.0
1.45,4149.0
1.4525,4174.0
1.455,4167.0
1.4575,4179.0
1.46,4233.0
1.4625,4256.0
1.465,4307.0
1.4675,4322.0
1.47,4311.0
1.4725,4283.0
1.475,4251.0
1.4775,4252.0
1.48,4291.0
1.4825,4337.0
1.485,4317.0
1.4875,4284.0
1.49,4300.0
1.4925,4280.0
1.495,4259.0
1.4975,4272.0
1.5,4267.0
1.5025,4209.0
1.505,4208.0
1.5075,4209.0
1.51,4191.0
1.5125,4139.0
1.515,4120.0
1.5175,4132.0
1.52,4130.0
1.5225,4139.0
1.525,4100.0
1.5275,4097.0
1.53,4121.0
1.5325,4134.0
1.535,4108.0
1.5375,4120.0
1.54,4119.0
1.5425,4139.0
1.545,4127.0
1.5475,4130.0
1.55,4126.0
1.5525,4095.0
1.555,4083.0
1.5575,4049.0
1.56,4076.0
1.5625,4099.0
1.565,4109.0
1.5675,4114.0
1.57,4130.0
1.5725,4143.0
1.575,4167.0
1.5775,4155.0
1.58,4089.0
1.5825,4034.0
1.585,3921.0
1.5875,3823.0
1.59,3754.0
1.5925,3822.0
1.595,4132.0
1.5975,4530.0
1.6,5099.0
1.6025,5688.0
1.605,6418.0
1.6075,6683.0
1.61,6126.0
1.6125,5221.0
1.615,4541.0
1.6175,4205.0
1.62,3677.0
1.6225,3159.0
1.625,2749.0
1.6275,2299.0
1.63,1829.0
1.6325,1681.0
1.635,1881.0
1.6375,2094.0
1.64,2238.0
1.6425,2288.0
1.645,2433.0
1.6475,2751.0
1.65,2939.0
1.6525,3208.0
1.655,3540.0
1.6575,3997.0
1.66,4303.0
1.6625,4475.0
1.665,4618.0
1.6675,4733.0
1.67,4749.0
1.6725,4745.0
1.675,4732.0
1.6775,4746.0
1.68,4726.0
1.6825,4714.0
1.685,4717.0
1.6875,4703.0
1.69,4677.0
1.6925,4692.0
1.695,4647.0
1.6975,4634.0
1.7,4633.0
1.7025,4624.0
1.705,4631.0
1.7075,4632.0
1.71,4604.0
1.7125,4610.0
1.715,4598.0
1.7175,4604.0
1.72,4610.0
1.7225,4597.0
1.725,4583.0
1.7275,4571.0
1.73,4583.0
1.7325,4589.0
1.735,4585.0
1.7375,4598.0
1.74,4595.0
1.7425,4596.0
1.745,4613.0
1.7475,4616.0
1.75,4607.0
1.7525,4605.0
1.755,4610.0
1.7575,4599.0
1.76,4612.0
1.7625,4625.0
1.765,4622.0
1.7675,4606.0
1.77,4610.0
1.7725,4624.0
1.775,4606.0
1.7775,4613.0
1.78,4642.0
1.7825,4642.0
1.785,4623.0
1.7875,4645.0
1.79,4652.0
1.7925,4638.0
1.795,4632.0
1.7975,4659.0
1.8,4634.0
1.8025,4617.0
1.805,4614.0
1.8075,4608.0
1.81,4602.0
1.8125,4575.0
1.815,4544.0
1.8175,4547.0
1.82,4527.0
1.8225,4470.0
1.825,4454.0
1.8275,4430.0
1.83,4406.0
1.8325,4360.0
1.835,4346.0
1.8375,4307.0
1.84,4265.0
1.8425,4202.0
1.845,4132.0
1.8475,4119.0
1.85,4059.0
1.8525,3980.0
1.855,3954.0
1.8575,3912.0
1.86,3843.0
1.8625,3795.0
1.865,3757.0
1.8675,3701.0
1.87,3644.0
1.8725,3642.0
1.875,3620.0
1.8775,3600.0
1.88,3580.0
1.8825,3562.0
1.885,3517.0
1.8875,3497.0
1.89,3499.0
1.8925,3487.0
1.895,3489.0
1.8975,3479.0
1.9,3483.0
1.9025,3475.0
1.905,3442.0
1.9075,3461.0
1.91,3453.0
1.9125,3441.0
1.915,3456.0
1.9175,3469.0
1.92,3465.0
1.9225,3468.0
1.925,3479.0
1.9275,3477.0
1.93,3476.0
1.9325,3494.0
1.935,3498.0
1.9375,3525.0
1.94,3520.0
1.9425,3535.0
1.945,3536.0
1.9475,3536.0
1.95,3551.0
1.9525,3553.0
1.955,3572.0
1.9575,3609.0
1.96,3608.0
1.9625,3603.0
1.965,3626.0
1.9675,3660.0
1.97,3663.0
1.9725,3645.0
1.975,3640.0
1.9775,3654.0
1.98,3649.0
1.9825,3672.0
1.985,3684.0
1.9875,3688.0
1.99,3698.0
1.9925,3715.0
1.995,3707.0
1.9975,3724.0
2.0,3743.0
2.0025,3723.0
2.005,3750.0
2.0075,3767.0
2.01,3766.0
2.0125,3759.0
2.015,3769.0
2.0175,3771.0
2.02,3763.0
2.0225,3790.0
2.025,3785.0
2.0275,3805.0
2.03,3811.0
2.0325,3767.0
2.035,3820.0
2.0375,3829.0
2.04,3816.0
2.0425,3821.0
2.045,3825.0
2.0475,3851.0
2.05,3837.0
2.0525,3859.0
2.055,3838.0
2.0575,3826.0
2.06,3823.0
2.0625,3814.0
2.065,3818.0
2.0675,3828.0
2.07,3807.0
2.0725,3828.0
2.075,3848.0
2.0775,3815.0
2.08,3817.0
2.0825,3806.0
2.085,3812.0
2.0875,3804.0
2.09,3796.0
2.0925,3765.0
2.095,3804.0
2.0975,3807.0
2.1,3801.0
2.1025,3776.0
2.105,3803.0
2.1075,3804.0
2.11,3806.0
2.1125,3790.0
2.115,3765.0
2.1175,3747.0
2.12,3741.0
2.1225,3770.0
2.125,3779.0
2.1275,3770.0
2.13,3730.0
2.1325,3717.0
2.135,3732.0
2.1375,3757.0
2.14,3708.0
2.1425,3722.0
2.145,3722.0
2.1475,3732.0
2.15,3734.0
2.1525,3740.0
2.155,3718.0
2.1575,3715.0
2.16,3701.0
2.1625,3680.0
2.165,3690.0
2.1675,3697.0
2.17,3695.0
2.1725,3711.0
2.175,3721.0
2.1775,3701.0
2.18,3727.0
2.1825,3755.0
2.185,3757.0
2.1875,3772.0
2.19,3742.0
2.1925,3733.0
2.195,3782.0
2.1975,3782.0
2.2,3749.0
2.2025,3750.0
2.205,3763.0
2.2075,3764.0
2.21,3754.0
2.2125,3755.0
2.215,3777.0
2.2175,3785.0
2.22,3777.0
2.2225,3782.0
2.225,3781.0
2.2275,3789.0
2.23,3800.0
2.2325,3802.0
2.235,3825.0
2.2375,3836.0
2.24,3820.0
2.2425,3830.0
2.245,3820.0
2.2475,3838.0
2.25,3829.0
2.2525,3828.0
2.255,3836.0
2.2575,3827.0
2.26,3836.0
2.2625,3868.0
2.265,3872.0
2.2675,3876.0
2.27,3889.0
2.2725,3919.0
2.275,3963.0
2.2775,4027.0
2.28,4031.0
2.2825,3978.0
2.285,3985.0
2.2875,3932.0
2.29,3926.0
2.2925,3930.0
2.295,3972.0
2.2975,3965.0
2.3,3957.0
2.3025,3986.0
2.305,3972.0
2.3075,3942.0
2.31,3951.0
2.3125,3945.0
2.315,3889.0
2.3175,3824.0
2.32,3819.0
2.3225,3787.0
2.325,3741.0
2.3275,3745.0
2.33,3748.0
2.3325,3729.0
2.335,3731.0
2.3375,3727.0
2.34,3722.0
2.3425,3739.0
2.345,3721.0
2.3475,3731.0
2.35,3726.0
2.3525,3730.0
2.355,3707.0
2.3575,3699.0
2.36,3700.0
2.3625,3698.0
2.365,3711.0
2.3675,3686.0
2.37,3701.0
2.3725,3740.0
2.375,3752.0
2.3775,3754.0
2.38,3758.0
2.3825,3746.0
2.385,3745.0
2.3875,3713.0
2.39,3708.0
2.3925,3676.0
2.395,3611.0
2.3975,3465.0
2.4,3339.0
2.4025,3291.0
2.405,3358.0
2.4075,3726.0
2.41,4163.0
2.4125,4753.0
2.415,5454.0
2.4175,6012.0
2.42,5826.0
2.4225,4998.0
2.425,4078.0
2.4275,3772.0
2.43,3542.0
2.4325,3116.0
2.435,2687.0
2.4375,2331.0
2.44,1809.0
2.4425,1484.0
2.445,1543.0
2.4475,1752.0
2.45,1918.0
2.4525,2046.0
2.455,2253.0
2.4575,2564.0
2.46,2840.0
2.4625,3102.0
2.465,3511.0
2.4675,3941.0
2.47,4256.0
2.4725,4436.0
2.475,4638.0
2.4775,4724.0
2.48,4745.0
2.4825,4731.0
2.485,4692.0
2.4875,4704.0
2.49,4704.0
2.4925,4686.0
2.495,4705.0
2.4975,4675.0
2.5,4644.0
2.5025,4631.0
2.505,4631.0
2.5075,4636.0
2.51,4637.0
2.5125,4615.0
2.515,4613.0
2.5175,4625.0
2.52,4631.0
2.5225,4617.0
2.525,4614.0
2.5275,4598.0
2.53,4599.0
2.5325,4620.0
2.535,4625.0
2.5375,4636.0
2.54,4648.0
2.5425,4605.0
2.545,4592.0
2.5475,4581.0
2.55,4606.0
2.5525,4634.0
2.555,4654.0
2.5575,4678.0
2.56,4721.0
2.5625,4722.0
2.565,4724.0
2.5675,4734.0
2.57,4743.0
2.5725,4737.0
2.575,4780.0
2.5775,4804.0
2.58,4839.0
2.5825,4833.0
2.585,4832.0
2.5875,4817.0
2.59,4826.0
2.5925,4847.0
2.595,4843.0
2.5975,4857.0
2.6,4836.0
2.6025,4863.0
2.605,4868.0
2.6075,4851.0
2.61,4836.0
2.6125,4832.0
2.615,4829.0
2.6175,4815.0
2.62,4812.0
2.6225,4752.0
2.625,4778.0
2.6275,4732.0
2.63,4711.0
2.6325,4689.0
2.635,4665.0
2.6375,4652.0
2.64,4615.0
2.6425,4556.0
2.645,4536.0
2.6475,4446.0
2.65,4402.0
2.6525,4360.0
2.655,4327.0
2.6575,4258.0
2.66,4216.0
2.6625,4156.0
2.665,4122.0
2.6675,4052.0
2.67,3990.0
2.6725,3945.0
2.675,3888.0
2.6775,3856.0
2.68,3805.0
2.6825,3767.0
2.685,3708.0
2.6875,3671.0
2.69,3645.0
2.6925,3622.0
2.695,3619.0
2.6975,3577.0
2.7,3580.0
2.7025,3560.0
2.705,3521.0
2.7075,3517.0
2.71,3522.0
2.7125,3529.0
2.715,3540.0
2.7175,3527.0
2.72,3509.0
2.7225,3495.0
2.725,3523.0
2.7275,3517.0
2.73,3514.0
2.7325,3521.0
2.735,3532.0
2.7375,3542.0
2.74,3528.0
2.7425,3562.0
2.745,3554.0
2.7475,3586.0
2.75,3582.0
2.7525,3559.0
2.755,3553.0
2.7575,3562.0
2.76,3592.0
2.7625,3612.0
2.765,3595.0
2.7675,3604.0
2.77,3609.0
2.7725,3628.0
2.775,3624.0
2.7775,3639.0
2.78,3639.0
2.7825,3655.0
2.785,3684.0
2.7875,3687.0
2.79,3682.0
2.7925,3699.0
2.795,3690.0
2.7975,3729.0
2.8,3737.0
2.8025,3744.0
2.805,3784.0
2.8075,3800.0
2.81,3832.0
2.8125,3841.0
2.815,3856.0
2.8175,3848.0
2.82,3873.0
2.8225,3882.0
2.825,3864.0
2.8275,3875.0
2.83,3861.0
2.8325,3899.0
2.835,3887.0
2.8375,3884.0
2.84,3931.0
2.8425,3954.0
2.845,3956.0
2.8475,3964.0
2.85,3954.0
2.8525,3931.0
2.855,3929.0
2.8575,3934.0
2.86,3955.0
2.8625,3970.0
2.865,3990.0
2.8675,3986.0
2.87,3993.0
2.8725,3989.0
2.875,3977.0
2.8775,3976.0
2.88,4011.0
2.8825,4015.0
2.885,4010.0
2.8875,4004.0
2.89,4008.0
2.8925,4003.0
2.895,3995.0
2.8975,4011.0
2.9,4037.0
2.9025,4013.0
2.905,3994.0
2.9075,3993.0
2.91,4013.0
2.9125,4021.0
2.915,4021.0
2.9175,4024.0
2.92,4013.0
2.9225,4022.0
2.925,4026.0
2.9275,4055.0
2.93,4064.0
2.9325,4057.0
2.935,4027.0
2.9375,4045.0
2.94,4027.0
2.9425,4023.0
2.945,4058.0
2.9475,4063.0
2.95,4067.0
2.9525,4082.0
2.955,4076.0
2.9575,4096.0
2.96,4120.0
2.9625,4109.0
2.965,4107.0
2.9675,4101.0
2.97,4098.0
2.9725,4114.0
2.975,4093.0
2.9775,4127.0
2.98,4152.0
2.9825,4172.0
2.985,4151.0
2.9875,4174.0
2.99,4154.0
2.9925,4137.0
2.995,4160.0
2.9975,4180.0
3.0,4202.0
3.0025,4193.0
3.005,4196.0
3.0075,4199.0
3.01,4211.0
3.0125,4214.0
3.015,4200.0
3.0175,4205.0
3.02,4211.0
3.0225,4213.0
3.025,4211.0
3.0275,4198.0
3.03,4187.0
3.0325,4221.0
3.035,4223.0
3.0375,4234.0
3.04,4218.0
3.0425,4212.0
3.045,4229.0
3.0475,4229.0
3.05,4211.0
3.0525,4164.0
3.055,4175.0
3.0575,4210.0
3.06,4200.0
3.0625,4208.0
3.065,4212.0
3.0675,4204.0
3.07,4196.0
3.0725,4189.0
3.075,4170.0
3.0775,4177.0
3.08,4185.0
3.0825,4186.0
3.085,4160.0
3.0875,4153.0
3.09,4129.0
3.0925,4113.0
3.095,4113.0
3.0975,4127.0
3.1,4137.0
3.1025,4111.0
3.105,4097.0
3.1075,4091.0
3.11,4089.0
3.1125,4077.0
3.115,4083.0
3.1175,4086.0
3.12,4063.0
3.1225,4063.0
3.125,4062.0
3.1275,4089.0
3.13,4078.0
3.1325,4075.0
3.135,4055.0
3.1375,4053.0
3.14,4059.0
3.1425,4048.0
3.145,4069.0
3.1475,4062.0
3.15,4075.0
3.1525,4070.0
3.155,4029.0
3.1575,4048.0
3.16,4082.0
3.1625,4073.0
3.165,4091.0
3.1675,4103.0
3.17,4105.0
3.1725,4144.0
3.175,4160.0
3.1775,4206.0
3.18,4210.0
3.1825,4223.0
3.185,4207.0
3.1875,4204.0
3.19,4180.0
3.1925,4196.0
3.195,4184.0
3.1975,4221.0
3.2,4222.0
3.2025,4211.0
3.205,4222.0
3.2075,4182.0
3.21,4160.0
3.2125,4169.0
3.215,4150.0
3.2175,4127.0
3.22,4081.0
3.2225,4037.0
3.225,3996.0
3.2275,3965.0
3.23,3948.0
3.2325,3969.0
3.235,3917.0
3.2375,3926.0
3.24,3917.0
3.2425,3905.0
3.245,3932.0
3.2475,3927.0
3.25,3954.0
3.2525,3964.0
3.255,3958.0
3.2575,3963.0
3.26,3935.0
3.2625,3938.0
3.265,3910.0
3.2675,3914.0
3.27,3907.0
3.2725,3901.0
3.275,3914.0
3.2775,3920.0
3.28,3975.0
3.2825,3961.0
3.285,3964.0
3.2875,3953.0
3.29,3957.0
3.2925,3935.0
3.295,3843.0
3.2975,3731.0
3.3,3569.0
3.3025,3434.0
3.305,3421.0
3.3075,3610.0
3.31,3974.0
3.3125,4523.0
3.315,5059.0
3.3175,5767.0
3.32,6144.0
3.3225,5699.0
3.325,4828.0
3.3275,4135.0
3.33,3930.0
3.3325,3642.0
3.335,3191.0
3.3375,2831.0
3.34,2262.0
3.3425,1792.0
3.345,1529.0
3.3475,1667.0
3.35,1815.0
3.3525,1928.0
3.355,2079.0
3.3575,2300.0
3.36,2584.0
3.3625,2859.0
3.365,3180.0
3.3675,3639.0
3.37,4012.0
3.3725,4297.0
3.375,4456.0
3.3775,4637.0
3.38,4673.0
3.3825,4664.0
3.385,4674.0
3.3875,4669.0
3.39,4693.0
3.3925,4664.0
3.395,4644.0
3.3975,4641.0
3.4,4664.0
3.4025,4637.0
3.405,4639.0
3.4075,4623.0
3.41,4640.0
3.4125,4643.0
3.415,4626.0
3.4175,4623.0
3.42,4625.0
3.4225,4617.0
3.425,4653.0
3.4275,4604.0
3.43,4598.0
3.4325,4597.0
3.435,4564.0
3.4375,4544.0
3.44,4522.0
3.4425,4534.0
3.445,4541.0
3.4475,4500.0
3.45,4507.0
3.4525,4511.0
3.455,4527.0
3.4575,4538.0
3.46,4514.0
3.4625,4530.0
3.465,4516.0
3.4675,4525.0
3.47,4529.0
3.4725,4541.0
3.475,4527.0
3.4775,4556.0
3.48,4547.0
3.4825,4538.0
3.485,4554.0
3.4875,4571.0
3.49,4618.0
3.4925,4603.0
3.495,4616.0
3.4975,4618.0
3.5,4629.0
3.5025,4618.0
3.505,4594.0
3.5075,4602.0
3.51,4601.0
3.5125,4577.0
3.515,4558.0
3.5175,4534.0
3.52,4511.0
3.5225,4492.0
3.525,4476.0
3.5275,4460.0
3.53,4416.0
3.5325,4358.0
3.535,4321.0
3.5375,4294.0
3.54,4250.0
3.5425,4198.0
3.545,4151.0
3.5475,4105.0
3.55,4066.0
3.5525,4006.0
3.555,3940.0
3.5575,3897.0
3.56,3850.0
3.5625,3808.0
3.565,3791.0
3.5675,3734.0
3.57,3692.0
3.5725,3659.0
3.575,3580.0
3.5775,3561.0
3.58,3516.0
3.5825,3455.0
3.585,3442.0
3.5875,3380.0
3.59,3348.0
3.5925,3338.0
3.595,3297.0
3.5975,3268.0
3.6,3282.0
3.6025,3233.0
3.605,3208.0
3.6075,3217.0
3.61,3145.0
3.6125,3193.0
3.615,3151.0
3.6175,3150.0
3.62,3151.0
3.6225,3129.0
3.625,3128.0
3.6275,3117.0
3.63,3096.0
3.6325,3110.0
3.635,3129.0
3.6375,3155.0
3.64,3166.0
3.6425,3177.0
3.645,3171.0
3.6475,3178.0
3.65,3184.0
3.6525,3192.0
3.655,3218.0
3.6575,3234.0
3.66,3227.0
3.6625,3251.0
3.665,3254.0
3.6675,3250.0
3.67,3251.0
3.6725,3290.0
3.675,3310.0
3.6775,3299.0
3.68,3312.0
3.6825,3322.0
3.685,3312.0
3.6875,3342.0
3.69,3325.0
3.6925,3354.0
3.695,3381.0
3.6975,3376.0
3.7,3405.0
3.7025,3400.0
3.705,3415.0
3.7075,3445.0
3.71,3461.0
3.7125,3489.0
3.715,3526.0
3.7175,3522.0
3.72,3555.0
3.7225,3577.0
3.725,3581.0
3.7275,3597.0
3.73,3633.0
3.7325,3645.0
3.735,3643.0
3.7375,3642.0
3.74,3628.0
3.7425,3654.0
3.745,3654.0
3.7475,3632.0
3.75,3656.0
3.7525,3677.0
3.755,3707.0
3.7575,3703.0
3.76,3728.0
3.7625,3743.0
3.765,3729.0
3.7675,3755.0
3.77,3729.0
3.7725,3748.0
3.775,3729.0
3.7775,3740.0
3.78,3734.0
3.7825,3751.0
3.785,3720.0
3.7875,3769.0
3.79,3730.0
3.7925,3741.0
3.795,3745.0
3.7975,3747.0
3.8,3732.0
3.8025,3749.0
3.805,3773.0
3.8075,3774.0
3.81,3772.0
3.8125,3776.0
3.815,3788.0
3.8175,3781.0
3.82,3817.0
3.8225,3804.0
3.825,3823.0
3.8275,3815.0
3.83,3830.0
3.8325,3853.0
3.835,3832.0
3.8375,3861.0
3.84,3866.0
3.8425,3862.0
3.845,3863.0
3.8475,3865.0
3.85,3876.0
3.8525,3866.0
3.855,3907.0
3.8575,3899.0
3.86,3934.0
3.8625,3917.0
3.865,3940.0
3.8675,3936.0
3.87,3945.0
3.8725,3963.0
3.875,3970.0
3.8775,3970.0
3.88,3960.0
3.8825,3958.0
3.885,3968.0
3.8875,3966.0
3.89,3946.0
3.8925,3932.0
3.895,3936.0
3.8975,3905.0
3.9,3914.0
3.9025,3941.0
3.905,3960.0
3.9075,3956.0
3.91,3932.0
3.9125,3951.0
3.915,3976.0
3.9175,3953.0
3.92,3948.0
3.9225,3940.0
3.925,3941.0
3.9275,3948.0
3.93,3960.0
3.9325,3942.0
3.935,3934.0
3.9375,3921.0
3.94,3882.0
3.9425,3915.0
3.945,3887.0
3.9475,3862.0
3.95,3872.0
3.9525,3872.0
3.955,3867.0
3.9575,3879.0
3.96,3886.0
3.9625,3890.0
3.965,3901.0
3.9675,3883.0
3.97,3883.0
3.9725,3860.0
3.975,3866.0
3.9775,3857.0
3.98,3865.0
3.9825,3877.0
3.985,3896.0
3.9875,3886.0
3.99,3858.0
3.9925,3819.0
3.995,3848.0
3.9975,3855.0
4.0,3867.0
4.0025,3852.0
4.005,3862.0
4.0075,3858.0
4.01,3872.0
4.0125,3876.0
4.015,3884.0
4.0175,3904.0
4.02,3893.0
4.0225,3917.0
4.025,3905.0
4.0275,3889.0
4.03,3916.0
4.0325,3898.0
4.035,3849.0
4.0375,3878.0
4.04,3910.0
4.0425,3878.0
4.045,3860.0
4.0475,3883.0
4.05,3873.0
4.0525,3850.0
4.055,3857.0
4.0575,3862.0
4.06,3881.0
4.0625,3888.0
4.065,3916.0
4.0675,3924.0
4.07,3938.0
4.0725,3944.0
4.075,3971.0
4.0775,3966.0
4.08,3965.0
4.0825,3975.0
4.085,3957.0
4.0875,3984.0
4.09,4063.0
4.0925,4095.0
4.095,4100.0
4.0975,4117.0
4.1,4099.0
4.1025,4051.0
4.105,4069.0
4.1075,4088.0
4.11,4093.0
4.1125,4138.0
4.115,4126.0
4.1175,4134.0
4.12,4127.0
4.1225,4082.0
4.125,4080.0
4.1275,4047.0
4.13,3992.0
4.1325,3953.0
4.135,3943.0
4.1375,3918.0
4.14,3882.0
4.1425,3883.0
4.145,3872.0
4.1475,3851.0
4.15,3813.0
4.1525,3806.0
4.155,3805.0
4.1575,3758.0
4.16,3784.0
4.1625,3770.0
4.165,3821.0
4.1675,3859.0
4.17,3830.0
4.1725,3809.0
4.175,3800.0
4.1775,3815.0
4.18,3822.0
4.1825,3783.0
4.185,3787.0
4.1875,3792.0
4.19,3788.0
4.1925,3769.0
4.195,3785.0
4.1975,3768.0
4.2,3785.0
4.2025,3805.0
4.205,3753.0
4.2075,3695.0
4.21,3571.0
4.2125,3460.0
4.215,3369.0
4.2175,3363.0
4.22,3562.0
4.2225,3943.0
4.225,4407.0
4.2275,4897.0
4.23,5624.0
4.2325,6238.0
4.235,6175.0
4.2375,5401.0
4.24,4585.0
4.2425,4120.0
4.245,3630.0
4.2475,3152.0
4.25,2610.0
4.2525,2208.0
4.255,1660.0
4.2575,1355.0
4.26,1334.0
4.2625,1649.0
4.265,1876.0
4.2675,1988.0
4.27,2050.0
4.2725,2282.0
4.275,2570.0
4.2775,2819.0
4.28,3096.0
4.2825,3423.0
4.285,3800.0
4.2875,4089.0
4.29,4208.0
4.2925,4383.0
4.295,4477.0
4.2975,4518.0
4.3,4526.0
4.3025,4510.0
4.305,4498.0
4.3075,4513.0
4.31,4536.0
4.3125,4503.0
4.315,4522.0
4.3175,4552.0
4.32,4570.0
4.3225,4553.0
4.325,4526.0
4.3275,4559.0
4.33,4586.0
4.3325,4593.0
4.335,4595.0
4.3375,4619.0
4.34,4617.0
4.3425,4622.0
4.345,4614.0
4.3475,4598.0
4.35,4633.0
4.3525,4644.0
4.355,4639.0
4.3575,4632.0
4.36,4674.0
4.3625,4658.0
4.365,4659.0
4.3675,4655.0
4.37,4636.0
4.3725,4635.0
4.375,4638.0
4.3775,4639.0
4.38,4643.0
4.3825,4669.0
4.385,4665.0
4.3875,4655.0
4.39,4662.0
4.3925,4669.0
4.395,4668.0
4.3975,4634.0
4.4,4652.0
4.4025,4633.0
4.405,4654.0
4.4075,4696.0
4.41,4765.0
4.4125,4760.0
4.415,4752.0
4.4175,4763.0
4.42,4772.0
4.4225,4759.0
4.425,4761.0
4.4275,4740.0
4.43,4750.0
4.4325,4734.0
4.435,4708.0
4.4375,4707.0
4.44,4710.0
4.4425,4705.0
4.445,4727.0
4.4475,4702.0
4.45,4670.0
4.4525,4606.0
4.455,4588.0
4.4575,4546.0
4.46,4535.0
4.4625,4489.0
4.465,4416.0
4.4675,4370.0
4.47,4318.0
4.4725,4265.0
4.475,4230.0
4.4775,4197.0
4.48,4147.0
4.4825,4069.0
4.485,4036.0
4.4875,4016.0
4.49,3957.0
4.4925,3939.0
4.495,3921.0
4.4975,3880.0
4.5,3899.0
4.5025,3894.0
4.505,3839.0
4.5075,3835.0
4.51,3805.0
4.5125,3785.0
4.515,3777.0
4.5175,3743.0
4.52,3735.0
4.5225,3731.0
4.525,3673.0
4.5275,3688.0
4.53,3679.0
4.5325,3707.0
4.535,3666.0
4.5375,3681.0
4.54,3689.0
4.5425,3657.0
4.545,3677.0
4.5475,3655.0
4.55,3677.0
4.5525,3670.0
4.555,3670.0
4.5575,3658.0
4.56,3702.0
4.5625,3719.0
4.565,3727.0
4.5675,3749.0
4.57,3761.0
4.5725,3774.0
4.575,3779.0
4.5775,3784.0
4.58,3794.0
4.5825,3780.0
4.585,3805.0
4.5875,3858.0
4.59,3855.0
4.5925,3917.0
4.595,3959.0
4.5975,3981.0
4.6,3986.0
4.6025,3971.0
4.605,4003.0
4.6075,4012.0
4.61,4041.0
4.6125,4039.0
4.615,4061.0
4.6175,4017.0
4.62,4005.0
4.6225,4002.0
4.625,4017.0
4.6275,4034.0
4.63,4022.0
4.6325,3998.0
4.635,4006.0
4.6375,4044.0
4.64,4037.0
4.6425,4028.0
4.645,4047.0
4.6475,4050.0
4.65,4060.0
4.6525,4082.0
4.655,4061.0
4.6575,4044.0
4.66,4034.0
4.6625,4066.0
4.665,4095.0
4.6675,4115.0
4.67,4105.0
4.6725,4100.0
4.675,4072.0
4.6775,4112.0
4.68,4080.0
4.6825,4066.0
4.685,4033.0
4.6875,4010.0
4.69,4002.0
4.6925,4002.0
4.695,4013.0
4.6975,4038.0
4.7,4025.0
4.7025,4016.0
4.705,4033.0
4.7075,4020.0
4.71,4014.0
4.7125,3979.0
4.715,3948.0
4.7175,3944.0
4.72,3951.0
4.7225,3936.0
4.725,3980.0
4.7275,3988.0
4.73,3979.0
4.7325,3985.0
4.735,3978.0
4.7375,3994.0
4.74,3963.0
4.7425,3933.0
4.745,3934.0
4.7475,3887.0
4.75,3879.0
4.7525,3870.0
4.755,3914.0
4.7575,3940.0
4.76,3916.0
4.7625,3908.0
4.765,3911.0
4.7675,3913.0
4.77,3927.0
4.7725,3935.0
4.775,3936.0
4.7775,3933.0
4.78,3922.0
4.7825,3888.0
4.785,3867.0
4.7875,3904.0
4.79,3919.0
4.7925,3969.0
4.795,3958.0
4.7975,3978.0
4.8,3964.0
4.8025,3952.0
4.805,3940.0
4.8075,3950.0
4.81,3927.0
4.8125,3951.0
4.815,3952.0
4.8175,3942.0
4.82,3948.0
4.8225,3972.0
4.825,3938.0
4.8275,3982.0
4.83,3960.0
4.8325,3949.0
4.835,3966.0
4.8375,3999.0
4.84,3991.0
4.8425,4017.0
4.845,4008.0
4.8475,4024.0
4.85,4011.0
4.8525,4019.0
4.855,4008.0
4.8575,3985.0
4.86,4008.0
4.8625,4000.0
4.865,4011.0
4.8675,4021.0
4.87,4016.0
4.8725,4031.0
4.875,4065.0
4.8775,4067.0
4.88,4051.0
4.8825,4065.0
4.885,4047.0
4.8875,4037.0
4.89,4046.0
4.8925,4025.0
4.895,4016.0
4.8975,3988.0
4.9,4032.0
4.9025,4036.0
4.905,4023.0
4.9075,4007.0
4.91,3976.0
4.9125,3998.0
4.915,4020.0
4.9175,4022.0
4.92,4046.0
4.9225,4014.0
4.925,4016.0
4.9275,4005.0
4.93,4015.0
4.9325,3991.0
4.935,3944.0
4.9375,3934.0
4.94,3895.0
4.9425,3906.0
4.945,3917.0
4.9475,3940.0
4.95,3928.0
4.9525,3908.0
4.955,3876.0
4.9575,3887.0
4.96,3883.0
4.9625,3892.0
4.965,3874.0
4.9675,3943.0
4.97,4015.0
4.9725,4027.0
4.975,3980.0
4.9775,3962.0
4.98,3905.0
4.9825,3880.0
4.985,3922.0
4.9875,3933.0
4.99,3925.0
4.9925,3926.0
4.995,3979.0
4.9975,3959.0
5.0,3908.0
5.0025,3894.0
5.005,3889.0
5.0075,3852.0
5.01,3819.0
5.0125,3807.0
5.015,3758.0
5.0175,3729.0
5.02,3702.0
5.0225,3696.0
5.025,3637.0
5.0275,3649.0
5.03,3654.0
5.0325,3671.0
5.035,3705.0
5.0375,3695.0
5.04,3697.0
5.0425,3703.0
5.045,3655.0
5.0475,3644.0
5.05,3656.0
5.0525,3622.0
5.055,3635.0
5.0575,3612.0
5.06,3596.0
5.0625,3604.0
5.065,3611.0
5.0675,3574.0
5.07,3600.0
5.0725,3597.0
5.075,3623.0
5.0775,3642.0
5.08,3624.0
5.0825,3606.0
5.085,3541.0
5.0875,3411.0
5.09,3284.0
5.0925,3187.0
5.095,3186.0
5.0975,3377.0
5.1,3797.0
5.1025,4349.0
5.105,4889.0
5.1075,5614.0
5.11,5970.0
5.1125,5473.0
5.115,4617.0
5.1175,3979.0
5.12,3735.0
5.1225,3364.0
5.125,2967.0
5.1275,2609.0
5.13,2099.0
5.1325,1661.0
5.135,1395.0
5.1375,1559.0
5.14,1784.0
5.1425,1937.0
5.145,2006.0
5.1475,2197.0
5.15,2503.0
5.1525,2786.0
5.155,3077.0
5.1575,3458.0
5.16,3893.0
5.1625,4181.0
5.165,4358.0
5.1675,4496.0
5.17,4588.0
5.1725,4615.0
5.175,4620.0
5.1775,4615.0
5.18,4629.0
5.1825,4636.0
5.185,4654.0
5.1875,4658.0
5.19,4634.0
5.1925,4631.0
5.195,4651.0
5.1975,4631.0
5.2,4618.0
5.2025,4588.0
5.205,4617.0
5.2075,4619.0
5.21,4603.0
5.2125,4620.0
5.215,4612.0
5.2175,4587.0
5.22,4603.0
5.2225,4589.0
5.225,4570.0
5.2275,4560.0
5.23,4563.0
5.2325,4605.0
5.235,4627.0
5.2375,4601.0
5.24,4605.0
5.2425,4591.0
5.245,4596.0
5.2475,4603.0
5.25,4609.0
5.2525,4611.0
5.255,4581.0
5.2575,4599.0
5.26,4631.0
5.2625,4641.0
5.265,4674.0
5.2675,4688.0
5.27,4670.0
5.2725,4686.0
5.275,4700.0
5.2775,4711.0
5.28,4740.0
5.2825,4740.0
5.285,4731.0
5.2875,4746.0
5.29,4742.0
5.2925,4744.0
5.295,4750.0
5.2975,4742.0
5.3,4759.0
5.3025,4755.0
5.305,4734.0
5.3075,4733.0
5.31,4735.0
5.3125,4702.0
5.315,4707.0
5.3175,4671.0
5.32,4663.0
5.3225,4670.0
5.325,4643.0
5.3275,4609.0
5.33,4589.0
5.3325,4542.0
5.335,4550.0
5.3375,4484.0
5.34,4481.0
5.3425,4441.0
5.345,4376.0
5.3475,4341.0
5.35,4276.0
5.3525,4229.0
5.355,4136.0
5.3575,4071.0
5.36,4022.0
5.3625,3963.0
5.365,3896.0
5.3675,3866.0
5.37,3830.0
5.3725,3806.0
5.375,3757.0
5.3775,3708.0
5.38,3691.0
5.3825,3642.0
5.385,3611.0
5.3875,3592.0
5.39,3582.0
5.3925,3588.0
5.395,3572.0
5.3975,3552.0
5.4,3530.0
5.4025,3491.0
5.405,3480.0
5.4075,3494.0
5.41,3473.0
5.4125,3491.0
5.415,3479.0
5.4175,3475.0
5.42,3464.0
5.4225,3461.0
5.425,3460.0
5.4275,3467.0
5.43,3495.0
5.4325,3476.0
5.435,3451.0
5.4375,3435.0
5.44,3470.0
5.4425,3468.0
5.445,3504.0
5.4475,3506.0
5.45,3553.0
5.4525,3592.0
5.455,3551.0
5.4575,3598.0
5.46,3573.0
5.4625,3575.0
5.465,3562.0
5.4675,3564.0
5.47,3570.0
5.4725,3598.0
5.475,3609.0
5.4775,3609.0
5.48,3627.0
5.4825,3659.0
5.485,3660.0
5.4875,3670.0
5.49,3673.0
5.4925,3684.0
5.495,3689.0
5.4975,3705.0
5.5,3701.0
5.5025,3725.0
5.505,3722.0
5.5075,3719.0
5.51,3715.0
5.5125,3736.0
5.515,3758.0
5.5175,3750.0
5.52,3775.0
5.5225,3757.0
5.525,3763.0
5.5275,3760.0
5.53,3773.0
5.5325,3787.0
5.535,3807.0
5.5375,3821.0
5.54,3805.0
5.5425,3813.0
5.545,3793.0
5.5475,3810.0
5.55,3812.0
5.5525,3818.0
5.555,3837.0
5.5575,3822.0
5.56,3845.0
5.5625,3830.0
5.565,3835.0
5.5675,3841.0
5.57,3828.0
5.5725,3856.0
5.575,3863.0
5.5775,3864.0
5.58,3855.0
5.5825,3867.0
5.585,3878.0
5.5875,3893.0
5.59,3869.0
5.5925,3885.0
5.595,3880.0
5.5975,3900.0
5.6,3909.0
5.6025,3914.0
5.605,3895.0
5.6075,3895.0
5.61,3903.0
5.6125,3918.0
5.615,3908.0
5.6175,3913.0
5.62,3926.0
5.6225,3918.0
5.625,3885.0
5.6275,3899.0
5.63,3917.0
5.6325,3896.0
5.635,3914.0
5.6375,3901.0
5.64,3915.0
5.6425,3923.0
5.645,3936.0
5.6475,3938.0
5.65,3939.0
5.6525,3944.0
5.655,3945.0
5.6575,3954.0
5.66,3972.0
5.6625,3954.0
5.665,3961.0
5.6675,3976.0
5.67,4000.0
5.6725,4005.0
5.675,3982.0
5.6775,3972.0
5.68,4004.0
5.6825,4011.0
5.685,4010.0
5.6875,4003.0
5.69,4004.0
5.6925,4044.0
5.695,4031.0
5.6975,4042.0
5.7,4067.0
5.7025,4046.0
5.705,4070.0
5.7075,4076.0
5.71,4043.0
5.7125,4055.0
5.715,4067.0
5.7175,4077.0
5.72,4111.0
5.7225,4094.0
5.725,4091.0
5.7275,4111.0
5.73,4102.0
5.7325,4095.0
5.735,4094.0
5.7375,4113.0
5.74,4118.0
5.7425,4098.0
5.745,4107.0
5.7475,4136.0
5.75,4146.0
5.7525,4156.0
5.755,4115.0
5.7575,4125.0
5.76,4147.0
5.7625,4120.0
5.765,4146.0
5.7675,4143.0
5.77,4124.0
5.7725,4113.0
5.775,4122.0
5.7775,4122.0
5.78,4106.0
5.7825,4122.0
5.785,4130.0
5.7875,4124.0
5.79,4133.0
5.7925,4120.0
5.795,4121.0
5.7975,4117.0
5.8,4103.0
5.8025,4116.0
5.805,4153.0
5.8075,4128.0
5.81,4143.0
5.8125,4154.0
5.815,4148.0
5.8175,4134.0
5.82,4135.0
5.8225,4111.0
5.825,4130.0
5.8275,4139.0
5.83,4170.0
5.8325,4149.0
5.835,4133.0
5.8375,4149.0
5.84,4126.0
5.8425,4144.0
5.845,4140.0
5.8475,4161.0
5.85,4204.0
5.8525,4190.0
5.855,4170.0
5.8575,4207.0
5.86,4217.0
5.8625,4251.0
5.865,4336.0
5.8675,4358.0
5.87,4347.0
5.8725,4347.0
5.875,4308.0
5.8775,4268.0
5.88,4280.0
5.8825,4329.0
5.885,4371.0
5.8875,4299.0
5.89,4343.0
5.8925,4336.0
5.895,4278.0
5.8975,4268.0
5.9,4279.0
5.9025,4244.0
5.905,4188.0
5.9075,4186.0
5.91,4161.0
5.9125,4125.0
5.915,4086.0
5.9175,4075.0
5.92,4061.0
5.9225,4025.0
5.925,4034.0
5.9275,4013.0
5.93,4001.0
5.9325,3991.0
5.935,3986.0
5.9375,4006.0
5.94,3995.0
5.9425,3966.0
5.945,3941.0
5.9475,3931.0
5.95,3939.0
5.9525,3946.0
5.955,3955.0
5.9575,3944.0
5.96,3931.0
5.9625,3943.0
5.965,3956.0
5.9675,3956.0
5.97,3965.0
5.9725,3996.0
5.975,3985.0
5.9775,3929.0
5.98,3854.0
5.9825,3717.0
5.985,3542.0
5.9875,3423.0
5.99,3392.0
5.9925,3580.0
5.995,3905.0
5.9975,4472.0
6.0,4982.0
6.0025,5663.0
6.005,6127.0
6.0075,5753.0
6.01,4951.0
6.0125,4290.0
6.015,4079.0
6.0175,3787.0
6.02,3387.0
6.0225,2996.0
6.025,2422.0
6.0275,1906.0
6.03,1615.0
6.0325,1766.0
6.035,1944.0
6.0375,2081.0
6.04,2182.0
6.0425,2433.0
6.045,2722.0
6.0475,2956.0
6.05,3230.0
6.0525,3638.0
6.055,4001.0
6.0575,4271.0
6.06,4445.0
6.0625,4626.0
6.065,4694.0
6.0675,4695.0
6.07,4696.0
6.0725,4693.0
6.075,4697.0
6.0775,4697.0
6.08,4675.0
6.0825,4692.0
6.085,4699.0
6.0875,4696.0
6.09,4683.0
6.0925,4676.0
6.095,4701.0
6.0975,4683.0
6.1,4688.0
6.1025,4676.0
6.105,4692.0
6.1075,4664.0
6.11,4657.0
6.1125,4650.0
6.115,4655.0
6.1175,4635.0
6.12,4633.0
6.1225,4626.0
6.125,4624.0
6.1275,4601.0
6.13,4618.0
6.1325,4615.0
6.135,4623.0
6.1375,4635.0
6.14,4643.0
6.1425,4634.0
6.145,4633.0
6.1475,4628.0
6.15,4620.0
6.1525,4625.0
6.155,4646.0
6.1575,4654.0
6.16,4651.0
6.1625,4661.0
6.165,4682.0
6.1675,4694.0
6.17,4663.0
6.1725,4661.0
6.175,4680.0
6.1775,4710.0
6.18,4699.0
6.1825,4723.0
6.185,4716.0
6.1875,4703.0
6.19,4704.0
6.1925,4720.0
6.195,4750.0
6.1975,4759.0
6.2,4741.0
6.2025,4691.0
6.205,4656.0
6.2075,4638.0
6.21,4657.0
6.2125,4644.0
6.215,4609.0
6.2175,4587.0
6.22,4569.0
6.2225,4538.0
6.225,4546.0
6.2275,4512.0
6.23,4470.0
6.2325,4440.0
6.235,4388.0
6.2375,4362.0
6.24,4313.0
6.2425,4244.0
6.245,4210.0
6.2475,4158.0
6.25,4089.0
6.2525,4067.0
6.255,4013.0
6.2575,3962.0
6.26,3922.0
6.2625,3868.0
6.265,3825.0
6.2675,3773.0
6.27,3725.0
6.2725,3710.0
6.275,3655.0
6.2775,3628.0
6.28,3617.0
6.2825,3594.0
6.285,3579.0
6.2875,3575.0
6.29,3545.0
6.2925,3514.0
6.295,3481.0
6.2975,3512.0
6.3,3485.0
6.3025,3445.0
6.305,3467.0
6.3075,3435.0
6.31,3451.0
6.3125,3461.0
6.315,3442.0
6.3175,3437.0
6.32,3465.0
6.3225,3454.0
6.325,3477.0
6.3275,3482.0
6.33,3472.0
6.3325,3495.0
6.335,3461.0
6.3375,3491.0
6.34,3462.0
6.3425,3498.0
6.345,3481.0
6.3475,3497.0
6.35,3546.0
6.3525,3580.0
6.355,3573.0
6.3575,3582.0
6.36,3568.0
6.3625,3579.0
6.365,3582.0
6.3675,3549.0
6.37,3601.0
6.3725,3620.0
6.375,3624.0
6.3775,3637.0
6.38,3634.0
6.3825,3620.0
6.385,3620.0
6.3875,3626.0
6.39,3662.0
6.3925,3658.0
6.395,3662.0
6.3975,3665.0
6.4,3704.0
6.4025,3683.0
6.405,3673.0
6.4075,3681.0
6.41,3674.0
6.4125,3699.0
6.415,3696.0
6.4175,3707.0
6.42,3693.0
6.4225,3702.0
6.425,3732.0
6.4275,3761.0
6.43,3742.0
6.4325,3771.0
6.435,3809.0
6.4375,3793.0
6.44,3768.0
6.4425,3754.0
6.445,3775.0
6.4475,3786.0
6.45,3775.0
6.4525,3793.0
6.455,3801.0
6.4575,3833.0
6.46,3842.0
6.4625,3836.0
6.465,3829.0
6.4675,3818.0
6.47,3798.0
6.4725,3784.0
6.475,3802.0
6.4775,3800.0
6.48,3800.0
6.4825,3797.0
6.485,3793.0
6.4875,3793.0
6.49,3815.0
6.4925,3834.0
6.495,3827.0
6.4975,3837.0
6.5,3796.0
6.5025,3800.0
6.505,3818.0
6.5075,3827.0
6.51,3835.0
6.5125,3814.0
6.515,3833.0
6.5175,3847.0
6.52,3826.0
6.5225,3851.0
6.525,3829.0
6.5275,3843.0
6.53,3845.0
6.5325,3814.0
6.535,3821.0
6.5375,3844.0
6.54,3871.0
6.5425,3862.0
6.545,3876.0
6.5475,3874.0
6.55,3855.0
6.5525,3870.0
6.555,3878.0
6.5575,3876.0
6.56,3880.0
6.5625,3868.0
6.565,3880.0
6.5675,3872.0
6.57,3879.0
6.5725,3894.0
6.575,3904.0
6.5775,3912.0
6.58,3894.0
6.5825,3915.0
6.585,3864.0
6.5875,3886.0
6.59,3871.0
6.5925,3867.0
6.595,3854.0
6.5975,3853.0
6.6,3868.0
6.6025,3870.0
6.605,3855.0
6.6075,3868.0
6.61,3878.0
6.6125,3871.0
6.615,3879.0
6.6175,3884.0
6.62,3908.0
6.6225,3912.0
6.625,3902.0
6.6275,3942.0
6.63,3929.0
6.6325,3935.0
6.635,3957.0
6.6375,3954.0
6.64,3935.0
6.6425,3947.0
6.645,3957.0
6.6475,3960.0
6.65,3969.0
6.6525,3958.0
6.655,3962.0
6.6575,3971.0
6.66,3964.0
6.6625,3981.0
6.665,3954.0
6.6675,3956.0
6.67,3964.0
6.6725,3946.0
6.675,3963.0
6.6775,3954.0
6.68,3963.0
6.6825,3965.0
6.685,3987.0
6.6875,3988.0
6.69,3973.0
6.6925,3975.0
6.695,3984.0
6.6975,3994.0
6.7,3987.0
6.7025,3971.0
6.705,3972.0
6.7075,3969.0
6.71,3967.0
6.7125,3979.0
6.715,3969.0
6.7175,3958.0
6.72,3980.0
6.7225,3948.0
6.725,3967.0
6.7275,3969.0
6.73,3995.0
6.7325,4015.0
6.735,4030.0
6.7375,4015.0
6.74,4018.0
6.7425,4066.0
6.745,4076.0
6.7475,4119.0
6.75,4145.0
6.7525,4142.0
6.755,4136.0
6.7575,4098.0
6.76,4058.0
6.7625,4091.0
6.765,4119.0
6.7675,4158.0
6.77,4142.0
6.7725,4159.0
6.775,4134.0
6.7775,4107.0
6.78,4093.0
6.7825,4117.0
6.785,4106.0
6.7875,4054.0
6.79,4029.0
6.7925,4002.0
6.795,3978.0
6.7975,3916.0
6.8,3952.0
6.8025,3921.0
6.805,3908.0
6.8075,3914.0
6.81,3909.0
6.8125,3902.0
6.815,3902.0
6.8175,3899.0
6.82,3909.0
6.8225,3915.0
6.825,3875.0
6.8275,3872.0
6.83,3864.0
6.8325,3853.0
6.835,3886.0
6.8375,3864.0
6.84,3872.0
6.8425,3875.0
6.845,3859.0
6.8475,3872.0
6.85,3874.0
6.8525,3903.0
6.855,3917.0
6.8575,3919.0
6.86,3867.0
6.8625,3845.0
6.865,3744.0
6.8675,3594.0
6.87,3458.0
6.8725,3375.0
6.875,3435.0
6.8775,3731.0
6.88,4117.0
6.8825,4683.0
6.885,5271.0
6.8875,5931.0
6.89,6071.0
6.8925,5345.0
6.895,4539.0
6.8975,4100.0
6.9,3861.0
6.9025,3495.0
6.905,2986.0
6.9075,2639.0
6.91,1987.0
6.9125,1585.0
6.915,1518.0
6.9175,1797.0
6.92,2000.0
6.9225,2110.0
6.925,2222.0
6.9275,2419.0
6.93,2705.0
6.9325,2932.0
6.935,3231.0
6.9375,3628.0
6.94,3951.0
6.9425,4211.0
6.945,4372.0
6.9475,4517.0
6.95,4580.0
6.9525,4574.0
6.955,4590.0
6.9575,4585.0
6.96,4583.0
6.9625,4590.0
6.965,4592.0
6.9675,4595.0
6.97,4604.0
6.9725,4627.0
6.975,4600.0
6.9775,4635.0
6.98,4596.0
6.9825,4600.0
6.985,4604.0
6.9875,4591.0
6.99,4565.0
6.9925,4523.0
6.995,4557.0
6.9975,4552.0
7.0,4531.0
7.0025,4530.0
7.005,4551.0
7.0075,4545.0
7.01,4560.0
7.0125,4551.0
7.015,4532.0
7.0175,4544.0
7.02,4521.0
7.0225,4519.0
7.025,4534.0
7.0275,4545.0
7.03,4547.0
7.0325,4542.0
7.035,4552.0
7.0375,4565.0
7.04,4540.0
7.0425,4525.0
7.045,4560.0
7.0475,4548.0
7.05,4568.0
7.0525,4597.0
7.055,4616.0
7.0575,4590.0
7.06,4595.0
7.0625,4598.0
7.065,4609.0
7.0675,4605.0
7.07,4599.0
7.0725,4619.0
7.075,4610.0
7.0775,4605.0
7.08,4627.0
7.0825,4602.0
7.085,4587.0
7.0875,4580.0
7.09,4547.0
7.0925,4536.0
7.095,4487.0
7.0975,4516.0
7.1,4496.0
7.1025,4444.0
7.105,4416.0
7.1075,4429.0
7.11,4426.0
7.1125,4381.0
7.115,4339.0
7.1175,4282.0
7.12,4256.0
7.1225,4204.0
7.125,4131.0
7.1275,4074.0
7.13,4051.0
7.1325,3982.0
7.135,3939.0
7.1375,3911.0
7.14,3871.0
7.1425,3826.0
7.145,3753.0
7.1475,3690.0
7.15,3693.0
7.1525,3635.0
7.155,3607.0
7.1575,3588.0
7.16,3578.0
7.1625,3540.0
7.165,3508.0
7.1675,3472.0
7.17,3446.0
7.1725,3447.0
7.175,3444.0
7.1775,3400.0
7.18,3400.0
7.1825,3388.0
7.185,3391.0
7.1875,3447.0
7.19,3418.0
7.1925,3409.0
7.195,3411.0
7.1975,3379.0
7.2,3390.0
7.2025,3395.0
7.205,3417.0
7.2075,3425.0
7.21,3429.0
7.2125,3425.0
7.215,3435.0
7.2175,3457.0
7.22,3454.0
7.2225,3472.0
7.225,3448.0
7.2275,3471.0
7.23,3490.0
7.2325,3503.0
7.235,3505.0
7.2375,3504.0
7.24,3539.0
7.2425,3545.0
7.245,3546.0
7.2475,3534.0
7.25,3504.0
7.2525,3540.0
7.255,3535.0
7.2575,3550.0
7.26,3564.0
7.2625,3553.0
7.265,3588.0
7.2675,3604.0
7.27,3596.0
7.2725,3610.0
7.275,3615.0
7.2775,3628.0
7.28,3644.0
7.2825,3644.0
7.285,3656.0
7.2875,3689.0
7.29,3709.0
7.2925,3721.0
7.295,3713.0
7.2975,3730.0
7.3,3751.0
7.3025,3731.0
7.305,3727.0
7.3075,3721.0
7.31,3752.0
7.3125,3760.0
7.315,3789.0
7.3175,3808.0
7.32,3777.0
7.3225,3799.0
7.325,3815.0
7.3275,3802.0
7.33,3818.0
7.3325,3817.0
7.335,3800.0
7.3375,3784.0
7.34,3790.0
7.3425,3788.0
7.345,3804.0
7.3475,3795.0
7.35,3826.0
7.3525,3813.0
7.355,3816.0
7.3575,3791.0
7.36,3782.0
7.3625,3815.0
7.365,3799.0
7.3675,3801.0
7.37,3778.0
7.3725,3793.0
7.375,3827.0
7.3775,3812.0
7.38,3836.0
7.3825,3835.0
7.385,3807.0
7.3875,3808.0
7.39,3793.0
7.3925,3745.0
7.395,3781.0
7.3975,3767.0
7.4,3797.0
7.4025,3781.0
7.405,3773.0
7.4075,3771.0
7.41,3769.0
7.4125,3780.0
7.415,3789.0
7.4175,3758.0
7.42,3779.0
7.4225,3821.0
7.425,3826.0
7.4275,3816.0
7.43,3811.0
7.4325,3812.0
7.435,3825.0
7.4375,3827.0
7.44,3839.0
7.4425,3878.0
7.445,3854.0
7.4475,3873.0
7.45,3872.0
7.4525,3862.0
7.455,3863.0
7.4575,3891.0
7.46,3880.0
7.4625,3901.0
7.465,3900.0
7.4675,3894.0
7.47,3873.0
7.4725,3880.0
7.475,3869.0
7.4775,3905.0
7.48,3910.0
7.4825,3894.0
7.485,3891.0
7.4875,3876.0
7.49,3886.0
7.4925,3887.0
7.495,3881.0
7.4975,3886.0
7.5,3884.0
7.5025,3878.0
7.505,3897.0
7.5075,3910.0
7.51,3908.0
7.5125,3917.0
7.515,3931.0
7.5175,3932.0
7.52,3925.0
7.5225,3945.0
7.525,3922.0
7.5275,3920.0
7.53,3906.0
7.5325,3939.0
7.535,3946.0
7.5375,3913.0
7.54,3946.0
7.5425,3928.0
7.545,3928.0
7.5475,3944.0
7.55,3951.0
7.5525,3959.0
7.555,3944.0
7.5575,3916.0
7.56,3912.0
7.5625,3956.0
7.565,3959.0
7.5675,3951.0
7.57,3962.0
7.5725,3963.0
7.575,3962.0
7.5775,3937.0
7.58,3906.0
7.5825,3927.0
7.585,3918.0
7.5875,3942.0
7.59,3960.0
7.5925,3968.0
7.595,3995.0
7.5975,3997.0
7.6,3978.0
7.6025,3983.0
7.605,3985.0
7.6075,3982.0
7.61,3974.0
7.6125,4045.0
7.615,4078.0
7.6175,4104.0
7.62,4101.0
7.6225,4128.0
7.625,4115.0
7.6275,4107.0
7.63,4116.0
7.6325,4171.0
7.635,4156.0
7.6375,4152.0
7.64,4161.0
7.6425,4139.0
7.645,4115.0
7.6475,4095.0
7.65,4087.0
7.6525,4025.0
7.655,4004.0
7.6575,3972.0
7.66,3977.0
7.6625,3914.0
7.665,3878.0
7.6675,3879.0
7.67,3883.0
7.6725,3881.0
7.675,3905.0
7.6775,3879.0
7.68,3869.0
7.6825,3877.0
7.685,3891.0
7.6875,3882.0
7.69,3880.0
7.6925,3887.0
7.695,3846.0
7.6975,3853.0
7.7,3844.0
7.7025,3835.0
7.705,3857.0
7.7075,3869.0
7.71,3864.0
7.7125,3867.0
7.715,3871.0
7.7175,3883.0
7.72,3854.0
7.7225,3893.0
7.725,3898.0
7.7275,3875.0
7.73,3785.0
7.7325,3700.0
7.735,3526.0
7.7375,3419.0
7.74,3395.0
7.7425,3477.0
7.745,3833.0
7.7475,4275.0
7.75,4777.0
7.7525,5466.0
7.755,6113.0
7.7575,6064.0
7.76,5296.0
7.7625,4493.0
7.765,4145.0
7.7675,3851.0
7.77,3486.0
7.7725,2953.0
7.775,2539.0
7.7775,1910.0
7.78,1537.0
7.7825,1536.0
7.785,1828.0
7.7875,1995.0
7.79,2085.0
7.7925,2175.0
7.795,2437.0
7.7975,2698.0
7.8,2925.0
7.8025,3229.0
7.805,3625.0
7.8075,3969.0
7.81,4183.0
7.8125,4272.0
7.815,4457.0
7.8175,4509.0
7.82,4527.0
7.8225,4523.0
7.825,4511.0
7.8275,4526.0
7.83,4522.0
7.8325,4525.0
7.835,4503.0
7.8375,4504.0
7.84,4504.0
7.8425,4508.0
7.845,4500.0
7.8475,4493.0
7.85,4499.0
7.8525,4539.0
7.855,4518.0
7.8575,4505.0
7.86,4497.0
7.8625,4498.0
7.865,4517.0
7.8675,4499.0
7.87,4511.0
7.8725,4502.0
7.875,4484.0
7.8775,4451.0
7.88,4448.0
7.8825,4444.0
7.885,4472.0
7.8875,4475.0
7.89,4463.0
7.8925,4477.0
7.895,4497.0
7.8975,4500.0
7.9,4494.0
7.9025,4485.0
7.905,4500.0
7.9075,4483.0
7.91,4512.0
7.9125,4538.0
7.915,4553.0
7.9175,4551.0
7.92,4557.0
7.9225,4567.0
7.925,4572.0
7.9275,4598.0
7.93,4606.0
7.9325,4604.0
7.935,4639.0
7.9375,4639.0
7.94,4654.0
7.9425,4654.0
7.945,4630.0
7.9475,4631.0
7.95,4612.0
7.9525,4599.0
7.955,4593.0
7.9575,4589.0
7.96,4598.0
7.9625,4558.0
7.965,4551.0
7.9675,4529.0
7.97,4528.0
7.9725,4492.0
7.975,4446.0
7.9775,4417.0
7.98,4392.0
7.9825,4356.0
7.985,4304.0
7.9875,4251.0
7.99,4203.0
7.9925,4170.0
7.995,4129.0
7.9975,4070.0
8.0,4002.0
8.0025,3956.0
8.005,3920.0
8.0075,3851.0
8.01,3802.0
8.0125,3768.0
8.015,3764.0
8.0175,3716.0
8.02,3692.0
8.0225,3688.0
8.025,3688.0
8.0275,3643.0
8.03,3587.0
8.0325,3609.0
8.035,3560.0
8.0375,3539.0
8.04,3526.0
8.0425,3521.0
8.045,3530.0
8.0475,3508.0
8.05,3494.0
8.0525,3495.0
8.055,3506.0
8.0575,3484.0
8.06,3482.0
8.0625,3481.0
8.065,3473.0
8.0675,3443.0
8.07,3451.0
8.0725,3423.0
8.075,3450.0
8.0775,3443.0
8.08,3460.0
8.0825,3471.0
8.085,3484.0
8.0875,3512.0
8.09,3500.0
8.0925,3493.0
8.095,3486.0
8.0975,3517.0
8.1,3499.0
8.1025,3518.0
8.105,3536.0
8.1075,3576.0
8.11,3579.0
8.1125,3584.0
8.115,3584.0
8.1175,3583.0
8.12,3612.0
8.1225,3618.0
8.125,3633.0
8.1275,3654.0
8.13,3678.0
8.1325,3697.0
8.135,3693.0
8.1375,3703.0
8.14,3710.0
8.1425,3724.0
8.145,3758.0
8.1475,3766.0
8.15,3758.0
8.1525,3761.0
8.155,3758.0
8.1575,3754.0
8.16,3788.0
8.1625,3802.0
8.165,3793.0
8.1675,3823.0
8.17,3826.0
8.1725,3811.0
8.175,3808.0
8.1775,3824.0
8.18,3833.0
8.1825,3857.0
8.185,3880.0
8.1875,3875.0
8.19,3863.0
8.1925,3862.0
8.195,3860.0
8.1975,3873.0
8.2,3916.0
8.2025,3889.0
8.205,3904.0
8.2075,3915.0
8.21,3898.0
8.2125,3863.0
8.215,3883.0
8.2175,3874.0
8.22,3860.0
8.2225,3879.0
8.225,3905.0
8.2275,3941.0
8.23,3929.0
8.2325,3915.0
8.235,3913.0
8.2375,3908.0
8.24,3925.0
8.2425,3923.0
8.245,3936.0
8.2475,3932.0
8.25,3930.0
8.2525,3905.0
8.255,3924.0
8.2575,3906.0
8.26,3895.0
8.2625,3913.0
8.265,3939.0
8.2675,3935.0
8.27,3916.0
8.2725,3895.0
8.275,3917.0
8.2775,3948.0
8.28,3944.0
8.2825,3931.0
8.285,3924.0
8.2875,3932.0
8.29,3962.0
8.2925,3964.0
8.295,3954.0
8.2975,3941.0
8.3,3944.0
8.3025,3947.0
8.305,3961.0
8.3075,3979.0
8.31,3948.0
8.3125,3976.0
8.315,3963.0
8.3175,3973.0
8.32,3996.0
8.3225,4001.0
8.325,4017.0
8.3275,4025.0
8.33,4007.0
8.3325,4007.0
8.335,4014.0
8.3375,3988.0
8.34,3986.0
8.3425,3990.0
8.345,4013.0
8.3475,4003.0
8.35,4024.0
8.3525,4039.0
8.355,4021.0
8.3575,4024.0
8.36,4007.0
8.3625,4012.0
8.365,3999.0
8.3675,4002.0
8.37,4004.0
8.3725,4008.0
8.375,3970.0
8.3775,3988.0
8.38,3991.0
8.3825,3993.0
8.385,4005.0
8.3875,4026.0
8.39,4040.0
8.3925,4012.0
8.395,4021.0
8.3975,3989.0
8.4,4002.0
8.4025,4005.0
8.405,3977.0
8.4075,3984.0
8.41,3966.0
8.4125,3986.0
8.415,3984.0
8.4175,4003.0
8.42,3998.0
8.4225,3994.0
8.425,4011.0
8.4275,4039.0
8.43,4016.0
8.4325,3988.0
8.435,3976.0
8.4375,3983.0
8.44,4017.0
8.4425,4027.0
8.445,4046.0
8.4475,4031.0
8.45,4039.0
8.4525,4044.0
8.455,4071.0
8.4575,4034.0
8.46,4053.0
8.4625,4062.0
8.465,4063.0
8.4675,4078.0
8.47,4074.0
8.4725,4066.0
8.475,4084.0
8.4775,4083.0
8.48,4070.0
8.4825,4094.0
8.485,4088.0
8.4875,4110.0
8.49,4103.0
8.4925,4097.0
8.495,4087.0
8.4975,4083.0
8.5,4073.0
8.5025,4078.0
8.505,4094.0
8.5075,4114.0
8.51,4104.0
8.5125,4069.0
8.515,4063.0
8.5175,4086.0
8.52,4096.0
8.5225,4101.0
8.525,4118.0
8.5275,4128.0
8.53,4107.0
8.5325,4083.0
8.535,4091.0
8.5375,4087.0
8.54,4077.0
8.5425,4070.0
8.545,4076.0
8.5475,4093.0
8.55,4111.0
8.5525,4108.0
8.555,4139.0
8.5575,4119.0
8.56,4110.0
8.5625,4099.0
8.565,4115.0
8.5675,4102.0
8.57,4113.0
8.5725,4097.0
8.575,4090.0
8.5775,4108.0
8.58,4087.0
8.5825,4138.0
8.585,4187.0
8.5875,4215.0
8.59,4249.0
8.5925,4233.0
8.595,4190.0
8.5975,4164.0
8.6,4186.0
8.6025,4223.0
8.605,4253.0
8.6075,4248.0
8.61,4215.0
8.6125,4234.0
8.615,4204.0
8.6175,4172.0
8.62,4178.0
8.6225,4167.0
8.625,4124.0
8.6275,4069.0
8.63,4068.0
8.6325,4020.0
8.635,3946.0
8.6375,3953.0
8.64,3933.0
8.6425,3934.0
8.645,3944.0
8.6475,3938.0
8.65,3911.0
8.6525,3921.0
8.655,3905.0
8.6575,3899.0
8.66,3896.0
8.6625,3907.0
8.665,3899.0
8.6675,3875.0
8.67,3850.0
8.6725,3862.0
8.675,3878.0
8.6775,3892.0
8.68,3899.0
8.6825,3893.0
8.685,3875.0
8.6875,3853.0
8.69,3887.0
8.6925,3903.0
8.695,3869.0
8.6975,3875.0
8.7,3781.0
8.7025,3731.0
8.705,3599.0
8.7075,3442.0
8.71,3306.0
8.7125,3256.0
8.715,3435.0
8.7175,3775.0
8.72,4349.0
8.7225,4868.0
8.725,5620.0
8.7275,5907.0
8.73,5395.0
8.7325,4599.0
8.735,4017.0
8.7375,3870.0
8.74,3557.0
8.7425,3148.0
8.745,2751.0
8.7475,2114.0
8.75,1653.0
8.7525,1404.0
8.755,1579.0
8.7575,1761.0
8.76,1910.0
8.7625,1984.0
8.765,2201.0
8.7675,2458.0
8.77,2656.0
8.7725,2929.0
8.775,3282.0
8.7775,3663.0
8.78,3944.0
8.7825,4091.0
8.785,4252.0
8.7875,4348.0
8.79,4355.0
8.7925,4376.0
8.795,4377.0
8.7975,4388.0
8.8,4389.0
8.8025,4401.0
8.805,4384.0
8.8075,4391.0
8.81,4399.0
8.8125,4378.0
8.815,4378.0
8.8175,4385.0
8.82,4392.0
8.8225,4399.0
8.825,4401.0
8.8275,4380.0
8.83,4407.0
8.8325,4385.0
8.835,4379.0
8.8375,4361.0
8.84,4346.0
8.8425,4347.0
8.845,4370.0
8.8475,4354.0
8.85,4366.0
8.8525,4352.0
8.855,4351.0
8.8575,4382.0
8.86,4371.0
8.8625,4355.0
8.865,4357.0
8.8675,4377.0
8.87,4399.0
8.8725,4385.0
8.875,4368.0
8.8775,4376.0
8.88,4389.0
8.8825,4395.0
8.885,4427.0
8.8875,4417.0
8.89,4447.0
8.8925,4470.0
8.895,4468.0
8.8975,4487.0
8.9,4501.0
8.9025,4524.0
8.905,4512.0
8.9075,4512.0
8.91,4525.0
8.9125,4527.0
8.915,4543.0
8.9175,4549.0
8.92,4568.0
8.9225,4565.0
8.925,4595.0
8.9275,4578.0
8.93,4559.0
8.9325,4534.0
8.935,4530.0
8.9375,4509.0
8.94,4489.0
8.9425,4477.0
8.945,4444.0
8.9475,4427.0
8.95,4384.0
8.9525,4379.0
8.955,4342.0
8.9575,4302.0
8.96,4272.0
8.9625,4208.0
8.965,4166.0
8.9675,4123.0
8.97,4085.0
8.9725,4018.0
8.975,4005.0
8.9775,3951.0
8.98,3888.0
8.9825,3853.0
8.985,3781.0
8.9875,3786.0
8.99,3716.0
8.9925,3692.0
8.995,3643.0
8.9975,3638.0
9.0,3604.0
9.0025,3581.0
9.005,3558.0
9.0075,3521.0
9.01,3532.0
9.0125,3508.0
9.015,3475.0
9.0175,3483.0
9.02,3471.0
9.0225,3440.0
9.025,3447.0
9.0275,3442.0
9.03,3446.0
9.0325,3435.0
9.035,3446.0
9.0375,3446.0
9.04,3467.0
9.0425,3469.0
9.045,3484.0
9.0475,3492.0
9.05,3487.0
9.0525,3496.0
9.055,3527.0
9.0575,3539.0
9.06,3559.0
9.0625,3553.0
9.065,3551.0
9.0675,3566.0
9.07,3573.0
9.0725,3584.0
9.075,3568.0
9.0775,3603.0
9.08,3594.0
9.0825,3621.0
9.085,3644.0
9.0875,3630.0
9.09,3652.0
9.0925,3678.0
9.095,3672.0
9.0975,3677.0
9.1,3672.0
9.1025,3670.0
9.105,3685.0
9.1075,3679.0
9.11,3716.0
9.1125,3705.0
9.115,3703.0
9.1175,3696.0
9.12,3744.0
9.1225,3722.0
9.125,3755.0
9.1275,3759.0
9.13,3789.0
9.1325,3747.0
9.135,3765.0
9.1375,3743.0
9.14,3796.0
9.1425,3805.0
9.145,3812.0
9.1475,3839.0
9.15,3820.0
9.1525,3834.0
9.155,3826.0
9.1575,3852.0
9.16,3891.0
9.1625,3884.0
9.165,3889.0
9.1675,3903.0
9.17,3882.0
9.1725,3875.0
9.175,3866.0
9.1775,3858.0
9.18,3892.0
9.1825,3866.0
9.185,3889.0
9.1875,3869.0
9.19,3905.0
9.1925,3878.0
9.195,3897.0
9.1975,3927.0
9.2,3919.0
9.2025,3905.0
9.205,3922.0
9.2075,3918.0
9.21,3934.0
9.2125,3916.0
9.215,3937.0
9.2175,3972.0
9.22,3961.0
9.2225,3960.0
9.225,3923.0
9.2275,3947.0
9.23,3930.0
9.2325,3934.0
9.235,3912.0
9.2375,3952.0
9.24,3957.0
9.2425,3962.0
9.245,3965.0
9.2475,3970.0
9.25,3988.0
9.2525,3985.0
9.255,3975.0
9.2575,3965.0
9.26,3947.0
9.2625,3972.0
9.265,3989.0
9.2675,3993.0
9.27,3980.0
9.2725,3953.0
9.275,3965.0
9.2775,3987.0
9.28,3961.0
9.2825,3973.0
9.285,3960.0
9.2875,3966.0
9.29,3981.0
9.2925,3971.0
9.295,3975.0
9.2975,3967.0
9.3,3984.0
9.3025,3984.0
9.305,3964.0
9.3075,3965.0
9.31,3950.0
9.3125,3939.0
9.315,3966.0
9.3175,3955.0
9.32,3946.0
9.3225,3960.0
9.325,3945.0
9.3275,3966.0
9.33,3968.0
9.3325,3983.0
9.335,3932.0
9.3375,3961.0
9.34,3956.0
9.3425,3939.0
9.345,3929.0
9.3475,3940.0
9.35,3962.0
9.3525,3942.0
9.355,3970.0
9.3575,3958.0
9.36,3928.0
9.3625,3943.0
9.365,3961.0
9.3675,3974.0
9.37,3958.0
9.3725,3950.0
9.375,3930.0
9.3775,3953.0
9.38,3931.0
9.3825,3929.0
9.385,3952.0
9.3875,3948.0
9.39,3955.0
9.3925,3934.0
9.395,3947.0
9.3975,3978.0
9.4,3960.0
9.4025,3994.0
9.405,3980.0
9.4075,3969.0
9.41,3971.0
9.4125,3969.0
9.415,3978.0
9.4175,3961.0
9.42,3963.0
9.4225,3985.0
9.425,3979.0
9.4275,3978.0
9.43,3997.0
9.4325,4017.0
9.435,4022.0
9.4375,4018.0
9.44,4019.0
9.4425,4001.0
9.445,4043.0
9.4475,4046.0
9.45,4035.0
9.4525,4052.0
9.455,4036.0
9.4575,4058.0
9.46,4060.0
9.4625,4064.0
9.465,4066.0
9.4675,4057.0
9.47,4066.0
9.4725,4067.0
9.475,4099.0
9.4775,4096.0
9.48,4091.0
9.4825,4105.0
9.485,4083.0
9.4875,4090.0
9.49,4078.0
9.4925,4078.0
9.495,4085.0
9.4975,4082.0
9.5,4097.0
9.5025,4060.0
9.505,4065.0
9.5075,4064.0
9.51,4049.0
9.5125,4084.0
9.515,4076.0
9.5175,4052.0
9.52,4073.0
9.5225,4050.0
9.525,4038.0
9.5275,4058.0
9.53,4071.0
9.5325,4066.0
9.535,4053.0
9.5375,4046.0
9.54,4051.0
9.5425,4042.0
9.545,4043.0
9.5475,4044.0
9.55,4027.0
9.5525,4064.0
9.555,4051.0
9.5575,4055.0
9.56,4072.0
9.5625,4076.0
9.565,4062.0
9.5675,4069.0
9.57,4075.0
9.5725,4058.0
9.575,4064.0
9.5775,4076.0
9.58,4058.0
9.5825,4063.0
9.585,4052.0
9.5875,4098.0
9.59,4089.0
9.5925,4086.0
9.595,4054.0
9.5975,4063.0
9.6,4059.0
9.6025,4061.0
9.605,4052.0
9.6075,4040.0
9.61,4066.0
9.6125,4054.0
9.615,4083.0
9.6175,4072.0
9.62,4072.0
9.6225,4085.0
9.625,4142.0
9.6275,4186.0
9.63,4199.0
9.6325,4196.0
9.635,4184.0
9.6375,4172.0
9.64,4198.0
9.6425,4218.0
9.645,4234.0
9.6475,4229.0
9.65,4265.0
9.6525,4271.0
9.655,4242.0
9.6575,4240.0
9.66,4202.0
9.6625,4208.0
9.665,4175.0
9.6675,4125.0
9.67,4128.0
9.6725,4108.0
9.675,4051.0
9.6775,4055.0
9.68,4037.0
9.6825,4028.0
9.685,4049.0
9.6875,4034.0
9.69,4025.0
9.6925,4007.0
9.695,4029.0
9.6975,4023.0
9.7,4017.0
9.7025,4022.0
9.705,4022.0
9.7075,3999.0
9.71,3979.0
9.7125,4023.0
9.715,4009.0
9.7175,4005.0
9.72,3992.0
9.7225,3988.0
9.725,3976.0
9.7275,3961.0
9.73,3985.0
9.7325,3992.0
9.735,4014.0
9.7375,3982.0
9.74,3949.0
9.7425,3873.0
9.745,3732.0
9.7475,3586.0
9.75,3512.0
9.7525,3555.0
9.755,3882.0
9.7575,4279.0
9.76,4844.0
9.7625,5499.0
9.765,6105.0
9.7675,6102.0
9.77,5357.0
9.7725,4532.0
9.775,4180.0
9.7775,3908.0
9.78,3516.0
9.7825,2996.0
9.785,2630.0
9.7875,1962.0
9.79,1583.0
9.7925,1519.0
9.795,1778.0
9.7975,2023.0
9.8,2184.0
9.8025,2285.0
9.805,2516.0
9.8075,2789.0
9.81,3022.0
9.8125,3264.0
9.815,3590.0
9.8175,3978.0
9.82,4229.0
9.8225,4404.0
9.825,4525.0
9.8275,4606.0
9.83,4628.0
9.8325,4632.0
9.835,4640.0
9.8375,4633.0
9.84,4636.0
9.8425,4606.0
9.845,4631.0
9.8475,4621.0
9.85,4610.0
9.8525,4611.0
9.855,4615.0
9.8575,4633.0
9.86,4599.0
9.8625,4629.0
9.865,4606.0
9.8675,4591.0
9.87,4571.0
9.8725,4590.0
9.875,4573.0
9.8775,4551.0
9.88,4527.0
9.8825,4559.0
9.885,4538.0
9.8875,4516.0
9.89,4531.0
9.8925,4511.0
9.895,4503.0
9.8975,4560.0
9.9,4510.0
9.9025,4528.0
9.905,4519.0
9.9075,4524.0
9.91,4488.0
9.9125,4492.0
9.915,4472.0
9.9175,4492.0
9.92,4508.0
9.9225,4516.0
9.925,4512.0
9.9275,4544.0
9.93,4537.0
9.9325,4518.0
9.935,4551.0
9.9375,4591.0
9.94,4570.0
9.9425,4591.0
9.945,4597.0
9.9475,4586.0
9.95,4601.0
9.9525,4585.0
9.955,4606.0
9.9575,4590.0
9.96,4542.0
9.9625,4552.0
9.965,4579.0
9.9675,4527.0
9.97,4513.0
9.9725,4485.0
9.975,4497.0
9.9775,4467.0
9.98,4484.0
9.9825,4445.0
9.985,4416.0
9.9875,4365.0
9.99,4317.0
9.9925,4340.0
9.995,4319.0
9.9975,4298.0
10.0,4265.0
10.0025,4196.0
10.005,4154.0
10.0075,4107.0
10.01,4050.0
10.0125,4050.0
10.015,3976.0
10.0175,3915.0
10.02,3900.0
10.0225,3849.0
10.025,3792.0
10.0275,3758.0
10.03,3726.0
10.0325,3682.0
10.035,3665.0
10.0375,3633.0
10.04,3570.0
10.0425,3579.0
10.045,3555.0
10.0475,3567.0
10.05,3517.0
10.0525,3493.0
10.055,3482.0
10.0575,3485.0
10.06,3484.0
10.0625,3474.0
10.065,3453.0
10.0675,3451.0
10.07,3466.0
10.0725,3454.0
10.075,3445.0
10.0775,3469.0
10.08,3450.0
10.0825,3481.0
10.085,3502.0
10.0875,3501.0
10.09,3497.0
10.0925,3495.0
10.095,3500.0
10.0975,3509.0
10.1,3570.0
10.1025,3554.0
10.105,3567.0
10.1075,3539.0
10.11,3546.0
10.1125,3605.0
10.115,3617.0
10.1175,3576.0
10.12,3591.0
10.1225,3628.0
10.125,3638.0
10.1275,3646.0
10.13,3611.0
10.1325,3654.0
10.135,3647.0
10.1375,3682.0
10.14,3663.0
10.1425,3681.0
10.145,3656.0
10.1475,3693.0
10.15,3697.0
10.1525,3685.0
10.155,3720.0
10.1575,3712.0
10.16,3712.0
10.1625,3721.0
10.165,3726.0
10.1675,3734.0
10.17,3769.0
10.1725,3779.0
10.175,3792.0
10.1775,3771.0
10.18,3754.0
10.1825,3770.0
10.185,3833.0
10.1875,3819.0
10.19,3836.0
10.1925,3841.0
10.195,3833.0
10.1975,3837.0
10.2,3872.0
10.2025,3876.0
10.205,3892.0
10.2075,3905.0
10.21,3893.0
10.2125,3884.0
10.215,3888.0
10.2175,3865.0
10.22,3869.0
10.2225,3866.0
10.225,3874.0
10.2275,3855.0
10.23,3870.0
10.2325,3854.0
10.235,3871.0
10.2375,3837.0
10.24,3853.0
10.2425,3848.0
10.245,3846.0
10.2475,3851.0
10.25,3852.0
10.2525,3866.0
10.255,3871.0
10.2575,3868.0
10.26,3848.0
10.2625,3864.0
10.265,3870.0
10.2675,3864.0
10.27,3876.0
10.2725,3856.0
10.275,3852.0
10.2775,3816.0
10.28,3819.0
10.2825,3824.0
10.285,3800.0
10.2875,3785.0
10.29,3788.0
10.2925,3797.0
10.295,3775.0
10.2975,3791.0
10.3,3756.0
10.3025,3762.0
10.305,3744.0
10.3075,3733.0
10.31,3729.0
10.3125,3739.0
10.315,3748.0
10.3175,3752.0
10.32,3754.0
10.3225,3775.0
10.325,3782.0
10.3275,3774.0
10.33,3789.0
10.3325,3785.0
10.335,3771.0
10.3375,3779.0
10.34,3793.0
10.3425,3785.0
10.345,3789.0
10.3475,3803.0
10.35,3821.0
10.3525,3816.0
10.355,3830.0
10.3575,3854.0
10.36,3861.0
10.3625,3863.0
10.365,3870.0
10.3675,3864.0
10.37,3886.0
10.3725,3897.0
10.375,3909.0
10.3775,3905.0
10.38,3938.0
10.3825,3929.0
10.385,3913.0
10.3875,3901.0
10.39,3928.0
10.3925,3935.0
10.395,3960.0
10.3975,3965.0
10.4,3968.0
10.4025,3984.0
10.405,3998.0
10.4075,3991.0
10.41,4013.0
10.4125,3991.0
10.415,3975.0
10.4175,3975.0
10.42,3982.0
10.4225,3988.0
10.425,3990.0
10.4275,3998.0
10.43,3994.0
10.4325,4009.0
10.435,4006.0
10.4375,4011.0
10.44,4000.0
10.4425,3987.0
10.445,4022.0
10.4475,4040.0
10.45,4016.0
10.4525,4047.0
10.455,4044.0
10.4575,4037.0
10.46,4035.0
10.4625,4057.0
10.465,4051.0
10.4675,4064.0
10.47,4066.0
10.4725,4037.0
10.475,4052.0
10.4775,4082.0
10.48,4094.0
10.4825,4110.0
10.485,4129.0
10.4875,4108.0
10.49,4077.0
10.4925,4085.0
10.495,4069.0
10.4975,4060.0
10.5,4062.0
10.5025,4082.0
10.505,4056.0
10.5075,4076.0
10.51,4052.0
10.5125,4043.0
10.515,4068.0
10.5175,4072.0
10.52,4070.0
10.5225,4074.0
10.525,4103.0
10.5275,4069.0
10.53,4075.0
10.5325,4087.0
10.535,4079.0
10.5375,4106.0
10.54,4100.0
10.5425,4090.0
10.545,4116.0
10.5475,4089.0
10.55,4123.0
10.5525,4121.0
10.555,4127.0
10.5575,4149.0
10.56,4151.0
10.5625,4116.0
10.565,4123.0
10.5675,4117.0
10.57,4116.0
10.5725,4120.0
10.575,4115.0
10.5775,4126.0
10.58,4145.0
10.5825,4124.0
10.585,4113.0
10.5875,4132.0
10.59,4155.0
10.5925,4192.0
10.595,4198.0
10.5975,4181.0
10.6,4224.0
10.6025,4242.0
10.605,4263.0
10.6075,4274.0
10.61,4227.0
10.6125,4222.0
10.615,4204.0
10.6175,4225.0
10.62,4240.0
10.6225,4240.0
10.625,4241.0
10.6275,4268.0
10.63,4254.0
10.6325,4252.0
10.635,4259.0
10.6375,4264.0
10.64,4230.0
10.6425,4169.0
10.645,4139.0
10.6475,4170.0
10.65,4121.0
10.6525,4088.0
10.655,4089.0
10.6575,4058.0
10.66,4076.0
10.6625,4092.0
10.665,4097.0
10.6675,4098.0
10.67,4085.0
10.6725,4060.0
10.675,4050.0
10.6775,4076.0
10.68,4079.0
10.6825,4060.0
10.685,4057.0
10.6875,4063.0
10.69,4051.0
10.6925,4041.0
10.695,4046.0
10.6975,4060.0
10.7,4062.0
10.7025,4095.0
10.705,4071.0
10.7075,4085.0
10.71,4109.0
10.7125,4088.0
10.715,4052.0
10.7175,4024.0
10.72,3952.0
10.7225,3811.0
10.725,3701.0
10.7275,3658.0
10.73,3753.0
10.7325,4111.0
10.735,4509.0
10.7375,5044.0
10.74,5700.0
10.7425,6329.0
10.745,6238.0
10.7475,5417.0
10.75,4613.0
10.7525,4244.0
10.755,3956.0
10.7575,3577.0
10.76,3078.0
10.7625,2711.0
10.765,2134.0
10.7675,1774.0
10.77,1694.0
10.7725,1959.0
10.775,2185.0
10.7775,2350.0
10.78,2437.0
10.7825,2636.0
10.785,2950.0
10.7875,3208.0
10.79,3448.0
10.7925,3764.0
10.795,4128.0
10.7975,4398.0
10.8,4527.0
10.8025,4658.0
10.805,4760.0
10.8075,4785.0
10.81,4813.0
10.8125,4813.0
10.815,4813.0
10.8175,4829.0
10.82,4840.0
10.8225,4809.0
10.825,4798.0
10.8275,4780.0
10.83,4774.0
10.8325,4773.0
10.835,4781.0
10.8375,4778.0
10.84,4753.0
10.8425,4763.0
10.845,4733.0
10.8475,4729.0
10.85,4691.0
10.8525,4702.0
10.855,4688.0
10.8575,4690.0
10.86,4683.0
10.8625,4677.0
10.865,4670.0
10.8675,4684.0
10.87,4664.0
10.8725,4653.0
10.875,4660.0
10.8775,4625.0
10.88,4612.0
10.8825,4622.0
10.885,4625.0
10.8875,4626.0
10.89,4629.0
10.8925,4622.0
10.895,4606.0
10.8975,4627.0
10.9,4634.0
10.9025,4623.0
10.905,4635.0
10.9075,4600.0
10.91,4627.0
10.9125,4628.0
10.915,4646.0
10.9175,4660.0
10.92,4656.0
10.9225,4636.0
10.925,4655.0
10.9275,4659.0
10.93,4665.0
10.9325,4666.0
10.935,4649.0
10.9375,4651.0
10.94,4657.0
10.9425,4646.0
10.945,4640.0
10.9475,4623.0
10.95,4590.0
10.9525,4570.0
10.955,4565.0
10.9575,4569.0
10.96,4559.0
10.9625,4543.0
10.965,4504.0
10.9675,4438.0
10.97,4411.0
10.9725,4377.0
10.975,4356.0
10.9775,4300.0
10.98,4261.0
10.9825,4223.0
10.985,4154.0
10.9875,4091.0
10.99,4034.0
10.9925,3987.0
10.995,3919.0
10.9975,3895.0
11.0,3863.0
11.0025,3804.0
11.005,3749.0
11.0075,3706.0
11.01,3650.0
11.0125,3625.0
11.015,3593.0
11.0175,3573.0
11.02,3573.0
11.0225,3519.0
11.025,3513.0
11.0275,3468.0
11.03,3446.0
11.0325,3437.0
11.035,3462.0
11.0375,3444.0
11.04,3431.0
11.0425,3405.0
11.045,3401.0
11.0475,3415.0
11.05,3421.0
11.0525,3421.0
11.055,3455.0
11.0575,3447.0
11.06,3446.0
11.0625,3463.0
11.065,3482.0
11.0675,3488.0
11.07,3503.0
11.0725,3493.0
11.075,3441.0
11.0775,3451.0
11.08,3475.0
11.0825,3489.0
11.085,3501.0
11.0875,3475.0
11.09,3511.0
11.0925,3505.0
11.095,3521.0
11.0975,3529.0
11.1,3540.0
11.1025,3556.0
11.105,3565.0
11.1075,3553.0
11.11,3570.0
11.1125,3582.0
11.115,3614.0
11.1175,3627.0
11.12,3649.0
11.1225,3619.0
11.125,3647.0
11.1275,3648.0
11.13,3671.0
11.1325,3698.0
11.135,3681.0
11.1375,3695.0
11.14,3691.0
11.1425,3705.0
11.145,3709.0
11.1475,3719.0
11.15,3725.0
11.1525,3721.0
11.155,3737.0
11.1575,3738.0
11.16,3734.0
11.1625,3771.0
11.165,3762.0
11.1675,3770.0
11.17,3785.0
11.1725,3790.0
11.175,3806.0
11.1775,3798.0
11.18,3812.0
11.1825,3792.0
11.185,3784.0
11.1875,3818.0
11.19,3823.0
11.1925,3823.0
11.195,3834.0
11.1975,3809.0
11.2,3837.0
11.2025,3835.0
11.205,3855.0
11.2075,3843.0
11.21,3873.0
11.2125,3872.0
11.215,3869.0
11.2175,3872.0
11.22,3875.0
11.2225,3866.0
11.225,3898.0
11.2275,3878.0
11.23,3890.0
11.2325,3902.0
11.235,3903.0
11.2375,3888.0
11.24,3899.0
11.2425,3894.0
11.245,3869.0
11.2475,3872.0
11.25,3897.0
11.2525,3877.0
11.255,3880.0
11.2575,3900.0
11.26,3902.0
11.2625,3901.0
11.265,3883.0
11.2675,3864.0
11.27,3880.0
11.2725,3905.0
11.275,3940.0
11.2775,3961.0
11.28,3957.0
11.2825,3924.0
11.285,3916.0
11.2875,3915.0
11.29,3913.0
11.2925,3909.0
11.295,3887.0
11.2975,3918.0
11.3,3928.0
11.3025,3979.0
11.305,3975.0
11.3075,3963.0
11.31,3927.0
11.3125,3916.0
11.315,3917.0
11.3175,3918.0
11.32,3933.0
11.3225,3969.0
11.325,3968.0
11.3275,3944.0
11.33,3958.0
11.3325,3954.0
11.335,3935.0
11.3375,3934.0
11.34,3942.0
11.3425,3924.0
11.345,3946.0
11.3475,3969.0
11.35,3969.0
11.3525,3974.0
11.355,3984.0
11.3575,3991.0
11.36,3985.0
11.3625,4005.0
11.365,3996.0
11.3675,4015.0
11.37,4004.0
11.3725,3986.0
11.375,3994.0
11.3775,3998.0
11.38,3990.0
11.3825,3990.0
11.385,4030.0
11.3875,4013.0
11.39,4046.0
11.3925,4036.0
11.395,4016.0
11.3975,4031.0
11.4,4037.0
11.4025,4043.0
11.405,4031.0
11.4075,4038.0
11.41,4040.0
11.4125,4034.0
11.415,4023.0
11.4175,4037.0
11.42,4013.0
11.4225,4009.0
11.425,4009.0
11.4275,4034.0
11.43,4030.0
11.4325,4017.0
11.435,4017.0
11.4375,4008.0
11.44,4034.0
11.4425,4049.0
11.445,4091.0
11.4475,4065.0
11.45,4057.0
11.4525,4032.0
11.455,4025.0
11.4575,4029.0
11.46,4020.0
11.4625,4043.0
11.465,4025.0
11.4675,4028.0
11.47,4008.0
11.4725,4012.0
11.475,4019.0
11.4775,4051.0
11.48,4043.0
11.4825,4041.0
11.485,4033.0
11.4875,4016.0
11.49,4030.0
11.4925,4039.0
11.495,4040.0
11.4975,4050.0
11.5,4031.0
11.5025,4005.0
11.505,4033.0
11.5075,4047.0
11.51,4062.0
11.5125,4027.0
11.515,4052.0
11.5175,4015.0
11.52,4034.0
11.5225,4025.0
11.525,4004.0
11.5275,4001.0
11.53,3995.0
11.5325,4007.0
11.535,4031.0
11.5375,4012.0
11.54,4032.0
11.5425,3996.0
11.545,3999.0
11.5475,4005.0
11.55,4013.0
11.5525,4008.0
11.555,4018.0
11.5575,4022.0
11.56,4015.0
11.5625,4019.0
11.565,4030.0
11.5675,4050.0
11.57,4035.0
11.5725,4030.0
11.575,4014.0
11.5775,4002.0
11.58,3988.0
11.5825,3993.0
11.585,3996.0
11.5875,3971.0
11.59,3977.0
11.5925,3984.0
11.595,3992.0
11.5975,4002.0
11.6,4009.0
11.6025,4011.0
11.605,4025.0
11.6075,4038.0
11.61,4044.0
11.6125,4030.0
11.615,4116.0
11.6175,4159.0
11.62,4155.0
11.6225,4120.0
11.625,4148.0
11.6275,4119.0
11.63,4165.0
11.6325,4134.0
11.635,4170.0
11.6375,4176.0
11.64,4147.0
11.6425,4150.0
11.645,4151.0
11.6475,4093.0
11.65,4089.0
11.6525,4098.0
11.655,4075.0
11.6575,4039.0
11.66,4016.0
11.6625,4008.0
11.665,3954.0
11.6675,3905.0
11.67,3916.0
11.6725,3867.0
11.675,3856.0
11.6775,3861.0
11.68,3828.0
11.6825,3822.0
11.685,3847.0
11.6875,3839.0
11.69,3821.0
11.6925,3837.0
11.695,3839.0
11.6975,3819.0
11.7,3810.0
11.7025,3804.0
11.705,3806.0
11.7075,3803.0
11.71,3786.0
11.7125,3787.0
11.715,3795.0
11.7175,3802.0
11.72,3799.0
11.7225,3794.0
11.725,3827.0
11.7275,3822.0
11.73,3803.0
11.7325,3760.0
11.735,3642.0
11.7375,3492.0
11.74,3361.0
11.7425,3311.0
11.745,3411.0
11.7475,3753.0
11.75,4258.0
11.7525,4809.0
11.755,5517.0
11.7575,5890.0
11.76,5500.0
11.7625,4632.0
11.765,3905.0
11.7675,3690.0
11.77,3442.0
11.7725,3064.0
11.775,2690.0
11.7775,2264.0
11.78,1709.0
11.7825,1429.0
11.785,1470.0
11.7875,1741.0
11.79,1884.0
11.7925,1985.0
11.795,2159.0
11.7975,2472.0
11.8,2691.0
11.8025,2972.0
11.805,3264.0
11.8075,3654.0
11.81,3945.0
11.8125,4126.0
11.815,4278.0
11.8175,4415.0
11.82,4449.0
11.8225,4438.0
11.825,4424.0
11.8275,4427.0
11.83,4456.0
11.8325,4447.0
11.835,4465.0
11.8375,4473.0
11.84,4471.0
11.8425,4468.0
11.845,4440.0
11.8475,4459.0
11.85,4445.0
11.8525,4432.0
11.855,4440.0
11.8575,4448.0
11.86,4427.0
11.8625,4410.0
11.865,4446.0
11.8675,4425.0
11.87,4433.0
11.8725,4422.0
11.875,4422.0
11.8775,4409.0
11.88,4436.0
11.8825,4410.0
11.885,4422.0
11.8875,4422.0
11.89,4442.0
11.8925,4443.0
11.895,4430.0
11.8975,4437.0
11.9,4450.0
11.9025,4459.0
11.905,4459.0
11.9075,4466.0
11.91,4456.0
11.9125,4483.0
11.915,4515.0
11.9175,4528.0
11.92,4547.0
11.9225,4557.0
11.925,4570.0
11.9275,4584.0
11.93,4618.0
11.9325,4626.0
11.935,4623.0
11.9375,4656.0
11.94,4636.0
11.9425,4665.0
11.945,4698.0
11.9475,4673.0
11.95,4651.0
11.9525,4679.0
11.955,4680.0
11.9575,4660.0
11.96,4680.0
11.9625,4662.0
11.965,4651.0
11.9675,4643.0
11.97,4610.0
11.9725,4596.0
11.975,4575.0
11.9775,4535.0
11.98,4499.0
11.9825,4477.0
11.985,4435.0
11.9875,4388.0
11.99,4350.0
11.9925,4333.0
11.995,4285.0
11.9975,4249.0
12.0,4176.0
12.0025,4108.0
12.005,4062.0
12.0075,4014.0
12.01,3932.0
12.0125,3908.0
12.015,3847.0
12.0175,3797.0
12.02,3733.0
12.0225,3681.0
12.025,3646.0
12.0275,3627.0
12.03,3598.0
12.0325,3576.0
12.035,3521.0
12.0375,3505.0
12.04,3478.0
12.0425,3476.0
12.045,3462.0
12.0475,3432.0
12.05,3429.0
12.0525,3415.0
12.055,3421.0
12.0575,3431.0
12.06,3418.0
12.0625,3420.0
12.065,3417.0
12.0675,3421.0
12.07,3422.0
12.0725,3400.0
12.075,3426.0
12.0775,3419.0
12.08,3426.0
12.0825,3447.0
12.085,3436.0
12.0875,3429.0
12.09,3449.0
12.0925,3430.0
12.095,3434.0
12.0975,3435.0
12.1,3463.0
12.1025,3465.0
12.105,3477.0
12.1075,3499.0
12.11,3506.0
12.1125,3505.0
12.115,3505.0
12.1175,3534.0
12.12,3553.0
12.1225,3560.0
12.125,3576.0
12.1275,3577.0
12.13,3572.0
12.1325,3578.0
12.135,3600.0
12.1375,3624.0
12.14,3641.0
12.1425,3644.0
12.145,3655.0
12.1475,3651.0
12.15,3640.0
12.1525,3640.0
12.155,3662.0
12.1575,3657.0
12.16,3704.0
12.1625,3701.0
12.165,3740.0
12.1675,3754.0
12.17,3778.0
12.1725,3784.0
12.175,3774.0
12.1775,3762.0
12.18,3795.0
12.1825,3816.0
12.185,3826.0
12.1875,3820.0
12.19,3814.0
12.1925,3820.0
12.195,3834.0
12.1975,3814.0
12.2,3820.0
12.2025,3838.0
12.205,3858.0
12.2075,3847.0
12.21,3861.0
12.2125,3844.0
12.215,3857.0
12.2175,3870.0
12.22,3892.0
12.2225,3867.0
12.225,3870.0
12.2275,3889.0
12.23,3898.0
12.2325,3888.0
12.235,3887.0
12.2375,3906.0
12.24,3915.0
12.2425,3877.0
12.245,3902.0
12.2475,3888.0
12.25,3865.0
12.2525,3876.0
12.255,3906.0
12.2575,3922.0
12.26,3888.0
12.2625,3899.0
12.265,3870.0
12.2675,3887.0
12.27,3889.0
12.2725,3880.0
12.275,3860.0
12.2775,3870.0
12.28,3858.0
12.2825,3850.0
12.285,3878.0
12.2875,3879.0
12.29,3877.0
12.2925,3867.0
12.295,3844.0
12.2975,3859.0
12.3,3880.0
12.3025,3901.0
12.305,3903.0
12.3075,3876.0
12.31,3904.0
12.3125,3923.0
12.315,3889.0
12.3175,3899.0
12.32,3884.0
12.3225,3895.0
12.325,3893.0
12.3275,3901.0
12.33,3889.0
12.3325,3906.0
12.335,3916.0
12.3375,3896.0
12.34,3901.0
12.3425,3900.0
12.345,3894.0
12.3475,3916.0
12.35,3922.0
12.3525,3947.0
12.355,3938.0
12.3575,3936.0
12.36,3927.0
12.3625,3941.0
12.365,3941.0
12.3675,3937.0
12.37,3945.0
12.3725,3929.0
12.375,3906.0
12.3775,3907.0
12.38,3929.0
12.3825,3936.0
12.385,3916.0
12.3875,3908.0
12.39,3912.0
12.3925,3894.0
12.395,3927.0
12.3975,3923.0
12.4,3944.0
12.4025,3904.0
12.405,3894.0
12.4075,3892.0
12.41,3883.0
12.4125,3885.0
12.415,3892.0
12.4175,3865.0
12.42,3866.0
12.4225,3869.0
12.425,3879.0
12.4275,3869.0
12.43,3834.0
12.4325,3869.0
12.435,3884.0
12.4375,3840.0
12.44,3819.0
12.4425,3845.0
12.445,3843.0
12.4475,3863.0
12.45,3861.0
12.4525,3839.0
12.455,3854.0
12.4575,3844.0
12.46,3872.0
12.4625,3875.0
12.465,3895.0
12.4675,3889.0
12.47,3875.0
12.4725,3865.0
12.475,3893.0
12.4775,3885.0
12.48,3885.0
12.4825,3888.0
12.485,3905.0
12.4875,3917.0
12.49,3937.0
12.4925,3940.0
12.495,3949.0
12.4975,3924.0
12.5,3919.0
12.5025,3938.0
12.505,3945.0
12.5075,3928.0
12.51,3910.0
12.5125,3929.0
12.515,3927.0
12.5175,3949.0
12.52,3967.0
12.5225,3956.0
12.525,3953.0
12.5275,3956.0
12.53,3980.0
12.5325,3964.0
12.535,3985.0
12.5375,3968.0
12.54,3979.0
12.5425,3978.0
12.545,3970.0
12.5475,3991.0
12.55,3993.0
12.5525,3995.0
12.555,3971.0
12.5575,3979.0
12.56,4014.0
12.5625,3995.0
12.565,3992.0
12.5675,4004.0
12.57,4000.0
12.5725,4030.0
12.575,4026.0
12.5775,4044.0
12.58,4073.0
12.5825,4077.0
12.585,4041.0
12.5875,4052.0
12.59,4057.0
12.5925,4055.0
12.595,4035.0
12.5975,4048.0
12.6,4034.0
12.6025,4032.0
12.605,4044.0
12.6075,4010.0
12.61,4043.0
12.6125,4066.0
12.615,4062.0
12.6175,4100.0
12.62,4090.0
12.6225,4073.0
12.625,4056.0
12.6275,4049.0
12.63,4058.0
12.6325,4071.0
12.635,4077.0
12.6375,4077.0
12.64,4066.0
12.6425,4062.0
12.645,4081.0
12.6475,4068.0
12.65,4071.0
12.6525,4089.0
12.655,4181.0
12.6575,4215.0
12.66,4188.0
12.6625,4187.0
12.665,4181.0
12.6675,4158.0
12.67,4177.0
12.6725,4180.0
12.675,4238.0
12.6775,4272.0
12.68,4171.0
12.6825,4243.0
12.685,4194.0
12.6875,4220.0
12.69,4196.0
12.6925,4171.0
12.695,4147.0
12.6975,4086.0
12.7,4078.0
12.7025,4054.0
12.705,4015.0
12.7075,3994.0
12.71,4011.0
12.7125,3965.0
12.715,3984.0
12.7175,3964.0
12.72,3935.0
12.7225,3905.0
12.725,3942.0
12.7275,3956.0
12.73,3957.0
12.7325,3935.0
12.735,3930.0
12.7375,3880.0
12.74,3881.0
12.7425,3887.0
12.745,3884.0
12.7475,3876.0
12.75,3882.0
12.7525,3898.0
12.755,3883.0
12.7575,3848.0
12.76,3875.0
12.7625,3893.0
12.765,3882.0
12.7675,3882.0
12.77,3851.0
12.7725,3782.0
12.775,3673.0
12.7775,3520.0
12.78,3394.0
12.7825,3375.0
12.785,3543.0
12.7875,3915.0
12.79,4464.0
12.7925,5031.0
12.795,5718.0
12.7975,5905.0
12.8,5417.0
12.8025,4575.0
12.805,3969.0
12.8075,3807.0
12.81,3470.0
12.8125,3091.0
12.815,2697.0
12.8175,2130.0
12.82,1688.0
12.8225,1428.0
12.825,1615.0
12.8275,1826.0
12.83,2000.0
12.8325,2071.0
12.835,2297.0
12.8375,2611.0
12.84,2838.0
12.8425,3099.0
12.845,3429.0
12.8475,3805.0
12.85,4089.0
12.8525,4282.0
12.855,4393.0
12.8575,4485.0
12.86,4512.0
12.8625,4514.0
12.865,4470.0
12.8675,4493.0
12.87,4512.0
12.8725,4477.0
12.875,4473.0
12.8775,4494.0
12.88,4468.0
12.8825,4461.0
12.885,4437.0
12.8875,4439.0
12.89,4443.0
12.8925,4396.0
12.895,4436.0
12.8975,4423.0
12.9,4423.0
12.9025,4390.0
12.905,4381.0
12.9075,4386.0
12.91,4344.0
12.9125,4342.0
12.915,4343.0
12.9175,4327.0
12.92,4358.0
12.9225,4314.0
12.925,4324.0
12.9275,4315.0
12.93,4335.0
12.9325,4345.0
12.935,4355.0
12.9375,4329.0
12.94,4306.0
12.9425,4297.0
12.945,4344.0
12.9475,4334.0
12.95,4323.0
12.9525,4319.0
12.955,4309.0
12.9575,4290.0
12.96,4309.0
12.9625,4286.0
12.965,4284.0
12.9675,4260.0
12.97,4270.0
12.9725,4274.0
12.975,4280.0
12.9775,4291.0
12.98,4293.0
12.9825,4295.0
12.985,4275.0
12.9875,4267.0
12.99,4284.0
12.9925,4282.0
12.995,4274.0
12.9975,4271.0
13.0,4262.0
13.0025,4266.0
13.005,4241.0
13.0075,4226.0
13.01,4174.0
13.0125,4180.0
13.015,4132.0
13.0175,4140.0
13.02,4089.0
13.0225,4068.0
13.025,4032.0
13.0275,3993.0
13.03,3941.0
13.0325,3897.0
13.035,3843.0
13.0375,3832.0
13.04,3798.0
13.0425,3718.0
13.045,3635.0
13.0475,3612.0
13.05,3561.0
13.0525,3513.0
13.055,3484.0
13.0575,3427.0
13.06,3395.0
13.0625,3352.0
13.065,3327.0
13.0675,3296.0
13.07,3264.0
13.0725,3226.0
13.075,3216.0
13.0775,3218.0
13.08,3196.0
13.0825,3189.0
13.085,3133.0
13.0875,3132.0
13.09,3154.0
13.0925,3149.0
13.095,3188.0
13.0975,3162.0
13.1,3197.0
13.1025,3177.0
13.105,3225.0
13.1075,3212.0
13.11,3198.0
13.1125,3249.0
13.115,3267.0
13.1175,3272.0
13.12,3306.0
13.1225,3285.0
13.125,3291.0
13.1275,3325.0
13.13,3343.0
13.1325,3366.0
13.135,3396.0
13.1375,3425.0
13.14,3432.0
13.1425,3430.0
13.145,3407.0
13.1475,3440.0
13.15,3467.0
13.1525,3455.0
13.155,3489.0
13.1575,3487.0
13.16,3537.0
13.1625,3522.0
13.165,3557.0
13.1675,3558.0
13.17,3589.0
13.1725,3584.0
13.175,3612.0
13.1775,3614.0
13.18,3613.0
13.1825,3600.0
13.185,3631.0
13.1875,3655.0
13.19,3654.0
13.1925,3701.0
13.195,3677.0
13.1975,3700.0
13.2,3696.0
13.2025,3703.0
13.205,3730.0
13.2075,3751.0
13.21,3763.0
13.2125,3770.0
13.215,3771.0
13.2175,3819.0
13.22,3833.0
13.2225,3830.0
13.225,3844.0
13.2275,3841.0
13.23,3854.0
13.2325,3854.0
13.235,3895.0
13.2375,3853.0
13.24,3867.0
13.2425,3883.0
13.245,3894.0
13.2475,3905.0
13.25,3926.0
13.2525,3937.0
13.255,3958.0
13.2575,3941.0
13.26,3947.0
13.2625,3959.0
13.265,3977.0
13.2675,3963.0
13.27,3973.0
13.2725,3986.0
13.275,3998.0
13.2775,3973.0
13.28,3991.0
13.2825,4003.0
13.285,3998.0
13.2875,4010.0
13.29,4034.0
13.2925,4022.0
13.295,4035.0
13.2975,4050.0
13.3,4064.0
13.3025,4034.0
13.305,4035.0
13.3075,4012.0
13.31,4004.0
13.3125,4024.0
13.315,4019.0
13.3175,4045.0
13.32,4017.0
13.3225,4024.0
13.325,4017.0
13.3275,4043.0
13.33,3994.0
13.3325,4017.0
13.335,4019.0
13.3375,4026.0
13.34,3983.0
13.3425,4025.0
13.345,3977.0
13.3475,3992.0
13.35,3998.0
13.3525,3985.0
13.355,3967.0
13.3575,3984.0
13.36,3980.0
13.3625,4005.0
13.365,4009.0
13.3675,3993.0
13.37,3977.0
13.3725,3963.0
13.375,3981.0
13.3775,4011.0
13.38,3986.0
13.3825,3963.0
13.385,3972.0
13.3875,3958.0
13.39,3966.0
13.3925,3955.0
13.395,3953.0
13.3975,3957.0
13.4,3951.0
13.4025,3951.0
13.405,3973.0
13.4075,3955.0
13.41,3943.0
13.4125,3914.0
13.415,3917.0
13.4175,3923.0
13.42,3942.0
13.4225,3919.0
13.425,3914.0
13.4275,3940.0
13.43,3964.0
13.4325,3950.0
13.435,3942.0
13.4375,3933.0
13.44,3933.0
13.4425,3905.0
13.445,3922.0
13.4475,3929.0
13.45,3956.0
13.4525,3950.0
13.455,3980.0
13.4575,4000.0
13.46,3964.0
13.4625,3972.0
13.465,3956.0
13.4675,3969.0
13.47,3928.0
13.4725,3961.0
13.475,3954.0
13.4775,3937.0
13.48,3941.0
13.4825,3925.0
13.485,3888.0
13.4875,3904.0
13.49,3918.0
13.4925,3931.0
13.495,3950.0
13.4975,3955.0
13.5,3949.0
13.5025,3958.0
13.505,3940.0
13.5075,3939.0
13.51,3916.0
13.5125,3929.0
13.515,3935.0
13.5175,3928.0
13.52,3921.0
13.5225,3914.0
13.525,3926.0
13.5275,3935.0
13.53,3936.0
13.5325,3954.0
13.535,3941.0
13.5375,3970.0
13.54,3962.0
13.5425,3950.0
13.545,3932.0
13.5475,3940.0
13.55,3966.0
13.5525,3983.0
13.555,3985.0
13.5575,3987.0
13.56,3981.0
13.5625,4011.0
13.565,3994.0
13.5675,4017.0
13.57,4049.0
13.5725,4025.0
13.575,4030.0
13.5775,4015.0
13.58,4028.0
13.5825,4038.0
13.585,4006.0
13.5875,4029.0
13.59,4024.0
13.5925,4017.0
13.595,4042.0
13.5975,4075.0
13.6,4132.0
13.6025,4169.0
13.605,4174.0
13.6075,4181.0
13.61,4195.0
13.6125,4143.0
13.615,4149.0
13.6175,4198.0
13.62,4191.0
13.6225,4214.0
13.625,4182.0
13.6275,4234.0
13.63,4236.0
13.6325,4197.0
13.635,4176.0
13.6375,4164.0
13.64,4141.0
13.6425,4115.0
13.645,4085.0
13.6475,4075.0
13.65,4034.0
13.6525,4010.0
13.655,4007.0
13.6575,3979.0
13.66,3984.0
13.6625,4012.0
13.665,3991.0
13.6675,3969.0
13.67,3953.0
13.6725,3964.0
13.675,3959.0
13.6775,3954.0
13.68,3933.0
13.6825,3956.0
13.685,3951.0
13.6875,3946.0
13.69,3919.0
13.6925,3915.0
13.695,3949.0
13.6975,3947.0
13.7,3974.0
13.7025,3996.0
13.705,3993.0
13.7075,3994.0
13.71,3982.0
13.7125,4016.0
13.715,4004.0
13.7175,3953.0
13.72,3885.0
13.7225,3749.0
13.725,3640.0
13.7275,3545.0
13.73,3613.0
13.7325,3941.0
13.735,4301.0
13.7375,4872.0
13.74,5419.0
13.7425,6127.0
13.745,6400.0
13.7475,5878.0
13.75,5040.0
13.7525,4407.0
13.755,4092.0
13.7575,3646.0
13.76,3172.0
13.7625,2734.0
13.765,2241.0
13.7675,1673.0
13.77,1504.0
13.7725,1629.0
13.775,1908.0
13.7775,2062.0
13.78,2143.0
13.7825,2295.0
13.785,2588.0
13.7875,2862.0
13.79,3136.0
13.7925,3362.0
13.795,3717.0
13.7975,4083.0
13.8,4331.0
13.8025,4433.0
13.805,4571.0
13.8075,4647.0
13.81,4649.0
13.8125,4651.0
13.815,4647.0
13.8175,4650.0
13.82,4624.0
13.8225,4659.0
13.825,4670.0
13.8275,4646.0
13.83,4678.0
13.8325,4661.0
13.835,4672.0
13.8375,4662.0
13.84,4685.0
13.8425,4666.0
13.845,4682.0
13.8475,4647.0
13.85,4644.0
13.8525,4625.0
13.855,4643.0
13.8575,4634.0
13.86,4652.0
13.8625,4675.0
13.865,4666.0
13.8675,4634.0
13.87,4594.0
13.8725,4608.0
13.875,4605.0
13.8775,4590.0
13.88,4573.0
13.8825,4586.0
13.885,4603.0
13.8875,4597.0
13.89,4615.0
13.8925,4612.0
13.895,4609.0
13.8975,4605.0
13.9,4599.0
13.9025,4595.0
13.905,4588.0
13.9075,4601.0
13.91,4640.0
13.9125,4654.0
13.915,4700.0
13.9175,4693.0
13.92,4684.0
13.9225,4690.0
13.925,4693.0
13.9275,4719.0
13.93,4693.0
13.9325,4671.0
13.935,4701.0
13.9375,4730.0
13.94,4736.0
13.9425,4722.0
13.945,4706.0
13.9475,4701.0
13.95,4670.0
13.9525,4637.0
13.955,4630.0
13.9575,4608.0
13.96,4613.0
13.9625,4585.0
13.965,4534.0
13.9675,4506.0
13.97,4435.0
13.9725,4413.0
13.975,4388.0
13.9775,4366.0
13.98,4335.0
13.9825,4316.0
13.985,4228.0
13.9875,4187.0
13.99,4141.0
13.9925,4065.0
13.995,4024.0
13.9975,3973.0
14.0,3949.0
14.0025,3897.0
14.005,3852.0
14.0075,3839.0
14.01,3792.0
14.0125,3769.0
14.015,3747.0
14.0175,3710.0
14.02,3684.0
14.0225,3647.0
14.025,3639.0
14.0275,3622.0
14.03,3632.0
14.0325,3628.0
14.035,3606.0
14.0375,3630.0
14.04,3623.0
14.0425,3596.0
14.045,3575.0
14.0475,3559.0
14.05,3557.0
14.0525,3551.0
14.055,3553.0
14.0575,3570.0
14.06,3568.0
14.0625,3567.0
14.065,3579.0
14.0675,3577.0
14.07,3559.0
14.0725,3552.0
14.075,3537.0
14.0775,3551.0
14.08,3566.0
14.0825,3546.0
14.085,3602.0
14.0875,3555.0
14.09,3568.0
14.0925,3568.0
14.095,3559.0
14.0975,3553.0
14.1,3573.0
14.1025,3560.0
14.105,3566.0
14.1075,3594.0
14.11,3628.0
14.1125,3655.0
14.115,3657.0
14.1175,3663.0
14.12,3655.0
14.1225,3664.0
14.125,3708.0
14.1275,3725.0
14.13,3698.0
14.1325,3706.0
14.135,3719.0
14.1375,3729.0
14.14,3745.0
14.1425,3781.0
14.145,3776.0
14.1475,3788.0
14.15,3761.0
14.1525,3805.0
14.155,3825.0
14.1575,3797.0
14.16,3803.0
14.1625,3853.0
14.165,3874.0
14.1675,3869.0
14.17,3869.0
14.1725,3868.0
14.175,3864.0
14.1775,3848.0
14.18,3830.0
14.1825,3839.0
14.185,3838.0
14.1875,3812.0
14.19,3839.0
14.1925,3821.0
14.195,3812.0
14.1975,3827.0
14.2,3788.0
14.2025,3743.0
14.205,3764.0
14.2075,3747.0
14.21,3737.0
14.2125,3744.0
14.215,3751.0
14.2175,3731.0
14.22,3702.0
14.2225,3687.0
14.225,3680.0
14.2275,3680.0
14.23,3657.0
14.2325,3651.0
14.235,3670.0
14.2375,3631.0
14.24,3622.0
14.2425,3611.0
14.245,3589.0
14.2475,3619.0
14.25,3572.0
14.2525,3581.0
14.255,3581.0
14.2575,3594.0
14.26,3583.0
14.2625,3596.0
14.265,3600.0
14.2675,3598.0
14.27,3609.0
14.2725,3598.0
14.275,3626.0
14.2775,3683.0
14.28,3668.0
14.2825,3640.0
14.285,3641.0
14.2875,3667.0
14.29,3698.0
14.2925,3718.0
14.295,3694.0
14.2975,3701.0
14.3,3706.0
14.3025,3739.0
14.305,3746.0
14.3075,3801.0
14.31,3828.0
14.3125,3824.0
14.315,3818.0
14.3175,3798.0
14.32,3817.0
14.3225,3849.0
14.325,3873.0
14.3275,3888.0
14.33,3891.0
14.3325,3924.0
14.335,3936.0
14.3375,3932.0
14.34,3945.0
14.3425,3963.0
14.345,3941.0
14.3475,3944.0
14.35,3948.0
14.3525,3978.0
14.355,4005.0
14.3575,4022.0
14.36,4049.0
14.3625,4037.0
14.365,4015.0
14.3675,4029.0
14.37,4025.0
14.3725,4029.0
14.375,4061.0
14.3775,4046.0
14.38,4023.0
14.3825,4017.0
14.385,4048.0
14.3875,4032.0
14.39,4046.0
14.3925,4023.0
14.395,4062.0
14.3975,4035.0
14.4,4054.0
14.4025,4060.0
14.405,4067.0
14.4075,4057.0
14.41,4047.0
14.4125,4038.0
14.415,4006.0
14.4175,4041.0
14.42,4067.0
14.4225,4067.0
14.425,4048.0
14.4275,4061.0
14.43,4091.0
14.4325,4089.0
14.435,4065.0
14.4375,4105.0
14.44,4064.0
14.4425,4046.0
14.445,4040.0
14.4475,4021.0
14.45,4062.0
14.4525,4028.0
14.455,4030.0
14.4575,3993.0
14.46,3986.0
14.4625,3985.0
14.465,3969.0
14.4675,3954.0
14.47,3961.0
14.4725,3984.0
14.475,3955.0
14.4775,3942.0
14.48,3968.0
14.4825,3932.0
14.485,3917.0
14.4875,3937.0
14.49,3955.0
14.4925,3950.0
14.495,3958.0
14.4975,3969.0
14.5,3962.0
14.5025,3917.0
14.505,3943.0
14.5075,3921.0
14.51,3917.0
14.5125,3924.0
14.515,3925.0
14.5175,3903.0
14.52,3979.0
14.5225,4046.0
14.525,4047.0
14.5275,4072.0
14.53,4070.0
14.5325,3999.0
14.535,4002.0
14.5375,4031.0
14.54,4052.0
14.5425,4084.0
14.545,4063.0
14.5475,4071.0
14.55,4076.0
14.5525,4043.0
14.555,4019.0
14.5575,4014.0
14.56,3986.0
14.5625,3981.0
14.565,3925.0
14.5675,3892.0
14.57,3897.0
14.5725,3871.0
14.575,3861.0
14.5775,3855.0
14.58,3859.0
14.5825,3860.0
14.585,3877.0
14.5875,3890.0
14.59,3879.0
14.5925,3886.0
14.595,3881.0
14.5975,3883.0
14.6,3848.0
14.6025,3860.0
14.605,3864.0
14.6075,3846.0
14.61,3867.0
14.6125,3897.0
14.615,3880.0
14.6175,3900.0
14.62,3909.0
14.6225,3899.0
14.625,3950.0
14.6275,3947.0
14.63,3952.0
14.6325,3954.0
14.635,3928.0
14.6375,3890.0
14.64,3819.0
14.6425,3663.0
14.645,3500.0
14.6475,3330.0
14.65,3295.0
14.6525,3447.0
14.655,3762.0
14.6575,4292.0
14.66,4806.0
14.6625,5604.0
14.665,6140.0
14.6675,5855.0
14.67,5250.0
14.6725,4812.0
14.675,4717.0
14.6775,4416.0
14.68,3949.0
14.6825,3450.0
14.685,2575.0
14.6875,2029.0
14.69,1688.0
14.6925,1874.0
14.695,2079.0
14.6975,2254.0
14.7,2364.0
14.7025,2582.0
14.705,2880.0
14.7075,3090.0
14.71,3335.0
14.7125,3669.0
14.715,4050.0
14.7175,4253.0
14.72,4399.0
14.7225,4527.0
14.725,4625.0
14.7275,4632.0
14.73,4641.0
14.7325,4644.0
14.735,4658.0
14.7375,4645.0
14.74,4656.0
14.7425,4655.0
14.745,4676.0
14.7475,4639.0
14.75,4645.0
14.7525,4651.0
14.755,4636.0
14.7575,4645.0
14.76,4648.0
14.7625,4620.0
14.765,4623.0
14.7675,4626.0
14.77,4634.0
14.7725,4633.0
14.775,4665.0
14.7775,4660.0
14.78,4701.0
14.7825,4656.0
14.785,4675.0
14.7875,4675.0
14.79,4674.0
14.7925,4673.0
14.795,4678.0
14.7975,4672.0
14.8,4702.0
14.8025,4711.0
14.805,4714.0
14.8075,4739.0
14.81,4764.0
14.8125,4744.0
14.815,4775.0
14.8175,4785.0
14.82,4738.0
14.8225,4767.0
14.825,4782.0
14.8275,4782.0
14.83,4792.0
14.8325,4827.0
14.835,4812.0
14.8375,4802.0
14.84,4841.0
14.8425,4824.0
14.845,4850.0
14.8475,4872.0
14.85,4889.0
14.8525,4899.0
14.855,4854.0
14.8575,4865.0
14.86,4888.0
14.8625,4868.0
14.865,4841.0
14.8675,4866.0
14.87,4862.0
14.8725,4830.0
14.875,4800.0
14.8775,4810.0
14.88,4773.0
14.8825,4740.0
14.885,4723.0
14.8875,4704.0
14.89,4678.0
14.8925,4634.0
14.895,4582.0
14.8975,4526.0
14.9,4470.0
14.9025,4436.0
14.905,4379.0
14.9075,4325.0
14.91,4287.0
14.9125,4216.0
14.915,4133.0
14.9175,4091.0
14.92,4032.0
14.9225,3965.0
14.925,3892.0
14.9275,3873.0
14.93,3834.0
14.9325,3793.0
14.935,3759.0
14.9375,3753.0
14.94,3709.0
14.9425,3718.0
14.945,3676.0
14.9475,3661.0
14.95,3641.0
14.9525,3608.0
14.955,3601.0
14.9575,3577.0
14.96,3534.0
14.9625,3577.0
14.965,3571.0
14.9675,3585.0
14.97,3569.0
14.9725,3578.0
14.975,3569.0
14.9775,3593.0
14.98,3600.0
14.9825,3612.0
14.985,3606.0
14.9875,3619.0
14.99,3611.0
14.9925,3620.0
14.995,3604.0
14.9975,3622.0
15.0,3625.0
15.0025,3636.0
15.005,3669.0
15.0075,3654.0
15.01,3688.0
15.0125,3698.0
15.015,3700.0
15.0175,3723.0
15.02,3758.0
15.0225,3776.0
15.025,3803.0
15.0275,3793.0
15.03,3789.0
15.0325,3787.0
15.035,3789.0
15.0375,3811.0
15.04,3805.0
15.0425,3789.0
15.045,3811.0
15.0475,3830.0
15.05,3843.0
15.0525,3838.0
15.055,3870.0
15.0575,3853.0
15.06,3842.0
15.0625,3875.0
15.065,3834.0
15.0675,3852.0
15.07,3852.0
15.0725,3875.0
15.075,3873.0
15.0775,3854.0
15.08,3850.0
15.0825,3880.0
15.085,3894.0
15.0875,3914.0
15.09,3926.0
15.0925,3919.0
15.095,3934.0
15.0975,3942.0
15.1,3947.0
15.1025,3934.0
15.105,3963.0
15.1075,3969.0
15.11,3981.0
15.1125,3969.0
15.115,3963.0
15.1175,3973.0
15.12,3957.0
15.1225,3967.0
15.125,3960.0
15.1275,3993.0
15.13,3985.0
15.1325,4001.0
15.135,3969.0
15.1375,3972.0
15.14,3982.0
15.1425,3953.0
15.145,3957.0
15.1475,3939.0
15.15,3966.0
15.1525,3960.0
15.155,3959.0
15.1575,3973.0
15.16,3972.0
15.1625,3946.0
15.165,3965.0
15.1675,3965.0
15.17,3956.0
15.1725,3940.0
15.175,3944.0
15.1775,3933.0
15.18,3965.0
15.1825,3943.0
15.185,3951.0
15.1875,3953.0
15.19,3960.0
15.1925,4000.0
15.195,4001.0
15.1975,3973.0
15.2,3985.0
15.2025,4002.0
15.205,4006.0
15.2075,4035.0
15.21,4042.0
15.2125,4042.0
15.215,4042.0
15.2175,4015.0
15.22,4037.0
15.2225,4032.0
15.225,4027.0
15.2275,4023.0
15.23,4038.0
15.2325,4005.0
15.235,4000.0
15.2375,4014.0
15.24,4033.0
15.2425,4029.0
15.245,4033.0
15.2475,4025.0
15.25,4033.0
15.2525,4023.0
15.255,4036.0
15.2575,4033.0
15.26,4033.0
15.2625,4061.0
15.265,4040.0
15.2675,4052.0
15.27,4038.0
15.2725,4041.0
15.275,4032.0
15.2775,4029.0
15.28,4037.0
15.2825,4033.0
15.285,4064.0
15.2875,4067.0
15.29,4086.0
15.2925,4076.0
15.295,4046.0
15.2975,4028.0
15.3,4039.0
15.3025,4050.0
15.305,4045.0
15.3075,4043.0
15.31,4051.0
15.3125,4077.0
15.315,4078.0
15.3175,4064.0
15.32,4061.0
15.3225,4059.0
15.325,4047.0
15.3275,4080.0
15.33,4095.0
15.3325,4114.0
15.335,4100.0
15.3375,4110.0
15.34,4086.0
15.3425,4069.0
15.345,4080.0
15.3475,4085.0
15.35,4089.0
15.3525,4086.0
15.355,4102.0
15.3575,4127.0
15.36,4132.0
15.3625,4103.0
15.365,4098.0
15.3675,4082.0
15.37,4082.0
15.3725,4067.0
15.375,4067.0
15.3775,4066.0
15.38,4040.0
15.3825,4030.0
15.385,4032.0
15.3875,3990.0
15.39,3993.0
15.3925,3981.0
15.395,3978.0
15.3975,3972.0
15.4,3984.0
15.4025,3958.0
15.405,3944.0
15.4075,3912.0
15.41,3903.0
15.4125,3873.0
15.415,3855.0
15.4175,3873.0
15.42,3876.0
15.4225,3872.0
15.425,3887.0
15.4275,3870.0
15.43,3847.0
15.4325,3847.0
15.435,3868.0
15.4375,3821.0
15.44,3850.0
15.4425,3830.0
15.445,3827.0
15.4475,3819.0
15.45,3818.0
15.4525,3837.0
15.455,3831.0
15.4575,3843.0
15.46,3850.0
15.4625,3891.0
15.465,3903.0
15.4675,3894.0
15.47,3890.0
15.4725,3895.0
15.475,3895.0
15.4775,3917.0
15.48,3933.0
15.4825,3921.0
15.485,3909.0
15.4875,3941.0
15.49,4026.0
15.4925,4043.0
15.495,4057.0
15.4975,4059.0
15.5,4057.0
15.5025,4024.0
15.505,4037.0
15.5075,4060.0
15.51,4094.0
15.5125,4101.0
15.515,4083.0
15.5175,4087.0
15.52,4092.0
15.5225,4070.0
15.525,4077.0
15.5275,4062.0
15.53,4036.0
15.5325,3957.0
15.535,3935.0
15.5375,3923.0
15.54,3892.0
15.5425,3897.0
15.545,3919.0
15.5475,3876.0
15.55,3925.0
15.5525,3900.0
15.555,3873.0
15.5575,3878.0
15.56,3918.0
15.5625,3898.0
15.565,3908.0
15.5675,3895.0
15.57,3903.0
15.5725,3901.0
15.575,3882.0
15.5775,3907.0
15.58,3880.0
15.5825,3876.0
15.585,3912.0
15.5875,3912.0
15.59,3905.0
15.5925,3915.0
15.595,3915.0
15.5975,3903.0
15.6,3888.0
15.6025,3895.0
15.605,3860.0
15.6075,3785.0
15.61,3701.0
15.6125,3523.0
15.615,3368.0
15.6175,3277.0
15.62,3399.0
15.6225,3709.0
15.625,4175.0
15.6275,4698.0
15.63,5368.0
15.6325,5974.0
15.635,5871.0
15.6375,5189.0
15.64,4477.0
15.6425,4282.0
15.645,4039.0
15.6475,3654.0
15.65,3112.0
15.6525,2612.0
15.655,1824.0
15.6575,1528.0
15.66,1482.0
15.6625,1737.0
15.665,1927.0
15.6675,2070.0
15.67,2226.0
15.6725,2510.0
15.675,2781.0
15.6775,2997.0
15.68,3264.0
15.6825,3664.0
15.685,3989.0
15.6875,4188.0
15.69,4296.0
15.6925,4461.0
15.695,4514.0
15.6975,4524.0
15.7,4497.0
15.7025,4505.0
15.705,4503.0
15.7075,4492.0
15.71,4476.0
15.7125,4514.0
15.715,4495.0
15.7175,4490.0
15.72,4507.0
15.7225,4470.0
15.725,4454.0
15.7275,4415.0
15.73,4416.0
15.7325,4373.0
15.735,4352.0
15.7375,4375.0
15.74,4384.0
15.7425,4365.0
15.745,4363.0
15.7475,4341.0
15.75,4372.0
15.7525,4359.0
15.755,4370.0
15.7575,4364.0
15.76,4357.0
15.7625,4360.0
15.765,4351.0
15.7675,4362.0
15.77,4362.0
15.7725,4383.0
15.775,4391.0
15.7775,4366.0
15.78,4394.0
15.7825,4401.0
15.785,4357.0
15.7875,4411.0
15.79,4395.0
15.7925,4398.0
15.795,4385.0
15.7975,4429.0
15.8,4419.0
15.8025,4447.0
15.805,4444.0
15.8075,4461.0
15.81,4471.0
15.8125,4468.0
15.815,4449.0
15.8175,4461.0
15.82,4500.0
15.8225,4502.0
15.825,4492.0
15.8275,4489.0
15.83,4496.0
15.8325,4496.0
15.835,4486.0
15.8375,4493.0
15.84,4505.0
15.8425,4488.0
15.845,4464.0
15.8475,4468.0
15.85,4444.0
15.8525,4429.0
15.855,4399.0
15.8575,4390.0
15.86,4350.0
15.8625,4321.0
15.865,4272.0
15.8675,4255.0
15.87,4222.0
15.8725,4182.0
15.875,4163.0
15.8775,4135.0
15.88,4093.0
15.8825,4046.0
15.885,3992.0
15.8875,3971.0
15.89,3899.0
15.8925,3855.0
15.895,3819.0
15.8975,3807.0
15.9,3778.0
15.9025,3737.0
15.905,3740.0
15.9075,3708.0
15.91,3690.0
15.9125,3673.0
15.915,3638.0
15.9175,3617.0
15.92,3598.0
15.9225,3596.0
15.925,3610.0
15.9275,3599.0
15.93,3634.0
15.9325,3606.0
15.935,3593.0
15.9375,3573.0
15.94,3584.0
15.9425,3583.0
15.945,3610.0
15.9475,3607.0
15.95,3585.0
15.9525,3606.0
15.955,3626.0
15.9575,3619.0
15.96,3612.0
15.9625,3616.0
15.965,3655.0
15.9675,3660.0
15.97,3660.0
15.9725,3670.0
15.975,3678.0
15.9775,3698.0
15.98,3654.0
15.9825,3665.0
15.985,3696.0
15.9875,3711.0
15.99,3714.0
15.9925,3737.0
15.995,3746.0
15.9975,3747.0
16.0,3715.0
16.0025,3730.0
16.005,3730.0
16.0075,3714.0
16.01,3745.0
16.0125,3748.0
16.015,3728.0
16.0175,3718.0
16.02,3713.0
16.0225,3709.0
16.025,3688.0
16.0275,3700.0
16.03,3683.0
16.0325,3703.0
16.035,3694.0
16.0375,3680.0
16.04,3690.0
16.0425,3712.0
16.045,3744.0
16.0475,3724.0
16.05,3718.0
16.0525,3745.0
16.055,3771.0
16.0575,3794.0
16.06,3789.0
16.0625,3825.0
16.065,3842.0
16.0675,3862.0
16.07,3850.0
16.0725,3825.0
16.075,3826.0
16.0775,3829.0
16.08,3833.0
16.0825,3823.0
16.085,3792.0
16.0875,3775.0
16.09,3765.0
16.0925,3788.0
16.095,3816.0
16.0975,3797.0
16.1,3782.0
16.1025,3754.0
16.105,3789.0
16.1075,3788.0
16.11,3766.0
16.1125,3768.0
16.115,3755.0
16.1175,3749.0
16.12,3746.0
16.1225,3755.0
16.125,3753.0
16.1275,3725.0
16.13,3695.0
16.1325,3688.0
16.135,3675.0
16.1375,3659.0
16.14,3689.0
16.1425,3665.0
16.145,3682.0
16.1475,3661.0
16.15,3702.0
16.1525,3669.0
16.155,3640.0
16.1575,3652.0
16.16,3659.0
16.1625,3678.0
16.165,3689.0
16.1675,3676.0
16.17,3683.0
16.1725,3655.0
16.175,3677.0
16.1775,3672.0
16.18,3684.0
16.1825,3692.0
16.185,3719.0
16.1875,3730.0
16.19,3719.0
16.1925,3712.0
16.195,3697.0
16.1975,3689.0
16.2,3689.0
16.2025,3703.0
16.205,3726.0
16.2075,3722.0
16.21,3716.0
16.2125,3722.0
16.215,3702.0
16.2175,3684.0
16.22,3699.0
16.2225,3711.0
16.225,3689.0
16.2275,3711.0
16.23,3709.0
16.2325,3746.0
16.235,3722.0
16.2375,3737.0
16.24,3741.0
16.2425,3732.0
16.245,3708.0
16.2475,3725.0
16.25,3736.0
16.2525,3751.0
16.255,3771.0
16.2575,3769.0
16.26,3800.0
16.2625,3812.0
16.265,3817.0
16.2675,3827.0
16.27,3823.0
16.2725,3833.0
16.275,3845.0
16.2775,3836.0
16.28,3852.0
16.2825,3864.0
16.285,3872.0
16.2875,3873.0
16.29,3861.0
16.2925,3848.0
16.295,3866.0
16.2975,3889.0
16.3,3908.0
16.3025,3898.0
16.305,3908.0
16.3075,3883.0
16.31,3916.0
16.3125,3898.0
16.315,3886.0
16.3175,3891.0
16.32,3907.0
16.3225,3908.0
16.325,3917.0
16.3275,3914.0
16.33,3893.0
16.3325,3911.0
16.335,3921.0
16.3375,3917.0
16.34,3914.0
16.3425,3908.0
16.345,3901.0
16.3475,3894.0
16.35,3910.0
16.3525,3917.0
16.355,3925.0
16.3575,3931.0
16.36,3941.0
16.3625,3922.0
16.365,3930.0
16.3675,3967.0
16.37,3956.0
16.3725,3929.0
16.375,3958.0
16.3775,3952.0
16.38,3934.0
16.3825,3945.0
16.385,3991.0
16.3875,4037.0
16.39,4061.0
16.3925,4070.0
16.395,4039.0
16.3975,4003.0
16.4,3951.0
16.4025,3963.0
16.405,3968.0
16.4075,4020.0
16.41,4034.0
16.4125,4032.0
16.415,4032.0
16.4175,4030.0
16.42,3973.0
16.4225,3961.0
16.425,3958.0
16.4275,3904.0
16.43,3887.0
16.4325,3840.0
16.435,3826.0
16.4375,3796.0
16.44,3781.0
16.4425,3769.0
16.445,3761.0
16.4475,3754.0
16.45,3796.0
16.4525,3770.0
16.455,3746.0
16.4575,3735.0
16.46,3751.0
16.4625,3742.0
16.465,3741.0
16.4675,3737.0
16.47,3695.0
16.4725,3716.0
16.475,3689.0
16.4775,3688.0
16.48,3671.0
16.4825,3668.0
16.485,3719.0
16.4875,3711.0
16.49,3728.0
16.4925,3754.0
16.495,3758.0
16.4975,3768.0
16.5,3781.0
16.5025,3763.0
16.505,3733.0
16.5075,3639.0
16.51,3488.0
16.5125,3362.0
16.515,3258.0
16.5175,3248.0
16.52,3430.0
16.5225,3760.0
16.525,4252.0
16.5275,4765.0
16.53,5502.0
16.5325,6106.0
16.535,5812.0
16.5375,5073.0
16.54,4387.0
16.5425,4124.0
16.545,3673.0
16.5475,3236.0
16.55,2611.0
16.5525,2078.0
16.555,1370.0
16.5575,1076.0
16.56,1096.0
16.5625,1362.0
16.565,1562.0
16.5675,1688.0
16.57,1821.0
16.5725,2120.0
16.575,2395.0
16.5775,2656.0
16.58,2877.0
16.5825,3191.0
16.585,3544.0
16.5875,3768.0
16.59,3874.0
16.5925,4034.0
16.595,4071.0
16.5975,4018.0
16.6,4002.0
16.6025,4007.0
16.605,4049.0
16.6075,4163.0
16.61,4231.0
16.6125,4221.0
16.615,4173.0
16.6175,4186.0
16.62,4197.0
16.6225,4211.0
16.625,4214.0
16.6275,4192.0
16.63,4150.0
16.6325,4144.0
16.635,4172.0
16.6375,4164.0
16.64,4167.0
16.6425,4145.0
16.645,4143.0
16.6475,4145.0
16.65,4145.0
16.6525,4136.0
16.655,4118.0
16.6575,4140.0
16.66,4137.0
16.6625,4122.0
16.665,4129.0
16.6675,4148.0
16.67,4119.0
16.6725,4109.0
16.675,4136.0
16.6775,4141.0
16.68,4155.0
16.6825,4172.0
16.685,4181.0
16.6875,4183.0
16.69,4195.0
16.6925,4190.0
16.695,4194.0
16.6975,4223.0
16.7,4241.0
16.7025,4278.0
16.705,4306.0
16.7075,4308.0
16.71,4329.0
16.7125,4316.0
16.715,4343.0
16.7175,4338.0
16.72,4323.0
16.7225,4342.0
16.725,4395.0
16.7275,4458.0
16.73,4458.0
16.7325,4440.0
16.735,4451.0
16.7375,4431.0
16.74,4393.0
16.7425,4403.0
16.745,4383.0
16.7475,4349.0
16.75,4311.0
16.7525,4305.0
16.755,4268.0
16.7575,4236.0
16.76,4209.0
16.7625,4188.0
16.765,4197.0
16.7675,4169.0
16.77,4110.0
16.7725,4078.0
16.775,4013.0
16.7775,3975.0
16.78,3959.0
16.7825,3905.0
16.785,3880.0
16.7875,3788.0
16.79,3765.0
16.7925,3716.0
16.795,3698.0
16.7975,3659.0
16.8,3640.0
16.8025,3613.0
16.805,3574.0
16.8075,3558.0
16.81,3545.0
16.8125,3539.0
16.815,3527.0
16.8175,3475.0
16.82,3490.0
16.8225,3485.0
16.825,3463.0
16.8275,3433.0
16.83,3473.0
16.8325,3465.0
16.835,3470.0
16.8375,3484.0
16.84,3455.0
16.8425,3459.0
16.845,3436.0
16.8475,3436.0
16.85,3435.0
16.8525,3445.0
16.855,3416.0
16.8575,3396.0
16.86,3392.0
16.8625,3411.0
16.865,3416.0
16.8675,3445.0
16.87,3440.0
16.8725,3435.0
16.875,3426.0
16.8775,3477.0
16.88,3470.0
16.8825,3477.0
16.885,3473.0
16.8875,3479.0
16.89,3499.0
16.8925,3507.0
16.895,3538.0
16.8975,3580.0
16.9,3595.0
16.9025,3604.0
16.905,3592.0
16.9075,3631.0
16.91,3651.0
16.9125,3676.0
16.915,3670.0
16.9175,3697.0
16.92,3718.0
16.9225,3709.0
16.925,3715.0
16.9275,3716.0
16.93,3741.0
16.9325,3724.0
16.935,3743.0
16.9375,3769.0
16.94,3771.0
16.9425,3777.0
16.945,3791.0
16.9475,3789.0
16.95,3801.0
16.9525,3768.0
16.955,3806.0
16.9575,3862.0
16.96,3887.0
16.9625,3856.0
16.965,3894.0
16.9675,3867.0
16.97,3877.0
16.9725,3879.0
16.975,3854.0
16.9775,3865.0
16.98,3900.0
16.9825,3903.0
16.985,3906.0
16.9875,3883.0
16.99,3892.0
16.9925,3885.0
16.995,3926.0
16.9975,3910.0
17.0,3921.0
17.0025,3936.0
17.005,3924.0
17.0075,3937.0
17.01,3938.0
17.0125,3958.0
17.015,3934.0
17.0175,3950.0
17.02,3984.0
17.0225,3984.0
17.025,4004.0
17.0275,3989.0
17.03,3966.0
17.0325,3957.0
17.035,3948.0
17.0375,3946.0
17.04,3947.0
17.0425,3996.0
17.045,3967.0
17.0475,3972.0
17.05,3958.0
17.0525,3947.0
17.055,3953.0
17.0575,3939.0
17.06,3936.0
17.0625,3933.0
17.065,3938.0
17.0675,3952.0
17.07,3933.0
17.0725,3947.0
17.075,3945.0
17.0775,3943.0
17.08,3946.0
17.0825,3927.0
17.085,3967.0
17.0875,3987.0
17.09,3999.0
17.0925,3975.0
17.095,3957.0
17.0975,3948.0
17.1,3967.0
17.1025,3954.0
17.105,3970.0
17.1075,3969.0
17.11,3983.0
17.1125,3950.0
17.115,3967.0
17.1175,3984.0
17.12,4009.0
17.1225,4015.0
17.125,4024.0
17.1275,4005.0
17.13,3975.0
17.1325,3978.0
17.135,3988.0
17.1375,3982.0
17.14,4002.0
17.1425,3995.0
17.145,3989.0
17.1475,3995.0
17.15,4026.0
17.1525,3990.0
17.155,4002.0
17.1575,4010.0
17.16,4012.0
17.1625,4026.0
17.165,4029.0
17.1675,4055.0
17.17,4063.0
17.1725,4067.0
17.175,4123.0
17.1775,4099.0
17.18,4080.0
17.1825,4073.0
17.185,4088.0
17.1875,4118.0
17.19,4126.0
17.1925,4103.0
17.195,4101.0
17.1975,4073.0
17.2,4076.0
17.2025,4078.0
17.205,4125.0
17.2075,4131.0
17.21,4152.0
17.2125,4138.0
17.215,4136.0
17.2175,4145.0
17.22,4152.0
17.2225,4159.0
17.225,4174.0
17.2275,4200.0
17.23,4184.0
17.2325,4194.0
17.235,4186.0
17.2375,4204.0
17.24,4181.0
17.2425,4170.0
17.245,4189.0
17.2475,4176.0
17.25,4185.0
17.2525,4173.0
17.255,4167.0
17.2575,4213.0
17.26,4203.0
17.2625,4205.0
17.265,4201.0
17.2675,4210.0
17.27,4214.0
17.2725,4220.0
17.275,4218.0
17.2775,4198.0
17.28,4182.0
17.2825,4211.0
17.285,4205.0
17.2875,4205.0
17.29,4186.0
17.2925,4204.0
17.295,4198.0
17.2975,4195.0
17.3,4216.0
17.3025,4208.0
17.305,4218.0
17.3075,4222.0
17.31,4241.0
17.3125,4224.0
17.315,4210.0
17.3175,4183.0
17.32,4198.0
17.3225,4176.0
17.325,4177.0
17.3275,4196.0
17.33,4211.0
17.3325,4228.0
17.335,4217.0
17.3375,4274.0
17.34,4368.0
17.3425,4397.0
17.345,4384.0
17.3475,4376.0
17.35,4357.0
17.3525,4345.0
17.355,4347.0
17.3575,4373.0
17.36,4397.0
17.3625,4380.0
17.365,4386.0
17.3675,4410.0
17.37,4345.0
17.3725,4341.0
17.375,4331.0
17.3775,4329.0
17.38,4278.0
17.3825,4245.0
17.385,4231.0
17.3875,4171.0
17.39,4155.0
17.3925,4127.0
17.395,4111.0
17.3975,4120.0
17.4,4137.0
17.4025,4111.0
17.405,4106.0
17.4075,4081.0
17.41,4067.0
17.4125,4071.0
17.415,4088.0
17.4175,4081.0
17.42,4078.0
17.4225,4089.0
17.425,4082.0
17.4275,4055.0
17.43,4069.0
17.4325,4059.0
17.435,4035.0
17.4375,4061.0
17.44,4058.0
17.4425,4079.0
17.445,4078.0
17.4475,4060.0
17.45,4081.0
17.4525,4099.0
17.455,4076.0
17.4575,4015.0
17.46,3919.0
17.4625,3748.0
17.465,3587.0
17.4675,3507.0
17.47,3527.0
17.4725,3783.0
17.475,4151.0
17.4775,4718.0
17.48,5307.0
17.4825,5978.0
17.485,6027.0
17.4875,5354.0
17.49,4634.0
17.4925,4404.0
17.495,4236.0
17.4975,3858.0
17.5,3386.0
17.5025,2961.0
17.505,2167.0
17.5075,1815.0
17.51,1655.0
17.5125,1902.0
17.515,2073.0
17.5175,2204.0
17.52,2322.0
17.5225,2597.0
17.525,2852.0
17.5275,3102.0
17.53,3376.0
17.5325,3744.0
17.535,4083.0
17.5375,4289.0
17.54,4396.0
17.5425,4556.0
17.545,4631.0
17.5475,4618.0
17.55,4614.0
17.5525,4616.0
17.555,4624.0
17.5575,4634.0
17.56,4619.0
17.5625,4635.0
17.565,4639.0
17.5675,4635.0
17.57,4617.0
17.5725,4606.0
17.575,4599.0
17.5775,4572.0
17.58,4611.0
17.5825,4586.0
17.585,4618.0
17.5875,4620.0
17.59,4634.0
17.5925,4625.0
17.595,4602.0
17.5975,4601.0
17.6,4589.0
17.6025,4582.0
17.605,4553.0
17.6075,4565.0
17.61,4569.0
17.6125,4560.0
17.615,4537.0
17.6175,4529.0
17.62,4515.0
17.6225,4504.0
17.625,4480.0
17.6275,4493.0
17.63,4486.0
17.6325,4466.0
17.635,4478.0
17.6375,4452.0
17.64,4444.0
17.6425,4444.0
17.645,4444.0
17.6475,4475.0
17.65,4493.0
17.6525,4517.0
17.655,4514.0
17.6575,4537.0
17.66,4555.0
17.6625,4594.0
17.665,4582.0
17.6675,4579.0
17.67,4535.0
17.6725,4566.0
17.675,4572.0
17.6775,4589.0
17.68,4596.0
17.6825,4598.0
17.685,4602.0
17.6875,4581.0
17.69,4601.0
17.6925,4571.0
17.695,4534.0
17.6975,4541.0
17.7,4519.0
17.7025,4520.0
17.705,4491.0
17.7075,4496.0
17.71,4442.0
17.7125,4392.0
17.715,4388.0
17.7175,4383.0
17.72,4350.0
17.7225,4291.0
17.725,4232.0
17.7275,4158.0
17.73,4134.0
17.7325,4073.0
17.735,4012.0
17.7375,3949.0
17.74,3879.0
17.7425,3862.0
17.745,3823.0
17.7475,3763.0
17.75,3728.0
17.7525,3711.0
17.755,3652.0
17.7575,3620.0
17.76,3571.0
17.7625,3558.0
17.765,3523.0
17.7675,3522.0
17.77,3494.0
17.7725,3451.0
17.775,3443.0
17.7775,3438.0
17.78,3417.0
17.7825,3433.0
17.785,3398.0
17.7875,3394.0
17.79,3421.0
17.7925,3402.0
17.795,3416.0
17.7975,3421.0
17.8,3438.0
17.8025,3457.0
17.805,3478.0
17.8075,3488.0
17.81,3502.0
17.8125,3515.0
17.815,3536.0
17.8175,3528.0
17.82,3502.0
17.8225,3524.0
17.825,3534.0
17.8275,3548.0
17.83,3543.0
17.8325,3561.0
17.835,3561.0
17.8375,3582.0
17.84,3573.0
17.8425,3585.0
17.845,3608.0
17.8475,3591.0
17.85,3607.0
17.8525,3614.0
17.855,3620.0
17.8575,3643.0
17.86,3646.0
17.8625,3673.0
17.865,3671.0
17.8675,3702.0
17.87,3698.0
17.8725,3708.0
17.875,3718.0
17.8775,3729.0
17.88,3739.0
17.8825,3745.0
17.885,3768.0
17.8875,3773.0
17.89,3782.0
17.8925,3818.0
17.895,3833.0
17.8975,3835.0
17.9,3848.0
17.9025,3843.0
17.905,3871.0
17.9075,3898.0
17.91,3909.0
17.9125,3902.0
17.915,3913.0
17.9175,3906.0
17.92,3919.0
17.9225,3914.0
17.925,3920.0
17.9275,3939.0
17.93,3917.0
17.9325,3935.0
17.935,3942.0
17.9375,3930.0
17.94,3955.0
17.9425,3949.0
17.945,3952.0
17.9475,3945.0
17.95,3921.0
17.9525,3945.0
17.955,3938.0
17.9575,3936.0
17.96,3949.0
17.9625,3929.0
17.965,3933.0
17.9675,3938.0
17.97,3915.0
17.9725,3923.0
17.975,3957.0
17.9775,3962.0
17.98,3959.0
17.9825,3932.0
17.985,3952.0
17.9875,3986.0
17.99,3976.0
17.9925,3973.0
17.995,3953.0
17.9975,3968.0
18.0,3979.0
18.0025,3999.0
18.005,3974.0
18.0075,3977.0
18.01,3976.0
18.0125,3993.0
18.015,4024.0
18.0175,4014.0
18.02,4024.0
18.0225,3995.0
18.025,4010.0
18.0275,4019.0
18.03,4019.0
18.0325,4035.0
18.035,4019.0
18.0375,4019.0
18.04,4039.0
18.0425,4056.0
18.045,4068.0
18.0475,4071.0
18.05,4063.0
18.0525,4073.0
18.055,4077.0
18.0575,4053.0
18.06,4062.0
18.0625,4043.0
18.065,4054.0
18.0675,4061.0
18.07,4066.0
18.0725,4063.0
18.075,4051.0
18.0775,4065.0
18.08,4074.0
18.0825,4079.0
18.085,4069.0
18.0875,4108.0
18.09,4096.0
18.0925,4123.0
18.095,4112.0
18.0975,4117.0
18.1,4078.0
18.1025,4091.0
18.105,4114.0
18.1075,4109.0
18.11,4112.0
18.1125,4112.0
18.115,4128.0
18.1175,4126.0
18.12,4129.0
18.1225,4138.0
18.125,4113.0
18.1275,4116.0
18.13,4125.0
18.1325,4132.0
18.135,4127.0
18.1375,4128.0
18.14,4120.0
18.1425,4134.0
18.145,4113.0
18.1475,4112.0
18.15,4100.0
18.1525,4151.0
18.155,4140.0
18.1575,4147.0
18.16,4110.0
18.1625,4151.0
18.165,4172.0
18.1675,4146.0
18.17,4157.0
18.1725,4169.0
18.175,4182.0
18.1775,4197.0
18.18,4200.0
18.1825,4200.0
18.185,4191.0
18.1875,4176.0
18.19,4168.0
18.1925,4177.0
18.195,4187.0
18.1975,4184.0
18.2,4216.0
18.2025,4190.0
18.205,4182.0
18.2075,4194.0
18.21,4163.0
18.2125,4179.0
18.215,4187.0
18.2175,4179.0
18.22,4182.0
18.2225,4198.0
18.225,4191.0
18.2275,4179.0
18.23,4175.0
18.2325,4151.0
18.235,4177.0
18.2375,4159.0
18.24,4154.0
18.2425,4158.0
18.245,4151.0
18.2475,4156.0
18.25,4142.0
18.2525,4184.0
18.255,4164.0
18.2575,4155.0
18.26,4152.0
18.2625,4179.0
18.265,4170.0
18.2675,4176.0
18.27,4164.0
18.2725,4153.0
18.275,4137.0
18.2775,4158.0
18.28,4121.0
18.2825,4144.0
18.285,4103.0
18.2875,4146.0
18.29,4133.0
18.2925,4142.0
18.295,4142.0
18.2975,4167.0
18.3,4173.0
18.3025,4145.0
18.305,4122.0
18.3075,4145.0
18.31,4131.0
18.3125,4147.0
18.315,4118.0
18.3175,4127.0
18.32,4139.0
18.3225,4154.0
18.325,4126.0
18.3275,4120.0
18.33,4101.0
18.3325,4122.0
18.335,4140.0
18.3375,4151.0
18.34,4144.0
18.3425,4145.0
18.345,4138.0
18.3475,4137.0
18.35,4115.0
18.3525,4112.0
18.355,4120.0
18.3575,4110.0
18.36,4103.0
18.3625,4082.0
18.365,4088.0
18.3675,4091.0
18.37,4098.0
18.3725,4087.0
18.375,4088.0
18.3775,4104.0
18.38,4102.0
18.3825,4115.0
18.385,4136.0
18.3875,4147.0
18.39,4134.0
18.3925,4111.0
18.395,4108.0
18.3975,4102.0
18.4,4149.0
18.4025,4244.0
18.405,4285.0
18.4075,4268.0
18.41,4254.0
18.4125,4228.0
18.415,4207.0
18.4175,4204.0
18.42,4217.0
18.4225,4237.0
18.425,4229.0
18.4275,4243.0
18.43,4256.0
18.4325,4249.0
18.435,4247.0
18.4375,4240.0
18.44,4218.0
18.4425,4213.0
18.445,4169.0
18.4475,4125.0
18.45,4096.0
18.4525,4076.0
18.455,4070.0
18.4575,4062.0
18.46,4056.0
18.4625,4090.0
18.465,4097.0
18.4675,4047.0
18.47,4032.0
18.4725,4039.0
18.475,4048.0
18.4775,4065.0
18.48,4032.0
18.4825,4059.0
18.485,4058.0
18.4875,4031.0
18.49,4016.0
18.4925,3995.0
18.495,4012.0
18.4975,4042.0
18.5,4026.0
18.5025,4042.0
18.505,4000.0
18.5075,4020.0
18.51,4028.0
18.5125,4032.0
18.515,4013.0
18.5175,3974.0
18.52,3913.0
18.5225,3794.0
18.525,3587.0
18.5275,3429.0
18.53,3384.0
18.5325,3554.0
18.535,3873.0
18.5375,4397.0
18.54,4993.0
18.5425,5739.0
18.545,5941.0
18.5475,5396.0
18.55,4706.0
18.5525,4298.0
18.555,4160.0
18.5575,3915.0
18.56,3513.0
18.5625,3147.0
18.565,2339.0
18.5675,1911.0
18.57,1644.0
18.5725,1840.0
18.575,1985.0
18.5775,2153.0
18.58,2298.0
18.5825,2567.0
18.585,2866.0
18.5875,3108.0
18.59,3402.0
18.5925,3683.0
18.595,4050.0
18.5975,4278.0
18.6,4400.0
18.6025,4541.0
18.605,4596.0
18.6075,4615.0
18.61,4615.0
18.6125,4605.0
18.615,4629.0
18.6175,4650.0
18.62,4659.0
18.6225,4628.0
18.625,4600.0
18.6275,4615.0
18.63,4608.0
18.6325,4618.0
18.635,4618.0
18.6375,4605.0
18.64,4575.0
18.6425,4571.0
18.645,4532.0
18.6475,4527.0
18.65,4503.0
18.6525,4491.0
18.655,4476.0
18.6575,4471.0
18.66,4472.0
18.6625,4475.0
18.665,4490.0
18.6675,4485.0
18.67,4484.0
18.6725,4454.0
18.675,4472.0
18.6775,4472.0
18.68,4439.0
18.6825,4466.0
18.685,4454.0
18.6875,4442.0
18.69,4430.0
18.6925,4443.0
18.695,4443.0
18.6975,4463.0
18.7,4465.0
18.7025,4502.0
18.705,4479.0
18.7075,4503.0
18.71,4496.0
18.7125,4483.0
18.715,4484.0
18.7175,4523.0
18.72,4546.0
18.7225,4529.0
18.725,4531.0
18.7275,4524.0
18.73,4543.0
18.7325,4547.0
18.735,4552.0
18.7375,4537.0
18.74,4529.0
18.7425,4550.0
18.745,4547.0
18.7475,4529.0
18.75,4528.0
18.7525,4529.0
18.755,4477.0
18.7575,4468.0
18.76,4468.0
18.7625,4426.0
18.765,4420.0
18.7675,4390.0
18.77,4358.0
18.7725,4359.0
18.775,4350.0
18.7775,4320.0
18.78,4265.0
18.7825,4234.0
18.785,4179.0
18.7875,4158.0
18.79,4115.0
18.7925,4076.0
18.795,4019.0
18.7975,3977.0
18.8,3905.0
18.8025,3847.0
18.805,3826.0
18.8075,3772.0
18.81,3702.0
18.8125,3661.0
18.815,3618.0
18.8175,3552.0
18.82,3528.0
18.8225,3500.0
18.825,3468.0
18.8275,3430.0
18.83,3370.0
18.8325,3375.0
18.835,3327.0
18.8375,3317.0
18.84,3314.0
18.8425,3300.0
18.845,3294.0
18.8475,3294.0
18.85,3253.0
18.8525,3246.0
18.855,3246.0
18.8575,3276.0
18.86,3264.0
18.8625,3232.0
18.865,3200.0
18.8675,3211.0
18.87,3223.0
18.8725,3262.0
18.875,3291.0
18.8775,3294.0
18.88,3293.0
18.8825,3312.0
18.885,3312.0
18.8875,3315.0
18.89,3323.0
18.8925,3348.0
18.895,3334.0
18.8975,3370.0
18.9,3371.0
18.9025,3371.0
18.905,3352.0
18.9075,3353.0
18.91,3372.0
18.9125,3358.0
18.915,3407.0
18.9175,3392.0
18.92,3416.0
18.9225,3402.0
18.925,3405.0
18.9275,3390.0
18.93,3376.0
18.9325,3404.0
18.935,3408.0
18.9375,3410.0
18.94,3414.0
18.9425,3425.0
18.945,3431.0
18.9475,3413.0
18.95,3436.0
18.9525,3442.0
18.955,3463.0
18.9575,3499.0
18.96,3459.0
18.9625,3484.0
18.965,3505.0
18.9675,3494.0
18.97,3477.0
18.9725,3471.0
18.975,3507.0
18.9775,3525.0
18.98,3528.0
18.9825,3541.0
18.985,3537.0
18.9875,3521.0
18.99,3540.0
18.9925,3568.0
18.995,3594.0
18.9975,3593.0
19.0,3604.0
19.0025,3621.0
19.005,3621.0
19.0075,3598.0
19.01,3623.0
19.0125,3642.0
19.015,3657.0
19.0175,3685.0
19.02,3660.0
19.0225,3657.0
19.025,3667.0
19.0275,3650.0
19.03,3632.0
19.0325,3670.0
19.035,3690.0
19.0375,3670.0
19.04,3672.0
19.0425,3660.0
19.045,3639.0
19.0475,3637.0
19.05,3627.0
19.0525,3649.0
19.055,3699.0
19.0575,3668.0
19.06,3692.0
19.0625,3700.0
19.065,3700.0
19.0675,3714.0
19.07,3724.0
19.0725,3749.0
19.075,3724.0
19.0775,3707.0
19.08,3711.0
19.0825,3696.0
19.085,3722.0
19.0875,3708.0
19.09,3707.0
19.0925,3733.0
19.095,3714.0
19.0975,3750.0
19.1,3721.0
19.1025,3744.0
19.105,3756.0
19.1075,3755.0
19.11,3752.0
19.1125,3755.0
19.115,3743.0
19.1175,3718.0
19.12,3740.0
19.1225,3720.0
19.125,3751.0
19.1275,3759.0
19.13,3751.0
19.1325,3761.0
19.135,3760.0
19.1375,3787.0
19.14,3798.0
19.1425,3787.0
19.145,3829.0
19.1475,3816.0
19.15,3813.0
19.1525,3795.0
19.155,3759.0
19.1575,3767.0
19.16,3794.0
19.1625,3767.0
19.165,3795.0
19.1675,3792.0
19.17,3795.0
19.1725,3745.0
19.175,3771.0
19.1775,3803.0
19.18,3832.0
19.1825,3799.0
19.185,3810.0
19.1875,3804.0
19.19,3805.0
19.1925,3824.0
19.195,3804.0
19.1975,3841.0
19.2,3840.0
19.2025,3836.0
19.205,3862.0
19.2075,3858.0
19.21,3832.0
19.2125,3894.0
19.215,3896.0
19.2175,3902.0
19.22,3896.0
19.2225,3885.0
19.225,3925.0
19.2275,3951.0
19.23,3958.0
19.2325,3961.0
19.235,3976.0
19.2375,3992.0
19.24,4004.0
19.2425,3995.0
19.245,3976.0
19.2475,3997.0
19.25,4016.0
19.2525,4034.0
19.255,4043.0
19.2575,4049.0
19.26,4047.0
19.2625,4049.0
19.265,4035.0
19.2675,4065.0
19.27,4025.0
19.2725,4057.0
19.275,4061.0
19.2775,4071.0
19.28,4102.0
19.2825,4122.0
19.285,4093.0
19.2875,4099.0
19.29,4097.0
19.2925,4092.0
19.295,4117.0
19.2975,4114.0
19.3,4092.0
19.3025,4085.0
19.305,4075.0
19.3075,4096.0
19.31,4091.0
19.3125,4109.0
19.315,4150.0
19.3175,4175.0
19.32,4204.0
19.3225,4137.0
19.325,4141.0
19.3275,4164.0
19.33,4148.0
19.3325,4164.0
19.335,4119.0
19.3375,4158.0
19.34,4149.0
19.3425,4158.0
19.345,4155.0
19.3475,4130.0
19.35,4155.0
19.3525,4171.0
19.355,4175.0
19.3575,4192.0
19.36,4208.0
19.3625,4198.0
19.365,4221.0
19.3675,4223.0
19.37,4195.0
19.3725,4177.0
19.375,4174.0
19.3775,4226.0
19.38,4234.0
19.3825,4217.0
19.385,4211.0
19.3875,4227.0
19.39,4199.0
19.3925,4215.0
19.395,4280.0
19.3975,4279.0
19.4,4284.0
19.4025,4275.0
19.405,4256.0
19.4075,4203.0
19.41,4210.0
19.4125,4253.0
19.415,4278.0
19.4175,4293.0
19.42,4272.0
19.4225,4310.0
19.425,4291.0
19.4275,4233.0
19.43,4225.0
19.4325,4210.0
19.435,4163.0
19.4375,4139.0
19.44,4139.0
19.4425,4132.0
19.445,4112.0
19.4475,4080.0
19.45,4055.0
19.4525,4058.0
19.455,4026.0
19.4575,4102.0
19.46,4072.0
19.4625,4045.0
19.465,4039.0
19.4675,4028.0
19.47,4050.0
19.4725,4027.0
19.475,4032.0
19.4775,4018.0
19.48,3988.0
19.4825,4016.0
19.485,4010.0
19.4875,4018.0
19.49,4026.0
19.4925,4018.0
19.495,4016.0
19.4975,4018.0
19.5,4016.0
19.5025,4021.0
19.505,4042.0
19.5075,4056.0
19.51,4032.0
19.5125,3992.0
19.515,3886.0
19.5175,3727.0
19.52,3617.0
19.5225,3567.0
19.525,3677.0
19.5275,4016.0
19.53,4460.0
19.5325,5017.0
19.535,5664.0
19.5375,6315.0
19.54,6248.0
19.5425,5508.0
19.545,4744.0
19.5475,4394.0
19.55,4081.0
19.5525,3694.0
19.555,3133.0
19.5575,2729.0
19.56,2102.0
19.5625,1700.0
19.565,1594.0
19.5675,1817.0
19.57,2100.0
19.5725,2261.0
19.575,2359.0
19.5775,2528.0
19.58,2865.0
19.5825,3085.0
19.585,3372.0
19.5875,3629.0
19.59,3966.0
19.5925,4262.0
19.595,4427.0
19.5975,4502.0
19.6,4645.0
19.6025,4693.0
19.605,4710.0
19.6075,4693.0
19.61,4682.0
19.6125,4671.0
19.615,4662.0
19.6175,4662.0
19.62,4642.0
19.6225,4661.0
19.625,4679.0
19.6275,4692.0
19.63,4679.0
19.6325,4656.0
19.635,4662.0
19.6375,4671.0
19.64,4648.0
19.6425,4634.0
19.645,4612.0
19.6475,4620.0
19.65,4610.0
19.6525,4649.0
19.655,4623.0
19.6575,4636.0
19.66,4603.0
19.6625,4589.0
19.665,4590.0
19.6675,4581.0
19.67,4584.0
19.6725,4573.0
19.675,4584.0
19.6775,4592.0
19.68,4631.0
19.6825,4620.0
19.685,4603.0
19.6875,4596.0
19.69,4629.0
19.6925,4641.0
19.695,4629.0
19.6975,4658.0
19.7,4633.0
19.7025,4648.0
19.705,4669.0
19.7075,4677.0
19.71,4697.0
19.7125,4712.0
19.715,4729.0
19.7175,4763.0
19.72,4777.0
19.7225,4776.0
19.725,4761.0
19.7275,4764.0
19.73,4783.0
19.7325,4796.0
19.735,4781.0
19.7375,4805.0
19.74,4756.0
19.7425,4762.0
19.745,4766.0
19.7475,4757.0
19.75,4780.0
19.7525,4767.0
19.755,4722.0
19.7575,4715.0
19.76,4693.0
19.7625,4675.0
19.765,4631.0
19.7675,4569.0
19.77,4546.0
19.7725,4530.0
19.775,4502.0
19.7775,4464.0
19.78,4403.0
19.7825,4361.0
19.785,4309.0
19.7875,4250.0
19.79,4204.0
19.7925,4155.0
19.795,4130.0
19.7975,4076.0
19.8,4039.0
19.8025,3965.0
19.805,3926.0
19.8075,3884.0
19.81,3864.0
19.8125,3825.0
19.815,3842.0
19.8175,3848.0
19.82,3786.0
19.8225,3774.0
19.825,3766.0
19.8275,3752.0
19.83,3709.0
19.8325,3702.0
19.835,3675.0
19.8375,3638.0
19.84,3638.0
19.8425,3652.0
19.845,3648.0
19.8475,3638.0
19.85,3645.0
19.8525,3641.0
19.855,3648.0
19.8575,3676.0
19.86,3681.0
19.8625,3674.0
19.865,3655.0
19.8675,3669.0
19.87,3695.0
19.8725,3736.0
19.875,3755.0
19.8775,3765.0
19.88,3779.0
19.8825,3756.0
19.885,3775.0
19.8875,3772.0
19.89,3793.0
19.8925,3822.0
19.895,3845.0
19.8975,3836.0
19.9,3851.0
19.9025,3869.0
19.905,3894.0
19.9075,3922.0
19.91,3925.0
19.9125,3878.0
19.915,3887.0
19.9175,3922.0
19.92,3913.0
19.9225,3930.0
19.925,3951.0
19.9275,3989.0
19.93,4019.0
19.9325,3990.0
19.935,4012.0
19.9375,4022.0
19.94,4043.0
19.9425,4063.0
19.945,4060.0
19.9475,4048.0
19.95,4072.0
19.9525,4069.0
19.955,4083.0
19.9575,4090.0
19.96,4081.0
19.9625,4042.0
19.965,4059.0
19.9675,4060.0
19.97,4071.0
19.9725,4091.0
19.975,4106.0
19.9775,4142.0
19.98,4110.0
19.9825,4097.0
19.985,4101.0
19.9875,4106.0
19.99,4124.0
19.9925,4151.0
19.995,4128.0
19.9975,4127.0
20.0,4133.0
20.0025,4141.0
20.005,4155.0
20.0075,4146.0
20.01,4149.0
20.0125,4123.0
20.015,4123.0
20.0175,4100.0
20.02,4123.0
20.0225,4133.0
20.025,4144.0
20.0275,4133.0
20.03,4160.0
20.0325,4133.0
20.035,4130.0
20.0375,4123.0
20.04,4129.0
20.0425,4124.0
20.045,4120.0
20.0475,4095.0
20.05,4083.0
20.0525,4055.0
20.055,4097.0
20.0575,4110.0
20.06,4125.0
20.0625,4126.0
20.065,4100.0
20.0675,4089.0
20.07,4093.0
20.0725,4073.0
20.075,4072.0
20.0775,4106.0
20.08,4088.0
20.0825,4094.0
20.085,4088.0
20.0875,4104.0
20.09,4117.0
20.0925,4096.0
20.095,4088.0
20.0975,4084.0
20.1,4105.0
20.1025,4095.0
20.105,4095.0
20.1075,4061.0
20.11,4033.0
20.1125,4071.0
20.115,4040.0
20.1175,4053.0
20.12,4070.0
20.1225,4057.0
20.125,4077.0
20.1275,4077.0
20.13,4055.0
20.1325,4036.0
20.135,4040.0
20.1375,4081.0
20.14,4049.0
20.1425,4081.0
20.145,4116.0
20.1475,4104.0
20.15,4102.0
20.1525,4079.0
20.155,4069.0
20.1575,4100.0
20.16,4129.0
20.1625,4129.0
20.165,4139.0
20.1675,4122.0
20.17,4157.0
20.1725,4132.0
20.175,4121.0
20.1775,4104.0
20.18,4090.0
20.1825,4104.0
20.185,4103.0
20.1875,4117.0
20.19,4124.0
20.1925,4130.0
20.195,4129.0
20.1975,4134.0
20.2,4128.0
20.2025,4135.0
20.205,4120.0
20.2075,4097.0
20.21,4112.0
20.2125,4096.0
20.215,4082.0
20.2175,4099.0
20.22,4090.0
20.2225,4093.0
20.225,4084.0
20.2275,4079.0
20.23,4067.0
20.2325,4083.0
20.235,4088.0
20.2375,4085.0
20.24,4089.0
20.2425,4104.0
20.245,4117.0
20.2475,4110.0
20.25,4084.0
20.2525,4106.0
20.255,4084.0
20.2575,4082.0
20.26,4059.0
20.2625,4071.0
20.265,4109.0
20.2675,4085.0
20.27,4086.0
20.2725,4080.0
20.275,4084.0
20.2775,4068.0
20.28,4117.0
20.2825,4162.0
20.285,4186.0
20.2875,4192.0
20.29,4175.0
20.2925,4147.0
20.295,4141.0
20.2975,4137.0
20.3,4155.0
20.3025,4192.0
20.305,4187.0
20.3075,4175.0
20.31,4211.0
20.3125,4205.0
20.315,4163.0
20.3175,4169.0
20.32,4154.0
20.3225,4103.0
20.325,4062.0
20.3275,4037.0
20.33,4029.0
20.3325,3993.0
20.335,3943.0
20.3375,3961.0
20.34,3919.0
20.3425,3927.0
20.345,3969.0
20.3475,3972.0
20.35,3968.0
20.3525,3954.0
20.355,3951.0
20.3575,3952.0
20.36,3946.0
20.3625,3931.0
20.365,3943.0
20.3675,3922.0
20.37,3975.0
20.3725,3990.0
20.375,4003.0
20.3775,3987.0
20.38,3977.0
20.3825,4012.0
20.385,4012.0
20.3875,4026.0
20.39,3975.0
20.3925,3996.0
20.395,4036.0
20.3975,4010.0
20.4,3942.0
20.4025,3872.0
20.405,3774.0
20.4075,3633.0
20.41,3564.0
20.4125,3596.0
20.415,3808.0
20.4175,4180.0
20.42,4759.0
20.4225,5312.0
20.425,6012.0
20.4275,6337.0
20.43,5855.0
20.4325,5024.0
20.435,4313.0
20.4375,4066.0
20.44,3658.0
20.4425,3239.0
20.445,2788.0
20.4475,2343.0
20.45,1764.0
20.4525,1563.0
20.455,1632.0
20.4575,1898.0
20.46,2071.0
20.4625,2167.0
20.465,2312.0
20.4675,2557.0
20.47,2837.0
20.4725,3099.0
20.475,3386.0
20.4775,3715.0
20.48,4078.0
20.4825,4296.0
20.485,4401.0
20.4875,4568.0
20.49,4627.0
20.4925,4677.0
20.495,4621.0
20.4975,4630.0
20.5,4621.0
20.5025,4610.0
20.505,4627.0
20.5075,4612.0
20.51,4635.0
20.5125,4635.0
20.515,4648.0
20.5175,4630.0
20.52,4643.0
20.5225,4626.0
20.525,4601.0
20.5275,4600.0
20.53,4593.0
20.5325,4579.0
20.535,4582.0
20.5375,4548.0
20.54,4542.0
20.5425,4515.0
20.545,4510.0
20.5475,4550.0
20.55,4545.0
20.5525,4528.0
20.555,4496.0
20.5575,4512.0
20.56,4533.0
20.5625,4526.0
20.565,4526.0
20.5675,4490.0
20.57,4504.0
20.5725,4484.0
20.575,4520.0
20.5775,4513.0
20.58,4519.0
20.5825,4488.0
20.585,4525.0
20.5875,4510.0
20.59,4519.0
20.5925,4514.0
20.595,4544.0
20.5975,4537.0
20.6,4543.0
20.6025,4544.0
20.605,4552.0
20.6075,4554.0
20.61,4590.0
20.6125,4580.0
20.615,4604.0
20.6175,4596.0
20.62,4560.0
20.6225,4572.0
20.625,4571.0
20.6275,4579.0
20.63,4555.0
20.6325,4556.0
20.635,4531.0
20.6375,4529.0
20.64,4517.0
20.6425,4512.0
20.645,4451.0
20.6475,4428.0
20.65,4434.0
20.6525,4370.0
20.655,4349.0
20.6575,4323.0
20.66,4328.0
20.6625,4239.0
20.665,4180.0
20.6675,4114.0
20.67,4081.0
20.6725,4045.0
20.675,3937.0
20.6775,3858.0
20.68,3828.0
20.6825,3788.0
20.685,3718.0
20.6875,3680.0
20.69,3598.0
20.6925,3548.0
20.695,3518.0
20.6975,3498.0
20.7,3487.0
20.7025,3449.0
20.705,3432.0
20.7075,3404.0
20.71,3366.0
20.7125,3349.0
20.715,3355.0
20.7175,3333.0
20.72,3361.0
20.7225,3326.0
20.725,3296.0
20.7275,3292.0
20.73,3315.0
20.7325,3319.0
20.735,3308.0
20.7375,3316.0
20.74,3322.0
20.7425,3298.0
20.745,3320.0
20.7475,3334.0
20.75,3358.0
20.7525,3371.0
20.755,3376.0
20.7575,3394.0
20.76,3390.0
20.7625,3351.0
20.765,3369.0
20.7675,3391.0
20.77,3380.0
20.7725,3378.0
20.775,3387.0
20.7775,3398.0
20.78,3398.0
20.7825,3394.0
20.785,3403.0
20.7875,3403.0
20.79,3421.0
20.7925,3433.0
20.795,3438.0
20.7975,3419.0
20.8,3440.0
20.8025,3442.0
20.805,3467.0
20.8075,3468.0
20.81,3502.0
20.8125,3538.0
20.815,3547.0
20.8175,3551.0
20.82,3568.0
20.8225,3603.0
20.825,3621.0
20.8275,3635.0
20.83,3620.0
20.8325,3602.0
20.835,3590.0
20.8375,3610.0
20.84,3636.0
20.8425,3660.0
20.845,3718.0
20.8475,3709.0
20.85,3710.0
20.8525,3713.0
20.855,3672.0
20.8575,3697.0
20.86,3738.0
20.8625,3735.0
20.865,3732.0
20.8675,3749.0
20.87,3785.0
20.8725,3801.0
20.875,3822.0
20.8775,3845.0
20.88,3858.0
20.8825,3850.0
20.885,3846.0
20.8875,3855.0
20.89,3853.0
20.8925,3866.0
20.895,3874.0
20.8975,3869.0
20.9,3880.0
20.9025,3877.0
20.905,3881.0
20.9075,3856.0
20.91,3834.0
20.9125,3857.0
20.915,3869.0
20.9175,3847.0
20.92,3844.0
20.9225,3853.0
20.925,3841.0
20.9275,3842.0
20.93,3877.0
20.9325,3875.0
20.935,3878.0
20.9375,3845.0
20.94,3849.0
20.9425,3872.0
20.945,3868.0
20.9475,3843.0
20.95,3840.0
20.9525,3829.0
20.955,3825.0
20.9575,3852.0
20.96,3856.0
20.9625,3848.0
20.965,3823.0
20.9675,3837.0
20.97,3820.0
20.9725,3825.0
20.975,3850.0
20.9775,3840.0
20.98,3845.0
20.9825,3850.0
20.985,3835.0
20.9875,3824.0
20.99,3841.0
20.9925,3858.0
20.995,3863.0
20.9975,3859.0
21.0,3886.0
21.0025,3869.0
21.005,3897.0
21.0075,3898.0
21.01,3887.0
21.0125,3910.0
21.015,3902.0
21.0175,3894.0
21.02,3897.0
21.0225,3895.0
21.025,3924.0
21.0275,3935.0
21.03,3929.0
21.0325,3926.0
21.035,3935.0
21.0375,3943.0
21.04,3928.0
21.0425,3932.0
21.045,3886.0
21.0475,3889.0
21.05,3892.0
21.0525,3878.0
21.055,3866.0
21.0575,3894.0
21.06,3883.0
21.0625,3885.0
21.065,3895.0
21.0675,3915.0
21.07,3869.0
21.0725,3901.0
21.075,3870.0
21.0775,3865.0
21.08,3865.0
21.0825,3889.0
21.085,3906.0
21.0875,3867.0
21.09,3867.0
21.0925,3921.0
21.095,3905.0
21.0975,3896.0
21.1,3893.0
21.1025,3914.0
21.105,3920.0
21.1075,3912.0
21.11,3923.0
21.1125,3947.0
21.115,3943.0
21.1175,3943.0
21.12,3939.0
21.1225,3940.0
21.125,3939.0
21.1275,3935.0
21.13,3944.0
21.1325,3951.0
21.135,3967.0
21.1375,3960.0
21.14,3953.0
21.1425,3946.0
21.145,3945.0
21.1475,3960.0
21.15,3964.0
21.1525,3979.0
21.155,4015.0
21.1575,3999.0
21.16,3980.0
21.1625,3970.0
21.165,3941.0
21.1675,3937.0
21.17,3961.0
21.1725,3969.0
21.175,3986.0
21.1775,4001.0
21.18,4010.0
21.1825,4006.0
21.185,4013.0
21.1875,4019.0
21.19,4015.0
21.1925,4013.0
21.195,4012.0
21.1975,4025.0
21.2,4036.0
21.2025,4031.0
21.205,4092.0
21.2075,4132.0
21.21,4139.0
21.2125,4148.0
21.215,4134.0
21.2175,4094.0
21.22,4088.0
21.2225,4078.0
21.225,4116.0
21.2275,4125.0
21.23,4098.0
21.2325,4133.0
21.235,4130.0
21.2375,4102.0
21.24,4103.0
21.2425,4092.0
21.245,4063.0
21.2475,4029.0
21.25,3991.0
21.2525,3987.0
21.255,3955.0
21.2575,3930.0
21.26,3909.0
21.2625,3909.0
21.265,3891.0
21.2675,3898.0
21.27,3913.0
21.2725,3911.0
21.275,3887.0
21.2775,3913.0
21.28,3893.0
21.2825,3941.0
21.285,3961.0
21.2875,3931.0
21.29,3914.0
21.2925,3939.0
21.295,3929.0
21.2975,3912.0
21.3,3913.0
21.3025,3881.0
21.305,3903.0
21.3075,3906.0
21.31,3901.0
21.3125,3929.0
21.315,3964.0
21.3175,4003.0
21.32,3994.0
21.3225,3958.0
21.325,3874.0
21.3275,3753.0
21.33,3642.0
21.3325,3549.0
21.335,3590.0
21.3375,3814.0
21.34,4203.0
21.3425,4754.0
21.345,5322.0
21.3475,5984.0
21.35,6169.0
21.3525,5598.0
21.355,4737.0
21.3575,4110.0
21.36,3910.0
21.3625,3522.0
21.365,3109.0
21.3675,2715.0
21.37,2250.0
21.3725,1777.0
21.375,1561.0
21.3775,1679.0
21.38,1908.0
21.3825,2067.0
21.385,2173.0
21.3875,2365.0
21.39,2643.0
21.3925,2849.0
21.395,3134.0
21.3975,3443.0
21.4,3831.0
21.4025,4141.0
21.405,4329.0
21.4075,4424.0
21.41,4567.0
21.4125,4609.0
21.415,4625.0
21.4175,4612.0
21.42,4579.0
21.4225,4586.0
21.425,4591.0
21.4275,4593.0
21.43,4573.0
21.4325,4585.0
21.435,4584.0
21.4375,4586.0
21.44,4578.0
21.4425,4545.0
21.445,4559.0
21.4475,4548.0
21.45,4549.0
21.4525,4543.0
21.455,4554.0
21.4575,4582.0
21.46,4549.0
21.4625,4563.0
21.465,4542.0
21.4675,4555.0
21.47,4518.0
21.4725,4514.0
21.475,4528.0
21.4775,4509.0
21.48,4510.0
21.4825,4533.0
21.485,4551.0
21.4875,4542.0
21.49,4563.0
21.4925,4570.0
21.495,4572.0
21.4975,4552.0
21.5,4579.0
21.5025,4569.0
21.505,4564.0
21.5075,4546.0
21.51,4559.0
21.5125,4573.0
21.515,4575.0
21.5175,4577.0
21.52,4583.0
21.5225,4594.0
21.525,4564.0
21.5275,4575.0
21.53,4592.0
21.5325,4616.0
21.535,4648.0
21.5375,4635.0
21.54,4637.0
21.5425,4654.0
21.545,4654.0
21.5475,4636.0
21.55,4633.0
21.5525,4662.0
21.555,4672.0
21.5575,4667.0
21.56,4639.0
21.5625,4595.0
21.565,4595.0
21.5675,4567.0
21.57,4542.0
21.5725,4513.0
21.575,4463.0
21.5775,4429.0
21.58,4383.0
21.5825,4363.0
21.585,4302.0
21.5875,4254.0
21.59,4198.0
21.5925,4155.0
21.595,4107.0
21.5975,4045.0
21.6,3990.0
21.6025,3925.0
21.605,3887.0
21.6075,3842.0
21.61,3783.0
21.6125,3754.0
21.615,3723.0
21.6175,3689.0
21.62,3653.0
21.6225,3602.0
21.625,3580.0
21.6275,3553.0
21.63,3560.0
21.6325,3540.0
21.635,3506.0
21.6375,3483.0
21.64,3448.0
21.6425,3452.0
21.645,3478.0
21.6475,3462.0
21.65,3450.0
21.6525,3456.0
21.655,3454.0
21.6575,3450.0
21.66,3427.0
21.6625,3439.0
21.665,3430.0
21.6675,3408.0
21.67,3417.0
21.6725,3425.0
21.675,3463.0
21.6775,3458.0
21.68,3453.0
21.6825,3480.0
21.685,3488.0
21.6875,3475.0
21.69,3507.0
21.6925,3540.0
21.695,3541.0
21.6975,3574.0
21.7,3559.0
21.7025,3578.0
21.705,3572.0
21.7075,3594.0
21.71,3603.0
21.7125,3599.0
21.715,3617.0
21.7175,3616.0
21.72,3621.0
21.7225,3630.0
21.725,3658.0
21.7275,3685.0
21.73,3693.0
21.7325,3705.0
21.735,3713.0
21.7375,3712.0
21.74,3722.0
21.7425,3739.0
21.745,3757.0
21.7475,3736.0
21.75,3761.0
21.7525,3778.0
21.755,3784.0
21.7575,3786.0
21.76,3785.0
21.7625,3811.0
21.765,3817.0
21.7675,3795.0
21.77,3806.0
21.7725,3814.0
21.775,3831.0
21.7775,3831.0
21.78,3846.0
21.7825,3848.0
21.785,3844.0
21.7875,3833.0
21.79,3866.0
