104.439,1850.0
104.44,1891.0
104.441,1989.0
104.442,2114.0
104.443,2153.0
104.444,2180.0
104.445,2141.0
104.446,1927.0
104.447,1855.0
104.448,1907.0
104.449,2012.0
104.45,2150.0
104.451,2153.0
104.452,2150.0
104.453,2096.0
104.454,1865.0
104.455,1814.0
104.456,1890.0
104.457,2022.0
104.458,2147.0
104.459,2137.0
104.46,2131.0
104.461,2047.0
104.462,1846.0
104.463,1793.0
104.464,1894.0
104.465,2056.0
104.466,2166.0
104.467,2136.0
104.468,2141.0
104.469,1995.0
104.47,1853.0
104.471,1816.0
104.472,1941.0
104.473,2114.0
104.474,2198.0
104.475,2158.0
104.476,2158.0
104.477,1954.0
104.478,1866.0
104.479,1873.0
104.48,1983.0
104.481,2148.0
104.482,2211.0
104.483,2187.0
104.484,2118.0
104.485,1921.0
104.486,1828.0
104.487,1912.0
104.488,2013.0
104.489,2171.0
104.49,2226.0
104.491,2184.0
104.492,2113.0
104.493,1899.0
104.494,1829.0
104.495,1908.0
104.496,2061.0
104.497,2199.0
104.498,2216.0
104.499,2154.0
104.5,2046.0
104.501,1900.0
104.502,1841.0
104.503,1940.0
104.504,2071.0
104.505,2138.0
104.506,2059.0
104.507,1904.0
104.508,1697.0
104.509,1523.0
104.51,1541.0
104.511,1796.0
104.512,2140.0
104.513,2398.0
104.514,2490.0
104.515,2477.0
104.516,2409.0
104.517,2317.0
104.518,2384.0
104.519,2506.0
104.52,2646.0
104.521,2642.0
104.522,2551.0
104.523,2407.0
104.524,2232.0
104.525,2080.0
104.526,2119.0
104.527,2177.0
104.528,2244.0
104.529,2262.0
104.53,2151.0
104.531,2020.0
104.532,1796.0
104.533,1696.0
104.534,1753.0
104.535,1895.0
104.536,1999.0
104.537,2050.0
104.538,1999.0
104.539,1896.0
104.54,1732.0
104.541,1641.0
104.542,1777.0
104.543,1916.0
104.544,2013.0
104.545,2055.0
104.546,2011.0
104.547,1870.0
104.548,1724.0
104.549,1672.0
104.55,1816.0
104.551,1959.0
104.552,2055.0
104.553,2078.0
104.554,2016.0
104.555,1841.0
104.556,1719.0
104.557,1738.0
104.558,1868.0
104.559,1993.0
104.56,2059.0
104.561,2078.0
104.562,2008.0
104.563,1807.0
104.564,1745.0
104.565,1780.0
104.566,1893.0
104.567,2002.0
104.568,2050.0
104.569,2048.0
104.57,1967.0
104.571,1764.0
104.572,1721.0
104.573,1786.0
104.574,1925.0
104.575,2018.0
104.576,2044.0
104.577,2027.0
104.578,1889.0
104.579,1732.0
104.58,1710.0
104.581,1803.0
104.582,1939.0
104.583,2024.0
104.584,2048.0
104.585,2034.0
104.586,1829.0
104.587,1718.0
104.588,1718.0
104.589,1821.0
104.59,1977.0
104.591,2043.0
104.592,2056.0
104.593,2025.0
104.594,1816.0
104.595,1744.0
104.596,1781.0
104.597,1898.0
104.598,2044.0
104.599,2095.0
104.6,2109.0
104.601,2075.0
104.602,1843.0
104.603,1807.0
104.604,1880.0
104.605,2015.0
104.606,2164.0
104.607,2188.0
104.608,2180.0
104.609,2130.0
104.61,1907.0
104.611,1871.0
104.612,1965.0
104.613,2121.0
104.614,2248.0
104.615,2249.0
104.616,2238.0
104.617,2117.0
104.618,1958.0
104.619,1916.0
104.62,2017.0
104.621,2187.0
104.622,2281.0
104.623,2276.0
104.624,2236.0
104.625,2067.0
104.626,1944.0
104.627,1934.0
104.628,2042.0
104.629,2218.0
104.63,2301.0
104.631,2286.0
104.632,2201.0
104.633,2012.0
104.634,1893.0
104.635,1959.0
104.636,2061.0
104.637,2220.0
104.638,2265.0
104.639,2264.0
104.64,2168.0
104.641,1976.0
104.642,1868.0
104.643,1953.0
104.644,2084.0
104.645,2228.0
104.646,2251.0
104.647,2211.0
104.648,2100.0
104.649,1926.0
104.65,1835.0
104.651,1945.0
104.652,2078.0
104.653,2215.0
104.654,2224.0
104.655,2178.0
104.656,2058.0
104.657,1901.0
104.658,1813.0
104.659,1948.0
104.66,2091.0
104.661,2219.0
104.662,2232.0
104.663,2169.0
104.664,2014.0
104.665,1871.0
104.666,1872.0
104.667,1983.0
104.668,2102.0
104.669,2214.0
104.67,2211.0
104.671,2142.0
104.672,1978.0
104.673,1866.0
104.674,1896.0
104.675,2025.0
104.676,2119.0
104.677,2213.0
104.678,2185.0
104.679,2128.0
104.68,1939.0
104.681,1834.0
104.682,1910.0
104.683,2053.0
104.684,2127.0
104.685,2189.0
104.686,2164.0
104.687,2080.0
104.688,1897.0
104.689,1805.0
104.69,1920.0
104.691,2068.0
104.692,2132.0
104.693,2197.0
104.694,2158.0
104.695,2019.0
104.696,1877.0
104.697,1819.0
104.698,1954.0
104.699,2087.0
104.7,2145.0
104.701,2191.0
104.702,2150.0
104.703,1962.0
104.704,1857.0
104.705,1834.0
104.706,1981.0
104.707,2114.0
104.708,2145.0
104.709,2201.0
104.71,2130.0
104.711,1906.0
104.712,1853.0
104.713,1922.0
104.714,2014.0
104.715,2137.0
104.716,2137.0
104.717,2161.0
104.718,2100.0
104.719,1874.0
104.72,1837.0
104.721,1921.0
104.722,2034.0
104.723,2149.0
104.724,2131.0
104.725,2147.0
104.726,2021.0
104.727,1840.0
104.728,1828.0
104.729,1943.0
104.73,2063.0
104.731,2154.0
104.732,2129.0
104.733,2137.0
104.734,1979.0
104.735,1840.0
104.736,1826.0
104.737,1946.0
104.738,2092.0
104.739,2178.0
104.74,2130.0
104.741,2134.0
104.742,1903.0
104.743,1811.0
104.744,1861.0
104.745,1969.0
104.746,2114.0
104.747,2184.0
104.748,2150.0
104.749,2106.0
104.75,1874.0
104.751,1814.0
104.752,1873.0
104.753,2006.0
104.754,2140.0
104.755,2187.0
104.756,2136.0
104.757,2082.0
104.758,1855.0
104.759,1790.0
104.76,1880.0
104.761,2046.0
104.762,2174.0
104.763,2195.0
104.764,2118.0
104.765,2028.0
104.766,1835.0
104.767,1780.0
104.768,1907.0
104.769,2082.0
104.77,2189.0
104.771,2192.0
104.772,2097.0
104.773,1947.0
104.774,1835.0
104.775,1791.0
104.776,1920.0
104.777,2096.0
104.778,2183.0
104.779,2168.0
104.78,2042.0
104.781,1884.0
104.782,1771.0
104.783,1848.0
104.784,1928.0
104.785,2122.0
104.786,2180.0
104.787,2156.0
104.788,2051.0
104.789,1876.0
104.79,1793.0
104.791,1867.0
104.792,1976.0
104.793,2150.0
104.794,2182.0
104.795,2166.0
104.796,2074.0
104.797,1891.0
104.798,1799.0
104.799,1925.0
104.8,2055.0
104.801,2201.0
104.802,2213.0
104.803,2179.0
104.804,2027.0
104.805,1883.0
104.806,1819.0
104.807,1944.0
104.808,2052.0
104.809,2197.0
104.81,2197.0
104.811,2166.0
104.812,2005.0
104.813,1829.0
104.814,1841.0
104.815,1981.0
104.816,2083.0
104.817,2205.0
104.818,2199.0
104.819,2142.0
104.82,1948.0
104.821,1817.0
104.822,1873.0
104.823,1986.0
104.824,2088.0
104.825,2189.0
104.826,2176.0
104.827,2106.0
104.828,1923.0
104.829,1827.0
104.83,1883.0
104.831,1990.0
104.832,2003.0
104.833,1985.0
104.834,1879.0
104.835,1740.0
104.836,1607.0
104.837,1673.0
104.838,1953.0
104.839,2293.0
104.84,2455.0
104.841,2604.0
104.842,2630.0
104.843,2519.0
104.844,2400.0
104.845,2373.0
104.846,2466.0
104.847,2515.0
104.848,2504.0
104.849,2500.0
104.85,2423.0
104.851,2164.0
104.852,2008.0
104.853,1968.0
104.854,2028.0
104.855,2101.0
104.856,2059.0
104.857,2052.0
104.858,1948.0
104.859,1700.0
104.86,1614.0
104.861,1661.0
104.862,1761.0
104.863,1914.0
104.864,1928.0
104.865,1950.0
104.866,1879.0
104.867,1655.0
104.868,1625.0
104.869,1691.0
104.87,1823.0
104.871,1953.0
104.872,1945.0
104.873,1964.0
104.874,1857.0
104.875,1672.0
104.876,1649.0
104.877,1722.0
104.878,1869.0
104.879,1995.0
104.88,1976.0
104.881,1989.0
104.882,1825.0
104.883,1688.0
104.884,1678.0
104.885,1769.0
104.886,1924.0
104.887,2019.0
104.888,1997.0
104.889,1991.0
104.89,1786.0
104.891,1663.0
104.892,1710.0
104.893,1811.0
104.894,1970.0
104.895,2044.0
104.896,2024.0
104.897,1964.0
104.898,1753.0
104.899,1671.0
104.9,1730.0
104.901,1839.0
104.902,1984.0
104.903,2039.0
104.904,1989.0
104.905,1929.0
104.906,1718.0
104.907,1638.0
104.908,1726.0
104.909,1872.0
104.91,1995.0
104.911,2031.0
104.912,1980.0
104.913,1899.0
104.914,1708.0
104.915,1643.0
104.916,1754.0
104.917,1927.0
104.918,2045.0
104.919,2072.0
104.92,1990.0
104.921,1884.0
104.922,1745.0
104.923,1713.0
104.924,1842.0
104.925,1997.0
104.926,2119.0
104.927,2133.0
104.928,2053.0
104.929,1925.0
104.93,1799.0
104.931,1835.0
104.932,1950.0
104.933,2106.0
104.934,2208.0
104.935,2225.0
104.936,2137.0
104.937,2001.0
104.938,1890.0
104.939,1960.0
104.94,2081.0
104.941,2202.0
104.942,2287.0
104.943,2262.0
104.944,2187.0
104.945,2030.0
104.946,1926.0
104.947,2016.0
104.948,2144.0
104.949,2245.0
104.95,2303.0
104.951,2272.0
104.952,2153.0
104.953,2014.0
104.954,1931.0
104.955,2046.0
104.956,2165.0
104.957,2249.0
104.958,2300.0
104.959,2261.0
104.96,2089.0
104.961,1984.0
104.962,1932.0
104.963,2050.0
104.964,2156.0
104.965,2242.0
104.966,2286.0
104.967,2225.0
104.968,2045.0
104.969,1960.0
104.97,1955.0
104.971,2057.0
104.972,2151.0
104.973,2229.0
104.974,2253.0
104.975,2190.0
104.976,1989.0
104.977,1926.0
104.978,1970.0
104.979,2085.0
104.98,2166.0
104.981,2221.0
104.982,2221.0
104.983,2145.0
104.984,1928.0
104.985,1903.0
104.986,1967.0
104.987,2091.0
104.988,2152.0
104.989,2187.0
104.99,2191.0
104.991,2051.0
104.992,1895.0
104.993,1883.0
104.994,1973.0
104.995,2104.0
104.996,2155.0
104.997,2161.0
104.998,2161.0
104.999,1984.0
105.0,1858.0
105.001,1876.0
105.002,1982.0
105.003,2106.0
105.004,2153.0
105.005,2165.0
105.006,2124.0
105.007,1928.0
105.008,1850.0
105.009,1901.0
105.01,2013.0
105.011,2143.0
105.012,2156.0
105.013,2158.0
105.014,2113.0
105.015,1885.0
105.016,1824.0
105.017,1899.0
105.018,2030.0
105.019,2156.0
105.02,2152.0
105.021,2137.0
105.022,2070.0
105.023,1868.0
105.024,1812.0
105.025,1899.0
105.026,2051.0
105.027,2153.0
105.028,2138.0
105.029,2127.0
105.03,1986.0
105.031,1816.0
105.032,1752.0
105.033,1869.0
105.034,2037.0
105.035,2127.0
105.036,2104.0
105.037,2071.0
105.038,1899.0
105.039,1764.0
105.04,1760.0
105.041,1879.0
105.042,2049.0
105.043,2127.0
105.044,2118.0
105.045,2030.0
105.046,1837.0
105.047,1745.0
105.048,1814.0
105.049,1936.0
105.05,2104.0
105.051,2146.0
105.052,2119.0
105.053,2041.0
105.054,1832.0
105.055,1753.0
105.056,1836.0
105.057,1996.0
105.058,2139.0
105.059,2165.0
105.06,2111.0
105.061,2011.0
105.062,1821.0
105.063,1752.0
105.064,1871.0
105.065,2027.0
105.066,2166.0
105.067,2169.0
105.068,2103.0
105.069,1982.0
105.07,1826.0
105.071,1745.0
105.072,1895.0
105.073,2063.0
105.074,2181.0
105.075,2182.0
105.076,2103.0
105.077,1946.0
105.078,1791.0
105.079,1820.0
105.08,1934.0
105.081,2086.0
105.082,2187.0
105.083,2182.0
105.084,2082.0
105.085,1919.0
105.086,1783.0
105.087,1861.0
105.088,1977.0
105.089,2113.0
105.09,2204.0
105.091,2171.0
105.092,2094.0
105.093,1903.0
105.094,1810.0
105.095,1880.0
105.096,2037.0
105.097,2135.0
105.098,2200.0
105.099,2158.0
105.1,2041.0
105.101,1869.0
105.102,1786.0
105.103,1892.0
105.104,2045.0
105.105,2161.0
105.106,2188.0
105.107,2146.0
105.108,1981.0
105.109,1838.0
105.11,1770.0
105.111,1904.0
105.112,2047.0
105.113,2155.0
105.114,2182.0
105.115,2137.0
105.116,1950.0
105.117,1825.0
105.118,1832.0
105.119,1950.0
105.12,2119.0
105.121,2190.0
105.122,2180.0
105.123,2121.0
105.124,1919.0
105.125,1841.0
105.126,1902.0
105.127,2025.0
105.128,2153.0
105.129,2205.0
105.13,2207.0
105.131,2121.0
105.132,1897.0
105.133,1874.0
105.134,1928.0
105.135,2072.0
105.136,2180.0
105.137,2213.0
105.138,2198.0
105.139,2064.0
105.14,1879.0
105.141,1865.0
105.142,1945.0
105.143,2099.0
105.144,2189.0
105.145,2205.0
105.146,2187.0
105.147,1988.0
105.148,1855.0
105.149,1860.0
105.15,1952.0
105.151,2110.0
105.152,2198.0
105.153,2186.0
105.154,2156.0
105.155,1941.0
105.156,1834.0
105.157,1893.0
105.158,2006.0
105.159,2157.0
105.16,2182.0
105.161,2117.0
105.162,1965.0
105.163,1643.0
105.164,1517.0
105.165,1614.0
105.166,1883.0
105.167,2223.0
105.168,2455.0
105.169,2542.0
105.17,2547.0
105.171,2391.0
105.172,2372.0
105.173,2474.0
105.174,2651.0
105.175,2763.0
105.176,2683.0
105.177,2551.0
105.178,2381.0
105.179,2161.0
105.18,2027.0
105.181,2086.0
105.182,2209.0
105.183,2261.0
105.184,2195.0
105.185,2048.0
105.186,1843.0
105.187,1669.0
105.188,1618.0
105.189,1721.0
105.19,1896.0
105.191,1996.0
105.192,2001.0
105.193,1906.0
105.194,1712.0
105.195,1616.0
105.196,1669.0
105.197,1768.0
105.198,1949.0
105.199,2014.0
105.2,2004.0
105.201,1907.0
105.202,1720.0
105.203,1611.0
105.204,1731.0
105.205,1848.0
105.206,1993.0
105.207,2045.0
105.208,2010.0
105.209,1923.0
105.21,1739.0
105.211,1639.0
105.212,1770.0
105.213,1909.0
105.214,2035.0
105.215,2071.0
105.216,2043.0
105.217,1933.0
105.218,1735.0
105.219,1655.0
105.22,1793.0
105.221,1934.0
105.222,2056.0
105.223,2075.0
105.224,2031.0
105.225,1849.0
105.226,1710.0
105.227,1682.0
105.228,1795.0
105.229,1943.0
105.23,2061.0
105.231,2057.0
105.232,1993.0
105.233,1790.0
105.234,1674.0
105.235,1723.0
105.236,1850.0
105.237,1939.0
105.238,2040.0
105.239,2025.0
105.24,1962.0
105.241,1741.0
105.242,1661.0
105.243,1739.0
105.244,1882.0
105.245,1955.0
105.246,2045.0
105.247,2025.0
105.248,1943.0
105.249,1747.0
105.25,1689.0
105.251,1783.0
105.252,1953.0
105.253,2029.0
105.254,2093.0
105.255,2076.0
105.256,1934.0
105.257,1796.0
105.258,1762.0
105.259,1912.0
105.26,2077.0
105.261,2130.0
105.262,2186.0
105.263,2167.0
105.264,1963.0
105.265,1862.0
105.266,1900.0
105.267,2012.0
105.268,2176.0
105.269,2210.0
105.27,2242.0
105.271,2193.0
105.272,1971.0
105.273,1892.0
105.274,1982.0
105.275,2091.0
105.276,2238.0
105.277,2243.0
105.278,2259.0
105.279,2198.0
105.28,1956.0
105.281,1905.0
105.282,2000.0
105.283,2134.0
105.284,2265.0
105.285,2248.0
105.286,2256.0
105.287,2137.0
105.288,1939.0
105.289,1906.0
105.29,2003.0
105.291,2156.0
105.292,2273.0
105.293,2226.0
105.294,2228.0
105.295,2057.0
105.296,1907.0
105.297,1879.0
105.298,1998.0
105.299,2159.0
105.3,2253.0
105.301,2207.0
105.302,2194.0
105.303,1984.0
105.304,1881.0
105.305,1896.0
105.306,2014.0
105.307,2181.0
105.308,2254.0
105.309,2216.0
105.31,2148.0
105.311,1930.0
105.312,1834.0
105.313,1896.0
105.314,2030.0
105.315,2182.0
105.316,2216.0
105.317,2171.0
105.318,2107.0
105.319,1879.0
105.32,1816.0
105.321,1892.0
105.322,2054.0
105.323,2189.0
105.324,2198.0
105.325,2144.0
105.326,2037.0
105.327,1857.0
105.328,1773.0
105.329,1899.0
105.33,2086.0
105.331,2206.0
105.332,2199.0
105.333,2110.0
105.334,1973.0
105.335,1833.0
105.336,1806.0
105.337,1919.0
105.338,2116.0
105.339,2213.0
105.34,2202.0
105.341,2084.0
105.342,1916.0
105.343,1817.0
105.344,1850.0
105.345,1938.0
105.346,2145.0
105.347,2213.0
105.348,2194.0
105.349,2086.0
105.35,1905.0
105.351,1796.0
105.352,1870.0
105.353,1991.0
105.354,2162.0
105.355,2205.0
105.356,2170.0
105.357,2076.0
105.358,1865.0
105.359,1784.0
105.36,1898.0
105.361,2051.0
105.362,2179.0
105.363,2207.0
105.364,2163.0
105.365,2039.0
105.366,1855.0
105.367,1783.0
105.368,1916.0
105.369,2058.0
105.37,2186.0
105.371,2217.0
105.372,2153.0
105.373,1986.0
105.374,1819.0
105.375,1789.0
105.376,1943.0
105.377,2075.0
105.378,2191.0
105.379,2193.0
105.38,2129.0
105.381,1939.0
105.382,1810.0
105.383,1845.0
105.384,1969.0
105.385,2101.0
105.386,2192.0
105.387,2197.0
105.388,2108.0
105.389,1912.0
105.39,1829.0
105.391,1888.0
105.392,2015.0
105.393,2120.0
105.394,2197.0
105.395,2164.0
105.396,2081.0
105.397,1866.0
105.398,1821.0
105.399,1883.0
105.4,2037.0
105.401,2133.0
105.402,2174.0
105.403,2156.0
105.404,2011.0
105.405,1838.0
105.406,1798.0
105.407,1914.0
105.408,2064.0
105.409,2138.0
105.41,2175.0
105.411,2136.0
105.412,1910.0
105.413,1821.0
105.414,1812.0
105.415,1930.0
105.416,2090.0
105.417,2149.0
105.418,2169.0
105.419,2120.0
105.42,1877.0
105.421,1794.0
105.422,1841.0
105.423,1961.0
105.424,2111.0
105.425,2155.0
105.426,2160.0
105.427,2107.0
105.428,1864.0
105.429,1811.0
105.43,1862.0
105.431,2023.0
105.432,2162.0
105.433,2159.0
105.434,2152.0
105.435,2087.0
105.436,1835.0
105.437,1798.0
105.438,1860.0
105.439,2035.0
105.44,2151.0
105.441,2135.0
105.442,2130.0
105.443,1976.0
105.444,1838.0
105.445,1794.0
105.446,1890.0
105.447,2075.0
105.448,2170.0
105.449,2156.0
105.45,2120.0
105.451,1927.0
105.452,1777.0
105.453,1836.0
105.454,1923.0
105.455,2099.0
105.456,2165.0
105.457,2176.0
105.458,2105.0
105.459,1918.0
105.46,1816.0
105.461,1865.0
105.462,1962.0
105.463,2145.0
105.464,2203.0
105.465,2188.0
105.466,2111.0
105.467,1902.0
105.468,1800.0
105.469,1902.0
105.47,2051.0
105.471,2204.0
105.472,2223.0
105.473,2167.0
105.474,2079.0
105.475,1883.0
105.476,1795.0
105.477,1893.0
105.478,2055.0
105.479,2194.0
105.48,2201.0
105.481,2121.0
105.482,2014.0
105.483,1846.0
105.484,1779.0
105.485,1913.0
105.486,2058.0
105.487,2208.0
105.488,2189.0
105.489,2066.0
105.49,1872.0
105.491,1636.0
105.492,1551.0
105.493,1603.0
105.494,1764.0
105.495,2015.0
105.496,2180.0
105.497,2264.0
105.498,2221.0
105.499,2180.0
105.5,2311.0
105.501,2492.0
105.502,2626.0
105.503,2758.0
105.504,2723.0
105.505,2591.0
105.506,2313.0
105.507,2156.0
105.508,2187.0
105.509,2295.0
105.51,2332.0
105.511,2361.0
105.512,2254.0
105.513,2102.0
105.514,1888.0
105.515,1726.0
105.516,1808.0
105.517,1921.0
105.518,1990.0
105.519,2035.0
105.52,1998.0
105.521,1827.0
105.522,1694.0
105.523,1647.0
105.524,1785.0
105.525,1911.0
105.526,1994.0
105.527,2047.0
105.528,1982.0
105.529,1790.0
105.53,1706.0
105.531,1714.0
105.532,1795.0
105.533,1973.0
105.534,2070.0
105.535,2080.0
105.536,1995.0
105.537,1775.0
105.538,1687.0
105.539,1766.0
105.54,1876.0
105.541,2003.0
105.542,2042.0
105.543,2052.0
105.544,1968.0
105.545,1768.0
105.546,1728.0
105.547,1821.0
105.548,1946.0
105.549,2053.0
105.55,2071.0
105.551,2078.0
105.552,1923.0
105.553,1759.0
105.554,1733.0
105.555,1837.0
105.556,1976.0
105.557,2063.0
105.558,2039.0
105.559,2047.0
105.56,1850.0
105.561,1741.0
105.562,1725.0
105.563,1847.0
105.564,1995.0
105.565,2040.0
105.566,2033.0
105.567,2011.0
105.568,1773.0
105.569,1693.0
105.57,1729.0
105.571,1854.0
105.572,2014.0
105.573,2045.0
105.574,2030.0
105.575,1998.0
105.576,1759.0
105.577,1710.0
105.578,1758.0
105.579,1921.0
105.58,2061.0
105.581,2098.0
105.582,2086.0
105.583,2027.0
105.584,1804.0
105.585,1770.0
105.586,1864.0
105.587,2041.0
105.588,2182.0
105.589,2186.0
105.59,2163.0
105.591,2047.0
105.592,1876.0
105.593,1858.0
105.594,1969.0
105.595,2176.0
105.596,2290.0
105.597,2272.0
105.598,2225.0
105.599,2061.0
105.6,1941.0
105.601,1930.0
105.602,2042.0
105.603,2248.0
105.604,2321.0
105.605,2332.0
105.606,2227.0
105.607,2037.0
105.608,1937.0
105.609,2014.0
105.61,2097.0
105.611,2296.0
105.612,2343.0
105.613,2316.0
105.614,2206.0
105.615,2007.0
105.616,1914.0
105.617,1998.0
105.618,2138.0
105.619,2310.0
105.62,2341.0
105.621,2291.0
105.622,2177.0
105.623,1982.0
105.624,1913.0
105.625,2022.0
105.626,2166.0
105.627,2292.0
105.628,2307.0
105.629,2258.0
105.63,2113.0
105.631,1945.0
105.632,1869.0
105.633,2023.0
105.634,2167.0
105.635,2299.0
105.636,2292.0
105.637,2225.0
105.638,2047.0
105.639,1899.0
105.64,1887.0
105.641,2056.0
105.642,2152.0
105.643,2251.0
105.644,2262.0
105.645,2164.0
105.646,1985.0
105.647,1851.0
105.648,1907.0
105.649,2042.0
105.65,2154.0
105.651,2259.0
105.652,2225.0
105.653,2147.0
105.654,1934.0
105.655,1825.0
105.656,1900.0
105.657,2058.0
105.658,2159.0
105.659,2239.0
105.66,2191.0
105.661,2076.0
105.662,1887.0
105.663,1809.0
105.664,1922.0
105.665,2070.0
105.666,2157.0
105.667,2218.0
105.668,2159.0
105.669,2000.0
105.67,1868.0
105.671,1804.0
105.672,1933.0
105.673,2088.0
105.674,2163.0
105.675,2206.0
105.676,2148.0
105.677,1954.0
105.678,1846.0
105.679,1850.0
105.68,1971.0
105.681,2122.0
105.682,2169.0
105.683,2204.0
105.684,2131.0
105.685,1902.0
105.686,1842.0
105.687,1897.0
105.688,1996.0
105.689,2154.0
105.69,2179.0
105.691,2192.0
105.692,2124.0
105.693,1889.0
105.694,1841.0
105.695,1925.0
105.696,2053.0
105.697,2188.0
105.698,2182.0
105.699,2195.0
105.7,2070.0
105.701,1869.0
105.702,1856.0
105.703,1942.0
105.704,2095.0
105.705,2222.0
105.706,2202.0
105.707,2201.0
105.708,1986.0
105.709,1875.0
105.71,1873.0
105.711,1977.0
105.712,2127.0
105.713,2246.0
105.714,2194.0
105.715,2181.0
105.716,1967.0
105.717,1841.0
105.718,1889.0
105.719,2004.0
105.72,2157.0
105.721,2242.0
105.722,2209.0
105.723,2154.0
105.724,1920.0
105.725,1838.0
105.726,1888.0
105.727,2033.0
105.728,2184.0
105.729,2239.0
105.73,2193.0
105.731,2126.0
105.732,1893.0
105.733,1805.0
105.734,1891.0
105.735,2059.0
105.736,2176.0
105.737,2217.0
105.738,2148.0
105.739,2037.0
105.74,1837.0
105.741,1772.0
105.742,1886.0
105.743,2073.0
105.744,2183.0
105.745,2179.0
105.746,2132.0
105.747,1990.0
105.748,1842.0
105.749,1821.0
105.75,1936.0
105.751,2132.0
105.752,2221.0
105.753,2230.0
105.754,2105.0
105.755,1948.0
105.756,1814.0
105.757,1875.0
105.758,1958.0
105.759,2161.0
105.76,2243.0
105.761,2232.0
105.762,2115.0
105.763,1944.0
105.764,1835.0
105.765,1922.0
105.766,2050.0
105.767,2207.0
105.768,2245.0
105.769,2224.0
105.77,2129.0
105.771,1938.0
105.772,1839.0
105.773,1951.0
105.774,2085.0
105.775,2212.0
105.776,2256.0
105.777,2212.0
105.778,2068.0
105.779,1918.0
105.78,1822.0
105.781,1962.0
105.782,2082.0
105.783,2214.0
105.784,2243.0
105.785,2185.0
105.786,1936.0
105.787,1742.0
105.788,1665.0
105.789,1796.0
105.79,1903.0
105.791,2015.0
105.792,2005.0
105.793,1887.0
105.794,1608.0
105.795,1425.0
105.796,1381.0
105.797,1461.0
105.798,1617.0
105.799,1860.0
105.8,2050.0
105.801,2153.0
105.802,2044.0
105.803,2070.0
105.804,2190.0
105.805,2369.0
105.806,2486.0
105.807,2585.0
105.808,2552.0
105.809,2411.0
105.81,2103.0
105.811,2027.0
105.812,2098.0
105.813,2211.0
105.814,2236.0
105.815,2254.0
105.816,2196.0
105.817,1987.0
105.818,1762.0
105.819,1681.0
105.82,1761.0
105.821,1890.0
105.822,1925.0
105.823,1955.0
105.824,1948.0
105.825,1769.0
105.826,1642.0
105.827,1682.0
105.828,1780.0
105.829,1948.0
105.83,1977.0
105.831,2008.0
105.832,1978.0
105.833,1735.0
105.834,1668.0
105.835,1741.0
105.836,1854.0
105.837,2007.0
105.838,2006.0
105.839,2015.0
105.84,1967.0
105.841,1697.0
105.842,1682.0
105.843,1766.0
105.844,1916.0
105.845,2055.0
105.846,2044.0
105.847,2053.0
105.848,1972.0
105.849,1737.0
105.85,1706.0
105.851,1803.0
105.852,1976.0
105.853,2077.0
105.854,2052.0
105.855,2055.0
105.856,1883.0
105.857,1744.0
105.858,1710.0
105.859,1831.0
105.86,1997.0
105.861,2097.0
105.862,2054.0
105.863,2035.0
105.864,1846.0
105.865,1716.0
105.866,1750.0
105.867,1844.0
105.868,2020.0
105.869,2106.0
105.87,2069.0
105.871,1999.0
105.872,1785.0
105.873,1687.0
105.874,1755.0
105.875,1876.0
105.876,2052.0
105.877,2109.0
105.878,2064.0
105.879,1993.0
105.88,1775.0
105.881,1696.0
105.882,1790.0
105.883,1961.0
105.884,2125.0
105.885,2146.0
105.886,2091.0
105.887,1996.0
105.888,1818.0
105.889,1752.0
105.89,1866.0
105.891,2058.0
105.892,2210.0
105.893,2215.0
105.894,2140.0
105.895,2020.0
105.896,1875.0
105.897,1809.0
105.898,1957.0
105.899,2143.0
105.9,2266.0
105.901,2269.0
105.902,2173.0
105.903,1959.0
105.904,1748.0
105.905,1736.0
105.906,1830.0
105.907,1989.0
105.908,2082.0
105.909,2075.0
105.91,1977.0
105.911,1811.0
105.912,1706.0
105.913,1769.0
105.914,1926.0
105.915,2097.0
105.916,2173.0
105.917,2122.0
105.918,2043.0
105.919,1846.0
105.92,1751.0
105.921,1856.0
105.922,2018.0
105.923,2145.0
105.924,2193.0
105.925,2163.0
105.926,2053.0
105.927,1870.0
105.928,1798.0
105.929,1933.0
105.93,2080.0
105.931,2197.0
105.932,2217.0
105.933,2183.0
105.934,2025.0
105.935,1872.0
105.936,1837.0
105.937,1988.0
105.938,2111.0
105.939,2227.0
105.94,2246.0
105.941,2170.0
105.942,1979.0
105.943,1869.0
105.944,1888.0
105.945,2010.0
105.946,2123.0
105.947,2246.0
105.948,2228.0
105.949,2150.0
105.95,1943.0
105.951,1873.0
105.952,1916.0
105.953,2025.0
105.954,2155.0
105.955,2218.0
105.956,2199.0
105.957,2110.0
105.958,1896.0
105.959,1869.0
105.96,1925.0
105.961,2066.0
105.962,2168.0
105.963,2226.0
105.964,2203.0
105.965,2053.0
105.966,1893.0
105.967,1874.0
105.968,1960.0
105.969,2111.0
105.97,2200.0
105.971,2216.0
105.972,2199.0
105.973,1997.0
105.974,1881.0
105.975,1880.0
105.976,1984.0
105.977,2158.0
105.978,2207.0
105.979,2230.0
105.98,2184.0
105.981,1935.0
105.982,1859.0
105.983,1900.0
105.984,2003.0
105.985,2167.0
105.986,2212.0
105.987,2205.0
105.988,2005.0
105.989,1443.0
105.99,1243.0
105.991,1228.0
105.992,1342.0
105.993,1480.0
105.994,1484.0
105.995,1482.0
105.996,1414.0
105.997,1194.0
105.998,1195.0
105.999,1267.0
106.0,1450.0
106.001,1595.0
106.002,1615.0
106.003,1601.0
106.004,1478.0
106.005,1340.0
106.006,1324.0
106.007,1450.0
106.008,1626.0
106.009,1772.0
106.01,1758.0
106.011,1724.0
106.012,1573.0
106.013,1446.0
106.014,1459.0
106.015,1586.0
106.016,1793.0
106.017,1886.0
106.018,1889.0
106.019,1817.0
106.02,1639.0
106.021,1562.0
106.022,1615.0
106.023,1734.0
106.024,1926.0
106.025,1997.0
106.026,1982.0
106.027,1905.0
106.028,1708.0
106.029,1629.0
106.03,1726.0
106.031,1881.0
106.032,2041.0
106.033,2075.0
106.034,2053.0
106.035,1972.0
106.036,1793.0
106.037,1715.0
106.038,1816.0
106.039,1976.0
106.04,2122.0
106.041,2148.0
106.042,2098.0
106.043,1984.0
106.044,1821.0
106.045,1741.0
106.046,1888.0
106.047,2044.0
106.048,2183.0
106.049,2186.0
106.05,2118.0
106.051,1970.0
106.052,1830.0
106.053,1815.0
106.054,1943.0
106.055,2082.0
106.056,2216.0
106.057,2215.0
106.058,2139.0
106.059,1971.0
106.06,1867.0
106.061,1915.0
106.062,2038.0
106.063,2155.0
106.064,2257.0
106.065,2245.0
106.066,2183.0
106.067,1991.0
106.068,1895.0
106.069,1969.0
106.07,2135.0
106.071,2218.0
106.072,2301.0
106.073,2278.0
106.074,2176.0
106.075,1979.0
106.076,1908.0
106.077,2014.0
106.078,2149.0
106.079,2234.0
106.08,2297.0
106.081,2265.0
106.082,2127.0
106.083,1971.0
106.084,1929.0
106.085,2058.0
106.086,2183.0
106.087,2274.0
106.088,2311.0
106.089,2269.0
106.09,2065.0
106.091,1959.0
106.092,1970.0
106.093,2088.0
106.094,2233.0
106.095,2269.0
106.096,2309.0
106.097,2237.0
106.098,2023.0
106.099,1961.0
106.1,2026.0
106.101,2127.0
106.102,2266.0
106.103,2233.0
106.104,2179.0
106.105,2018.0
106.106,1712.0
106.107,1654.0
106.108,1809.0
106.109,2101.0
106.11,2418.0
106.111,2601.0
106.112,2704.0
106.113,2658.0
106.114,2527.0
106.115,2529.0
106.116,2642.0
106.117,2784.0
106.118,2847.0
106.119,2706.0
106.12,2651.0
106.121,2432.0
106.122,2231.0
106.123,2172.0
106.124,2238.0
106.125,2340.0
106.126,2376.0
106.127,2240.0
106.128,2157.0
106.129,1871.0
106.13,1762.0
106.131,1768.0
106.132,1881.0
106.133,2042.0
106.134,2116.0
106.135,2089.0
106.136,2052.0
106.137,1824.0
106.138,1729.0
106.139,1805.0
106.14,1949.0
106.141,2092.0
106.142,2133.0
106.143,2088.0
106.144,2031.0
106.145,1800.0
106.146,1751.0
106.147,1844.0
106.148,1995.0
106.149,2147.0
106.15,2169.0
106.151,2081.0
106.152,1960.0
106.153,1808.0
106.154,1733.0
106.155,1852.0
106.156,2043.0
106.157,2157.0
106.158,2159.0
106.159,2070.0
106.16,1920.0
106.161,1791.0
106.162,1767.0
106.163,1882.0
106.164,2088.0
106.165,2173.0
106.166,2164.0
106.167,2053.0
106.168,1886.0
106.169,1769.0
106.17,1813.0
106.171,1906.0
106.172,2102.0
106.173,2163.0
106.174,2143.0
106.175,2021.0
106.176,1837.0
106.177,1723.0
106.178,1831.0
106.179,1951.0
106.18,2124.0
106.181,2150.0
106.182,2109.0
106.183,2016.0
106.184,1817.0
106.185,1728.0
106.186,1852.0
106.187,1981.0
106.188,2143.0
106.189,2161.0
106.19,2137.0
106.191,1997.0
106.192,1843.0
106.193,1772.0
106.194,1914.0
106.195,2047.0
106.196,2202.0
106.197,2218.0
106.198,2180.0
106.199,2012.0
106.2,1866.0
106.201,1865.0
106.202,2036.0
106.203,2165.0
106.204,2295.0
106.205,2314.0
106.206,2249.0
106.207,2069.0
106.208,1962.0
106.209,1997.0
106.21,2132.0
106.211,2253.0
106.212,2363.0
106.213,2358.0
106.214,2290.0
106.215,2089.0
106.216,1975.0
106.217,2060.0
106.218,2200.0
106.219,2294.0
106.22,2387.0
106.221,2355.0
106.222,2267.0
106.223,2072.0
106.224,1989.0
106.225,2087.0
106.226,2242.0
106.227,2323.0
106.228,2374.0
106.229,2336.0
106.23,2179.0
106.231,2027.0
106.232,1977.0
106.233,2090.0
106.234,2251.0
106.235,2304.0
106.236,2351.0
106.237,2303.0
106.238,2096.0
106.239,1989.0
106.24,1980.0
106.241,2097.0
106.242,2250.0
106.243,2297.0
106.244,2320.0
106.245,2255.0
106.246,2029.0
106.247,1953.0
106.248,1996.0
106.249,2109.0
106.25,2264.0
106.251,2268.0
106.252,2285.0
106.253,2210.0
106.254,1970.0
106.255,1927.0
106.256,1979.0
106.257,2109.0
106.258,2246.0
106.259,2255.0
106.26,2250.0
106.261,2142.0
106.262,1919.0
106.263,1892.0
106.264,1965.0
106.265,2118.0
106.266,2242.0
106.267,2232.0
106.268,2218.0
106.269,2065.0
106.27,1894.0
106.271,1884.0
106.272,1979.0
106.273,2139.0
106.274,2243.0
106.275,2216.0
106.276,2190.0
106.277,2002.0
106.278,1862.0
106.279,1891.0
106.28,1986.0
106.281,2161.0
106.282,2233.0
106.283,2216.0
106.284,2149.0
106.285,1936.0
106.286,1841.0
106.287,1905.0
106.288,2026.0
106.289,2193.0
106.29,2241.0
106.291,2206.0
106.292,2133.0
106.293,1920.0
106.294,1823.0
106.295,1912.0
106.296,2066.0
106.297,2211.0
106.298,2242.0
106.299,2185.0
106.3,2076.0
106.301,1901.0
106.302,1815.0
106.303,1936.0
106.304,2105.0
106.305,2233.0
106.306,2239.0
106.307,2175.0
106.308,2042.0
106.309,1885.0
106.31,1836.0
106.311,1962.0
106.312,2129.0
106.313,2251.0
106.314,2243.0
106.315,2141.0
106.316,2009.0
106.317,1864.0
106.318,1878.0
106.319,1993.0
106.32,2147.0
106.321,2258.0
106.322,2252.0
106.323,2129.0
106.324,1979.0
106.325,1846.0
106.326,1916.0
106.327,2039.0
106.328,2177.0
106.329,2239.0
106.33,2224.0
106.331,2126.0
106.332,1961.0
106.333,1849.0
106.334,1934.0
106.335,2085.0
106.336,2188.0
106.337,2258.0
106.338,2232.0
106.339,2100.0
106.34,1951.0
106.341,1852.0
106.342,1979.0
106.343,2121.0
106.344,2216.0
106.345,2274.0
106.346,2233.0
106.347,2074.0
106.348,1945.0
106.349,1884.0
106.35,2002.0
106.351,2120.0
106.352,2223.0
106.353,2270.0
106.354,2224.0
106.355,2026.0
106.356,1919.0
106.357,1932.0
106.358,2050.0
106.359,2148.0
106.36,2224.0
106.361,2251.0
106.362,2172.0
106.363,1972.0
106.364,1885.0
106.365,1945.0
106.366,2071.0
106.367,2159.0
106.368,2208.0
106.369,2216.0
106.37,2134.0
106.371,1926.0
106.372,1881.0
106.373,1930.0
106.374,2067.0
106.375,2158.0
106.376,2189.0
106.377,2206.0
106.378,2057.0
106.379,1882.0
106.38,1862.0
106.381,1948.0
106.382,2097.0
106.383,2175.0
106.384,2189.0
106.385,2190.0
106.386,1979.0
106.387,1854.0
106.388,1885.0
106.389,1999.0
106.39,2146.0
106.391,2206.0
106.392,2215.0
106.393,2177.0
106.394,1956.0
106.395,1868.0
106.396,1925.0
106.397,2034.0
106.398,2186.0
106.399,2201.0
106.4,2203.0
106.401,2147.0
106.402,1907.0
106.403,1842.0
106.404,1905.0
106.405,2056.0
106.406,2194.0
106.407,2194.0
106.408,2181.0
106.409,2119.0
106.41,1879.0
106.411,1835.0
106.412,1913.0
106.413,2092.0
106.414,2203.0
106.415,2195.0
106.416,2166.0
106.417,2029.0
106.418,1841.0
106.419,1813.0
106.42,1917.0
106.421,2108.0
106.422,2224.0
106.423,2197.0
106.424,2128.0
106.425,1877.0
106.426,1686.0
106.427,1580.0
106.428,1656.0
106.429,1878.0
106.43,2090.0
106.431,2275.0
106.432,2392.0
106.433,2296.0
106.434,2273.0
106.435,2383.0
106.436,2538.0
106.437,2746.0
106.438,2817.0
106.439,2746.0
106.44,2547.0
106.441,2273.0
106.442,2141.0
106.443,2151.0
106.444,2237.0
106.445,2353.0
106.446,2315.0
106.447,2205.0
106.448,2010.0
106.449,1750.0
106.45,1617.0
106.451,1710.0
106.452,1832.0
106.453,1975.0
106.454,1986.0
106.455,1918.0
106.456,1777.0
106.457,1632.0
106.458,1562.0
106.459,1706.0
106.46,1880.0
106.461,2002.0
106.462,1995.0
106.463,1926.0
106.464,1772.0
106.465,1631.0
106.466,1631.0
106.467,1751.0
106.468,1924.0
106.469,2054.0
106.47,2014.0
106.471,1943.0
106.472,1766.0
106.473,1646.0
106.474,1714.0
106.475,1834.0
106.476,1977.0
106.477,2067.0
106.478,2038.0
106.479,1956.0
106.48,1752.0
106.481,1666.0
106.482,1732.0
106.483,1894.0
106.484,2014.0
106.485,2069.0
106.486,2039.0
106.487,1920.0
106.488,1742.0
106.489,1655.0
106.49,1758.0
106.491,1910.0
106.492,2013.0
106.493,2070.0
106.494,2016.0
106.495,1873.0
106.496,1716.0
106.497,1643.0
106.498,1781.0
106.499,1917.0
106.5,2024.0
106.501,2052.0
106.502,1994.0
106.503,1807.0
106.504,1686.0
106.505,1688.0
106.506,1807.0
106.507,1960.0
106.508,2038.0
106.509,2061.0
106.51,1982.0
106.511,1775.0
106.512,1708.0
106.513,1761.0
106.514,1884.0
106.515,2033.0
106.516,2079.0
106.517,2091.0
106.518,2020.0
106.519,1796.0
106.52,1769.0
106.521,1847.0
106.522,1997.0
106.523,2128.0
106.524,2157.0
106.525,2178.0
106.526,2040.0
106.527,1872.0
106.528,1858.0
106.529,1966.0
106.53,2108.0
106.531,2234.0
106.532,2248.0
106.533,2247.0
106.534,2061.0
106.535,1927.0
106.536,1933.0
106.537,2041.0
106.538,2209.0
106.539,2292.0
106.54,2284.0
106.541,2262.0
106.542,2033.0
106.543,1940.0
106.544,1973.0
106.545,2086.0
106.546,2233.0
106.547,2302.0
106.548,2291.0
106.549,2239.0
106.55,1989.0
106.551,1919.0
106.552,1980.0
106.553,2111.0
106.554,2267.0
106.555,2307.0
106.556,2261.0
106.557,2187.0
106.558,1966.0
106.559,1880.0
106.56,1972.0
106.561,2133.0
106.562,2266.0
106.563,2289.0
106.564,2231.0
106.565,2118.0
106.566,1929.0
106.567,1860.0
106.568,1978.0
106.569,2148.0
106.57,2259.0
106.571,2269.0
106.572,2189.0
106.573,2025.0
106.574,1900.0
106.575,1872.0
106.576,1986.0
106.577,2163.0
106.578,2259.0
106.579,2252.0
106.58,2140.0
106.581,1962.0
106.582,1846.0
106.583,1896.0
106.584,1993.0
106.585,2176.0
106.586,2245.0
106.587,2232.0
106.588,2112.0
106.589,1917.0
106.59,1812.0
106.591,1920.0
106.592,2022.0
106.593,2196.0
106.594,2228.0
106.595,2200.0
106.596,2093.0
106.597,1906.0
106.598,1804.0
106.599,1917.0
106.6,2041.0
106.601,2189.0
106.602,2226.0
106.603,2183.0
106.604,2039.0
106.605,1892.0
106.606,1809.0
106.607,1936.0
106.608,2055.0
106.609,2200.0
106.61,2215.0
106.611,2170.0
106.612,1992.0
106.613,1853.0
106.614,1831.0
106.615,1975.0
106.616,2083.0
106.617,2206.0
106.618,2219.0
106.619,2165.0
106.62,1938.0
106.621,1832.0
106.622,1874.0
106.623,2000.0
106.624,2087.0
106.625,2205.0
106.626,2197.0
106.627,2128.0
106.628,1911.0
106.629,1827.0
106.63,1881.0
106.631,2045.0
106.632,2124.0
106.633,2214.0
106.634,2185.0
106.635,2092.0
106.636,1881.0
106.637,1827.0
106.638,1921.0
106.639,2076.0
106.64,2138.0
106.641,2212.0
106.642,2193.0
106.643,2035.0
106.644,1865.0
106.645,1840.0
106.646,1961.0
106.647,2123.0
106.648,2163.0
106.649,2206.0
106.65,2164.0
106.651,1964.0
106.652,1815.0
106.653,1866.0
106.654,1976.0
106.655,2154.0
106.656,2159.0
106.657,2192.0
106.658,2130.0
106.659,1908.0
106.66,1820.0
106.661,1906.0
106.662,1996.0
106.663,2152.0
106.664,2154.0
106.665,2168.0
106.666,2103.0
106.667,1874.0
106.668,1844.0
106.669,1918.0
106.67,2043.0
106.671,2166.0
106.672,2145.0
106.673,2165.0
106.674,2047.0
106.675,1860.0
106.676,1800.0
106.677,1922.0
106.678,2058.0
106.679,2197.0
106.68,2156.0
106.681,2166.0
106.682,2000.0
106.683,1853.0
106.684,1824.0
106.685,1942.0
106.686,2112.0
106.687,2205.0
106.688,2150.0
106.689,2147.0
106.69,1935.0
106.691,1823.0
106.692,1847.0
106.693,1975.0
106.694,2144.0
106.695,2222.0
106.696,2184.0
106.697,2131.0
106.698,1883.0
106.699,1801.0
106.7,1876.0
106.701,2014.0
106.702,2182.0
106.703,2224.0
106.704,2160.0
106.705,2105.0
106.706,1874.0
106.707,1804.0
106.708,1885.0
106.709,2051.0
106.71,2195.0
106.711,2223.0
106.712,2145.0
106.713,2036.0
106.714,1861.0
106.715,1785.0
106.716,1902.0
106.717,2084.0
106.718,2206.0
106.719,2222.0
106.72,2111.0
106.721,1967.0
106.722,1821.0
106.723,1768.0
106.724,1903.0
106.725,2099.0
106.726,2191.0
106.727,2195.0
106.728,2077.0
106.729,1913.0
106.73,1805.0
106.731,1829.0
106.732,1934.0
106.733,2132.0
106.734,2204.0
106.735,2197.0
106.736,2081.0
106.737,1913.0
106.738,1797.0
106.739,1885.0
106.74,2012.0
106.741,2178.0
106.742,2224.0
106.743,2195.0
106.744,2103.0
106.745,1910.0
106.746,1809.0
106.747,1932.0
106.748,2059.0
106.749,2209.0
106.75,2236.0
106.751,2181.0
106.752,2052.0
106.753,1878.0
106.754,1814.0
106.755,1944.0
106.756,2095.0
106.757,2221.0
106.758,2243.0
106.759,2185.0
106.76,2016.0
106.761,1866.0
106.762,1821.0
106.763,1978.0
106.764,2108.0
106.765,2227.0
106.766,2231.0
106.767,2158.0
106.768,1956.0
106.769,1844.0
106.77,1862.0
106.771,2015.0
106.772,2140.0
106.773,2237.0
106.774,2210.0
106.775,2068.0
106.776,1787.0
106.777,1600.0
106.778,1598.0
106.779,1756.0
106.78,1986.0
106.781,2230.0
106.782,2411.0
106.783,2436.0
106.784,2307.0
106.785,2332.0
106.786,2468.0
106.787,2636.0
106.788,2755.0
106.789,2779.0
106.79,2685.0
106.791,2428.0
106.792,2207.0
106.793,2132.0
106.794,2182.0
106.795,2291.0
106.796,2309.0
106.797,2283.0
106.798,2199.0
106.799,1927.0
106.8,1742.0
106.801,1709.0
106.802,1807.0
106.803,1934.0
106.804,1981.0
106.805,2005.0
106.806,1947.0
106.807,1721.0
106.808,1642.0
106.809,1682.0
106.81,1799.0
106.811,1973.0
106.812,1987.0
106.813,1997.0
106.814,1943.0
106.815,1699.0
106.816,1649.0
106.817,1709.0
106.818,1859.0
106.819,1995.0
106.82,2003.0
106.821,2005.0
106.822,1920.0
106.823,1693.0
106.824,1661.0
106.825,1741.0
106.826,1916.0
106.827,2046.0
106.828,2025.0
106.829,2009.0
106.83,1875.0
106.831,1716.0
106.832,1693.0
106.833,1777.0
106.834,1955.0
106.835,2074.0
106.836,2040.0
106.837,2009.0
106.838,1825.0
106.839,1690.0
106.84,1698.0
106.841,1805.0
106.842,1989.0
106.843,2075.0
106.844,2055.0
106.845,1975.0
106.846,1761.0
106.847,1657.0
106.848,1709.0
106.849,1824.0
106.85,2000.0
106.851,2062.0
106.852,2027.0
106.853,1947.0
106.854,1732.0
106.855,1629.0
106.856,1724.0
106.857,1875.0
106.858,2029.0
106.859,2065.0
106.86,2004.0
106.861,1927.0
106.862,1726.0
106.863,1660.0
106.864,1775.0
106.865,1931.0
106.866,2074.0
106.867,2101.0
106.868,2035.0
106.869,1942.0
106.87,1796.0
106.871,1716.0
106.872,1872.0
106.873,2037.0
106.874,2184.0
106.875,2177.0
106.876,2116.0
106.877,1979.0
106.878,1849.0
106.879,1859.0
106.88,1985.0
106.881,2134.0
106.882,2261.0
106.883,2267.0
106.884,2159.0
106.885,2017.0
106.886,1886.0
106.887,1961.0
106.888,2071.0
106.889,2194.0
106.89,2296.0
106.891,2275.0
106.892,2202.0
106.893,2012.0
106.894,1918.0
106.895,1994.0
106.896,2141.0
106.897,2213.0
106.898,2305.0
106.899,2274.0
106.9,2165.0
106.901,1991.0
106.902,1890.0
106.903,2004.0
106.904,2145.0
106.905,2232.0
106.906,2287.0
106.907,2247.0
106.908,2084.0
106.909,1956.0
106.91,1882.0
106.911,2018.0
106.912,2147.0
106.913,2231.0
106.914,2267.0
106.915,2214.0
106.916,2012.0
106.917,1918.0
106.918,1924.0
106.919,2028.0
106.92,2163.0
106.921,2222.0
106.922,2255.0
106.923,2172.0
106.924,1953.0
106.925,1891.0
106.926,1939.0
106.927,2065.0
106.928,2169.0
106.929,2214.0
106.93,2210.0
106.931,2137.0
106.932,1913.0
106.933,1873.0
106.934,1943.0
106.935,2078.0
106.936,2186.0
106.937,2189.0
106.938,2194.0
106.939,2068.0
106.94,1875.0
106.941,1861.0
106.942,1963.0
106.943,2092.0
106.944,2177.0
106.945,2170.0
106.946,2173.0
106.947,1980.0
106.948,1846.0
106.949,1850.0
106.95,1965.0
106.951,2133.0
106.952,2185.0
106.953,2166.0
106.954,2147.0
106.955,1926.0
106.956,1820.0
106.957,1874.0
106.958,1990.0
106.959,2153.0
106.96,2192.0
106.961,2168.0
106.962,2119.0
106.963,1894.0
106.964,1814.0
106.965,1905.0
106.966,2023.0
106.967,2173.0
106.968,2182.0
106.969,2160.0
106.97,2094.0
106.971,1863.0
106.972,1821.0
106.973,1905.0
106.974,2070.0
106.975,2195.0
106.976,2187.0
106.977,2143.0
106.978,2022.0
106.979,1855.0
106.98,1814.0
106.981,1914.0
106.982,2106.0
106.983,2188.0
106.984,2186.0
106.985,2123.0
106.986,1972.0
106.987,1826.0
106.988,1824.0
106.989,1937.0
106.99,2131.0
106.991,2217.0
106.992,2205.0
106.993,2100.0
106.994,1915.0
106.995,1804.0
106.996,1877.0
106.997,1984.0
106.998,2175.0
106.999,2223.0
107.0,2203.0
107.001,2089.0
107.002,1894.0
107.003,1784.0
107.004,1898.0
107.005,2026.0
107.006,2204.0
107.007,2222.0
107.008,2176.0
107.009,2078.0
107.01,1873.0
107.011,1793.0
107.012,1921.0
107.013,2076.0
107.014,2207.0
107.015,2212.0
107.016,2167.0
107.017,2023.0
107.018,1875.0
107.019,1803.0
107.02,1936.0
107.021,2079.0
107.022,2218.0
107.023,2219.0
107.024,2158.0
107.025,1982.0
107.026,1828.0
107.027,1845.0
107.028,1967.0
107.029,2100.0
107.03,2221.0
107.031,2216.0
107.032,2141.0
107.033,1948.0
107.034,1813.0
107.035,1885.0
107.036,2010.0
107.037,2110.0
107.038,2212.0
107.039,2191.0
107.04,2120.0
107.041,1913.0
107.042,1803.0
107.043,1889.0
107.044,2038.0
107.045,2135.0
107.046,2201.0
107.047,2168.0
107.048,2050.0
107.049,1865.0
107.05,1793.0
107.051,1893.0
107.052,2059.0
107.053,2140.0
107.054,2194.0
107.055,2149.0
107.056,1997.0
107.057,1856.0
107.058,1788.0
107.059,1938.0
107.06,2093.0
107.061,2151.0
107.062,2204.0
107.063,2159.0
107.064,1943.0
107.065,1855.0
107.066,1849.0
107.067,1980.0
107.068,2132.0
107.069,2182.0
107.07,2214.0
107.071,2144.0
107.072,1922.0
107.073,1857.0
107.074,1900.0
107.075,2015.0
107.076,2168.0
107.077,2183.0
107.078,2154.0
107.079,2116.0
107.08,1881.0
107.081,1870.0
107.082,1922.0
107.083,2056.0
107.084,2194.0
107.085,2188.0
107.086,2196.0
107.087,2074.0
107.088,1883.0
107.089,1854.0
107.09,1944.0
107.091,2091.0
107.092,2207.0
107.093,2183.0
107.094,2177.0
107.095,1998.0
107.096,1859.0
107.097,1847.0
107.098,1936.0
107.099,2062.0
107.1,2098.0
107.101,1995.0
107.102,1873.0
107.103,1601.0
107.104,1494.0
107.105,1657.0
107.106,1914.0
107.107,2261.0
107.108,2451.0
107.109,2532.0
107.11,2540.0
107.111,2363.0
107.112,2285.0
107.113,2400.0
107.114,2523.0
107.115,2638.0
107.116,2601.0
107.117,2502.0
107.118,2399.0
107.119,2145.0
107.12,2035.0
107.121,2064.0
107.122,2177.0
107.123,2266.0
107.124,2239.0
107.125,2085.0
107.126,1940.0
107.127,1737.0
107.128,1640.0
107.129,1731.0
107.13,1906.0
107.131,2029.0
107.132,2038.0
107.133,1959.0
107.134,1815.0
107.135,1679.0
107.136,1641.0
107.137,1765.0
107.138,1954.0
107.139,2061.0
107.14,2054.0
107.141,1946.0
107.142,1788.0
107.143,1683.0
107.144,1718.0
107.145,1816.0
107.146,1986.0
107.147,2084.0
107.148,2069.0
107.149,1960.0
107.15,1799.0
107.151,1677.0
107.152,1772.0
107.153,1884.0
107.154,2028.0
107.155,2097.0
107.156,2069.0
107.157,1968.0
107.158,1785.0
107.159,1681.0
107.16,1786.0
107.161,1927.0
107.162,2049.0
107.163,2092.0
107.164,2055.0
107.165,1916.0
107.166,1777.0
107.167,1690.0
107.168,1805.0
107.169,1937.0
107.17,2064.0
107.171,2087.0
107.172,2030.0
107.173,1836.0
107.174,1709.0
107.175,1672.0
107.176,1800.0
107.177,1928.0
107.178,2036.0
107.179,2049.0
107.18,1996.0
107.181,1803.0
107.182,1702.0
107.183,1726.0
107.184,1838.0
107.185,1957.0
107.186,2052.0
107.187,2067.0
107.188,1998.0
107.189,1797.0
107.19,1735.0
107.191,1760.0
107.192,1935.0
107.193,2028.0
107.194,2118.0
107.195,2109.0
107.196,2035.0
107.197,1844.0
107.198,1812.0
107.199,1895.0
107.2,2056.0
107.201,2152.0
107.202,2194.0
107.203,2198.0
107.204,2060.0
107.205,1909.0
107.206,1901.0
107.207,2012.0
107.208,2168.0
107.209,2231.0
107.21,2263.0
107.211,2254.0
107.212,2067.0
107.213,1951.0
107.214,1980.0
107.215,2097.0
107.216,2245.0
107.217,2283.0
107.218,2299.0
107.219,2272.0
107.22,2048.0
107.221,1951.0
107.222,2015.0
107.223,2135.0
107.224,2284.0
107.225,2298.0
107.226,2299.0
107.227,2242.0
107.228,2011.0
107.229,1940.0
107.23,2011.0
107.231,2161.0
107.232,2298.0
107.233,2283.0
107.234,2281.0
107.235,2189.0
107.236,1958.0
107.237,1926.0
107.238,2013.0
107.239,2189.0
107.24,2290.0
107.241,2276.0
107.242,2260.0
107.243,2102.0
107.244,1921.0
107.245,1890.0
107.246,1985.0
107.247,2154.0
107.248,2242.0
107.249,2190.0
107.25,2163.0
107.251,1975.0
107.252,1839.0
107.253,1850.0
107.254,1955.0
107.255,2138.0
107.256,2196.0
107.257,2185.0
107.258,2102.0
107.259,1903.0
107.26,1792.0
107.261,1863.0
107.262,1991.0
107.263,2157.0
107.264,2211.0
107.265,2170.0
107.266,2080.0
107.267,1866.0
107.268,1755.0
107.269,1834.0
107.27,1987.0
107.271,2142.0
107.272,2161.0
107.273,2089.0
107.274,1987.0
107.275,1804.0
107.276,1716.0
107.277,1826.0
107.278,1990.0
107.279,2127.0
107.28,2126.0
107.281,2043.0
107.282,1929.0
107.283,1778.0
107.284,1713.0
107.285,1851.0
107.286,2013.0
107.287,2125.0
107.288,2105.0
107.289,2020.0
107.29,1870.0
107.291,1745.0
107.292,1739.0
107.293,1879.0
107.294,1995.0
107.295,2124.0
107.296,2096.0
107.297,1998.0
107.298,1847.0
107.299,1707.0
107.3,1807.0
107.301,1916.0
107.302,2048.0
107.303,2121.0
107.304,2089.0
107.305,2013.0
107.306,1830.0
107.307,1741.0
107.308,1829.0
107.309,1972.0
107.31,2079.0
107.311,2118.0
107.312,2068.0
107.313,1964.0
107.314,1792.0
107.315,1696.0
107.316,1810.0
107.317,1958.0
107.318,2042.0
107.319,2075.0
107.32,2045.0
107.321,1920.0
107.322,1785.0
107.323,1732.0
107.324,1858.0
107.325,1973.0
107.326,2071.0
107.327,2090.0
107.328,2047.0
107.329,1877.0
107.33,1779.0
107.331,1788.0
107.332,1893.0
107.333,1993.0
107.334,2069.0
107.335,2088.0
107.336,2017.0
107.337,1842.0
107.338,1778.0
107.339,1838.0
107.34,1938.0
107.341,2021.0
107.342,2070.0
107.343,2069.0
107.344,1992.0
107.345,1811.0
107.346,1787.0
107.347,1829.0
107.348,1941.0
107.349,2021.0
107.35,2039.0
107.351,2041.0
107.352,1922.0
107.353,1770.0
107.354,1748.0
107.355,1823.0
107.356,1942.0
107.357,1999.0
107.358,2013.0
107.359,2006.0
107.36,1843.0
107.361,1739.0
107.362,1735.0
107.363,1836.0
107.364,1952.0
107.365,2000.0
107.366,2004.0
107.367,1975.0
107.368,1769.0
107.369,1704.0
107.37,1758.0
107.371,1871.0
107.372,1991.0
107.373,2038.0
107.374,2040.0
107.375,2018.0
107.376,1810.0
107.377,1783.0
107.378,1867.0
107.379,2007.0
107.38,2121.0
107.381,2151.0
107.382,2128.0
107.383,2082.0
107.384,1864.0
107.385,1846.0
107.386,1933.0
107.387,2083.0
107.388,2189.0
107.389,2187.0
107.39,2171.0
107.391,2065.0
107.392,1909.0
107.393,1892.0
107.394,1993.0
107.395,2148.0
107.396,2255.0
107.397,2246.0
107.398,2203.0
107.399,2084.0
107.4,1951.0
107.401,1966.0
107.402,2108.0
107.403,2280.0
107.404,2343.0
107.405,2352.0
107.406,2285.0
107.407,2143.0
107.408,2054.0
107.409,2114.0
107.41,2218.0
107.411,2382.0
107.412,2443.0
107.413,2442.0
107.414,2365.0
107.415,2188.0
107.416,2104.0
107.417,2161.0
107.418,2212.0
107.419,2252.0
107.42,2199.0
107.421,2139.0
107.422,2151.0
107.423,2141.0
107.424,2254.0
107.425,2583.0
107.426,2800.0
107.427,2997.0
107.428,3078.0
107.429,3062.0
107.43,2982.0
107.431,2862.0
107.432,2774.0
107.433,2818.0
107.434,2860.0
107.435,2929.0
107.436,2899.0
107.437,2802.0
107.438,2621.0
107.439,2438.0
107.44,2359.0
107.441,2419.0
107.442,2446.0
107.443,2478.0
107.444,2453.0
107.445,2371.0
107.446,2202.0
107.447,2091.0
107.448,2155.0
107.449,2275.0
107.45,2353.0
107.451,2449.0
107.452,2426.0
107.453,2382.0
107.454,2214.0
107.455,2130.0
107.456,2218.0
107.457,2349.0
107.458,2396.0
107.459,2486.0
107.46,2450.0
107.461,2388.0
107.462,2221.0
107.463,2149.0
107.464,2272.0
107.465,2390.0
107.466,2458.0
107.467,2523.0
107.468,2497.0
107.469,2369.0
107.47,2230.0
107.471,2188.0
107.472,2322.0
107.473,2456.0
107.474,2474.0
107.475,2526.0
107.476,2484.0
107.477,2304.0
107.478,2211.0
107.479,2231.0
107.48,2319.0
107.481,2442.0
107.482,2436.0
107.483,2483.0
107.484,2410.0
107.485,2208.0
107.486,2133.0
107.487,2197.0
107.488,2300.0
107.489,2399.0
107.49,2385.0
107.491,2406.0
107.492,2346.0
107.493,2136.0
107.494,2090.0
107.495,2175.0
107.496,2281.0
107.497,2376.0
107.498,2340.0
107.499,2353.0
107.5,2237.0
107.501,2068.0
107.502,2034.0
107.503,2140.0
107.504,2254.0
107.505,2334.0
107.506,2269.0
107.507,2279.0
107.508,2129.0
107.509,1992.0
107.51,1989.0
107.511,2107.0
107.512,2235.0
107.513,2341.0
107.514,2300.0
107.515,2302.0
107.516,2106.0
107.517,2028.0
107.518,2093.0
107.519,2224.0
107.52,2363.0
107.521,2441.0
107.522,2405.0
107.523,2385.0
107.524,2171.0
107.525,2125.0
107.526,2208.0
107.527,2370.0
107.528,2513.0
107.529,2542.0
107.53,2481.0
107.531,2437.0
107.532,2215.0
107.533,2148.0
107.534,2259.0
107.535,2410.0
107.536,2528.0
107.537,2535.0
107.538,2448.0
107.539,2352.0
107.54,2185.0
107.541,2127.0
107.542,2227.0
107.543,2383.0
107.544,2491.0
107.545,2471.0
107.546,2374.0
107.547,2239.0
107.548,2105.0
107.549,2086.0
107.55,2191.0
107.551,2365.0
107.552,2431.0
107.553,2412.0
107.554,2299.0
107.555,2152.0
107.556,2054.0
107.557,2090.0
107.558,2158.0
107.559,2324.0
107.56,2364.0
107.561,2333.0
107.562,2230.0
107.563,2045.0
107.564,1961.0
107.565,2034.0
107.566,2130.0
107.567,2274.0
107.568,2298.0
107.569,2252.0
107.57,2151.0
107.571,1962.0
107.572,1858.0
107.573,1992.0
107.574,2109.0
107.575,2228.0
107.576,2232.0
107.577,2182.0
107.578,2050.0
107.579,1892.0
107.58,1815.0
107.581,1959.0
107.582,2063.0
107.583,2190.0
107.584,2186.0
107.585,2149.0
107.586,1979.0
107.587,1856.0
107.588,1820.0
107.589,1969.0
107.59,2073.0
107.591,2175.0
107.592,2157.0
107.593,2094.0
107.594,1909.0
107.595,1784.0
107.596,1824.0
107.597,1941.0
107.598,2033.0
107.599,2129.0
107.6,2123.0
107.601,2039.0
107.602,1848.0
107.603,1758.0
107.604,1826.0
107.605,1952.0
107.606,2033.0
107.607,2100.0
107.608,2064.0
107.609,1964.0
107.61,1799.0
107.611,1742.0
107.612,1825.0
107.613,1955.0
107.614,2022.0
107.615,2077.0
107.616,2041.0
107.617,1893.0
107.618,1755.0
107.619,1713.0
107.62,1816.0
107.621,1961.0
107.622,2007.0
107.623,2044.0
107.624,1997.0
107.625,1809.0
107.626,1720.0
107.627,1730.0
107.628,1837.0
107.629,1976.0
107.63,2001.0
107.631,2031.0
107.632,1972.0
107.633,1763.0
107.634,1702.0
107.635,1754.0
107.636,1837.0
107.637,1974.0
107.638,1978.0
107.639,1976.0
107.64,1908.0
107.641,1705.0
107.642,1675.0
107.643,1727.0
107.644,1848.0
107.645,1957.0
107.646,1938.0
107.647,1943.0
107.648,1844.0
107.649,1627.0
107.65,1607.0
107.651,1683.0
107.652,1805.0
107.653,1917.0
107.654,1883.0
107.655,1879.0
107.656,1714.0
107.657,1574.0
107.658,1571.0
107.659,1658.0
107.66,1797.0
107.661,1853.0
107.662,1793.0
107.663,1759.0
107.664,1560.0
107.665,1435.0
107.666,1495.0
107.667,1602.0
107.668,1751.0
107.669,1803.0
107.67,1785.0
107.671,1719.0
107.672,1498.0
107.673,1405.0
107.674,1459.0
107.675,1551.0
107.676,1686.0
107.677,1713.0
107.678,1673.0
107.679,1608.0
107.68,1391.0
107.681,1333.0
107.682,1406.0
107.683,1547.0
107.684,1667.0
107.685,1700.0
107.686,1601.0
107.687,1505.0
107.688,1365.0
107.689,1359.0
107.69,1536.0
107.691,1721.0
107.692,1874.0
107.693,1914.0
107.694,1835.0
107.695,1759.0
107.696,1630.0
107.697,1592.0
107.698,1725.0
107.699,1865.0
107.7,1945.0
107.701,1902.0
107.702,1817.0
107.703,1703.0
107.704,1557.0
107.705,1577.0
107.706,1678.0
107.707,1834.0
107.708,1922.0
107.709,1923.0
107.71,1824.0
107.711,1695.0
107.712,1793.0
107.713,1935.0
107.714,2034.0
107.715,2096.0
107.716,2134.0
107.717,2066.0
107.718,1998.0
107.719,1788.0
107.72,1652.0
107.721,1736.0
107.722,1838.0
107.723,1919.0
107.724,1949.0
107.725,1892.0
107.726,1793.0
107.727,1673.0
107.728,1571.0
107.729,1660.0
107.73,1773.0
107.731,1836.0
107.732,1839.0
107.733,1776.0
107.734,1616.0
107.735,1526.0
107.736,1475.0
107.737,1629.0
107.738,1740.0
107.739,1824.0
107.74,1881.0
107.741,1851.0
107.742,1716.0
107.743,1653.0
107.744,1647.0
107.745,1739.0
107.746,1786.0
107.747,1775.0
107.748,1763.0
107.749,1694.0
107.75,1617.0
107.751,1728.0
107.752,1985.0
107.753,2252.0
107.754,2384.0
107.755,2493.0
107.756,2552.0
107.757,2517.0
107.758,2372.0
107.759,2349.0
107.76,2354.0
107.761,2384.0
107.762,2378.0
107.763,2341.0
107.764,2241.0
107.765,2036.0
107.766,1799.0
107.767,1725.0
107.768,1724.0
107.769,1745.0
107.77,1713.0
107.771,1656.0
107.772,1627.0
107.773,1444.0
107.774,1335.0
107.775,1371.0
107.776,1506.0
107.777,1654.0
107.778,1697.0
107.779,1708.0
107.78,1697.0
107.781,1498.0
107.782,1452.0
107.783,1528.0
107.784,1660.0
107.785,1807.0
107.786,1851.0
107.787,1880.0
107.788,1862.0
107.789,1665.0
107.79,1636.0
107.791,1710.0
107.792,1870.0
107.793,1994.0
107.794,2000.0
107.795,1992.0
107.796,1940.0
107.797,1737.0
107.798,1719.0
107.799,1808.0
107.8,1960.0
107.801,2078.0
107.802,2087.0
107.803,2095.0
107.804,2024.0
107.805,1884.0
107.806,1899.0
107.807,1994.0
107.808,2173.0
107.809,2264.0
107.81,2250.0
107.811,2198.0
107.812,2040.0
107.813,1927.0
107.814,1958.0
107.815,2080.0
107.816,2222.0
107.817,2277.0
107.818,2221.0
107.819,2132.0
107.82,1930.0
107.821,1847.0
107.822,1912.0
107.823,2007.0
107.824,2160.0
107.825,2184.0
107.826,2149.0
107.827,2058.0
107.828,1876.0
107.829,1814.0
107.83,1886.0
107.831,2022.0
107.832,2171.0
107.833,2185.0
107.834,2150.0
107.835,2063.0
107.836,1901.0
107.837,1817.0
107.838,1930.0
107.839,2076.0
107.84,2196.0
107.841,2200.0
107.842,2135.0
107.843,2035.0
107.844,1895.0
107.845,1861.0
107.846,2012.0
107.847,2163.0
107.848,2284.0
107.849,2274.0
107.85,2211.0
107.851,2099.0
107.852,1968.0
107.853,1984.0
107.854,2112.0
107.855,2256.0
107.856,2352.0
107.857,2320.0
107.858,2238.0
107.859,2085.0
107.86,1967.0
107.861,2041.0
107.862,2141.0
107.863,2262.0
107.864,2323.0
107.865,2291.0
107.866,2230.0
107.867,2033.0
107.868,1926.0
107.869,2036.0
107.87,2182.0
107.871,2338.0
107.872,2409.0
107.873,2382.0
107.874,2300.0
107.875,2132.0
107.876,2058.0
107.877,2162.0
107.878,2288.0
107.879,2375.0
107.88,2400.0
107.881,2350.0
107.882,2206.0
107.883,2087.0
107.884,2020.0
107.885,2149.0
107.886,2275.0
107.887,2327.0
107.888,2341.0
107.889,2289.0
107.89,2094.0
107.891,2012.0
107.892,2007.0
107.893,2117.0
107.894,2270.0
107.895,2385.0
107.896,2412.0
107.897,2355.0
107.898,2155.0
107.899,2120.0
107.9,2176.0
107.901,2289.0
107.902,2400.0
107.903,2419.0
107.904,2412.0
107.905,2355.0
107.906,2141.0
107.907,2159.0
107.908,2212.0
107.909,2321.0
107.91,2408.0
107.911,2421.0
107.912,2411.0
107.913,2298.0
107.914,2122.0
107.915,2137.0
107.916,2215.0
107.917,2336.0
107.918,2415.0
107.919,2402.0
107.92,2393.0
107.921,2228.0
107.922,2110.0
107.923,2130.0
107.924,2235.0
107.925,2385.0
107.926,2448.0
107.927,2400.0
107.928,2387.0
107.929,2190.0
107.93,2091.0
107.931,2154.0
107.932,2255.0
107.933,2382.0
107.934,2422.0
107.935,2399.0
107.936,2348.0
107.937,2133.0
107.938,2074.0
107.939,2151.0
107.94,2261.0
107.941,2396.0
107.942,2415.0
107.943,2379.0
107.944,2328.0
107.945,2098.0
107.946,2055.0
107.947,2141.0
107.948,2283.0
107.949,2394.0
107.95,2380.0
107.951,2339.0
107.952,2237.0
107.953,2075.0
107.954,2010.0
107.955,2140.0
107.956,2286.0
107.957,2368.0
107.958,2361.0
107.959,2293.0
107.96,2153.0
107.961,2026.0
107.962,2015.0
107.963,2135.0
107.964,2284.0
107.965,2365.0
107.966,2350.0
107.967,2252.0
107.968,2099.0
107.969,1990.0
107.97,2054.0
107.971,2144.0
107.972,2305.0
107.973,2345.0
107.974,2317.0
107.975,2232.0
107.976,2047.0
107.977,1960.0
107.978,2073.0
107.979,2173.0
107.98,2296.0
107.981,2324.0
107.982,2283.0
107.983,2213.0
107.984,2028.0
107.985,1953.0
107.986,2076.0
107.987,2183.0
107.988,2290.0
107.989,2290.0
107.99,2252.0
107.991,2132.0
107.992,2009.0
107.993,1924.0
107.994,2074.0
107.995,2173.0
107.996,2280.0
107.997,2287.0
107.998,2240.0
107.999,2087.0
108.0,1967.0
108.001,1960.0
108.002,2080.0
108.003,2168.0
108.004,2261.0
108.005,2262.0
108.006,2209.0
108.007,2035.0
108.008,1938.0
108.009,1979.0
108.01,2100.0
108.011,2165.0
108.012,2259.0
108.013,2216.0
108.014,2182.0
108.015,1954.0
108.016,1919.0
108.017,1999.0
108.018,2095.0
108.019,2161.0
108.02,2227.0
108.021,2205.0
108.022,2145.0
108.023,1957.0
108.024,1921.0
108.025,2014.0
108.026,2144.0
108.027,2191.0
108.028,2225.0
108.029,2218.0
108.03,2072.0
108.031,1949.0
108.032,1923.0
108.033,2051.0
108.034,2182.0
108.035,2202.0
108.036,2235.0
108.037,2208.0
108.038,2029.0
108.039,1942.0
108.04,1981.0
108.041,2093.0
108.042,2209.0
108.043,2211.0
108.044,2246.0
108.045,2195.0
108.046,1976.0
108.047,1924.0
108.048,2004.0
108.049,2111.0
108.05,2220.0
108.051,2211.0
108.052,2214.0
108.053,2165.0
108.054,1962.0
108.055,1922.0
108.056,2013.0
108.057,2132.0
108.058,2237.0
108.059,2195.0
108.06,2202.0
108.061,2095.0
108.062,1919.0
108.063,1905.0
108.064,1997.0
108.065,2135.0
108.066,2231.0
108.067,2181.0
108.068,2190.0
108.069,2042.0
108.07,1886.0
108.071,1822.0
108.072,1876.0
108.073,1921.0
108.074,1923.0
108.075,1860.0
108.076,1947.0
108.077,1915.0
108.078,2024.0
108.079,2189.0
108.08,2407.0
108.081,2639.0
108.082,2746.0
108.083,2733.0
108.084,2709.0
108.085,2509.0
108.086,2381.0
108.087,2356.0
108.088,2419.0
108.089,2515.0
108.09,2499.0
108.091,2409.0
108.092,2302.0
108.093,2055.0
108.094,1928.0
108.095,1953.0
108.096,2035.0
108.097,2105.0
108.098,2081.0
108.099,2003.0
108.1,1904.0
108.101,1737.0
108.102,1693.0
108.103,1799.0
108.104,1969.0
108.105,2064.0
108.106,2098.0
108.107,1968.0
108.108,1857.0
108.109,1717.0
108.11,1701.0
108.111,1845.0
108.112,2004.0
108.113,2098.0
108.114,2064.0
108.115,1971.0
108.116,1847.0
108.117,1754.0
108.118,1757.0
108.119,1889.0
108.12,2043.0
108.121,2109.0
108.122,2084.0
108.123,1990.0
108.124,1848.0
108.125,1768.0
108.126,1870.0
108.127,1967.0
108.128,2100.0
108.129,2134.0
108.13,2096.0
108.131,2015.0
108.132,1836.0
108.133,1752.0
108.134,1871.0
108.135,1995.0
108.136,2100.0
108.137,2149.0
108.138,2091.0
108.139,1983.0
108.14,1827.0
108.141,1758.0
108.142,1897.0
108.143,2017.0
108.144,2107.0
108.145,2104.0
108.146,2065.0
108.147,1922.0
108.148,1779.0
108.149,1747.0
108.15,1905.0
108.151,2019.0
108.152,2104.0
108.153,2094.0
108.154,2043.0
108.155,1892.0
108.156,1794.0
108.157,1820.0
108.158,1949.0
108.159,2055.0
108.16,2128.0
108.161,2120.0
108.162,2066.0
108.163,1898.0
108.164,1841.0
108.165,1900.0
108.166,2032.0
108.167,2118.0
108.168,2174.0
108.169,2179.0
108.17,2126.0
108.171,1941.0
108.172,1925.0
108.173,2003.0
108.174,2134.0
108.175,2210.0
108.176,2250.0
108.177,2245.0
108.178,2111.0
108.179,1991.0
108.18,1974.0
108.181,2066.0
108.182,2194.0
108.183,2269.0
108.184,2294.0
108.185,2262.0
108.186,2073.0
108.187,1987.0
108.188,1995.0
108.189,2107.0
108.19,2242.0
108.191,2286.0
108.192,2290.0
108.193,2235.0
108.194,2032.0
108.195,1976.0
108.196,2018.0
108.197,2113.0
108.198,2237.0
108.199,2266.0
108.2,2258.0
108.201,2209.0
108.202,1977.0
108.203,1943.0
108.204,2004.0
108.205,2130.0
108.206,2237.0
108.207,2224.0
108.208,2222.0
108.209,2157.0
108.21,1931.0
108.211,1935.0
108.212,1988.0
108.213,2130.0
108.214,2217.0
108.215,2197.0
108.216,2174.0
108.217,2061.0
108.218,1896.0
108.219,1897.0
108.22,1980.0
108.221,2128.0
108.222,2199.0
108.223,2173.0
108.224,2144.0
108.225,1977.0
108.226,1869.0
108.227,1883.0
108.228,1984.0
108.229,2133.0
108.23,2198.0
108.231,2178.0
108.232,2104.0
108.233,1916.0
108.234,1840.0
108.235,1901.0
108.236,2007.0
108.237,2155.0
108.238,2187.0
108.239,2153.0
108.24,2082.0
108.241,1885.0
108.242,1794.0
108.243,1901.0
108.244,2035.0
108.245,2159.0
108.246,2171.0
108.247,2115.0
108.248,2047.0
108.249,1878.0
108.25,1811.0
108.251,1926.0
108.252,2041.0
108.253,2169.0
108.254,2162.0
108.255,2092.0
108.256,2002.0
108.257,1869.0
108.258,1797.0
108.259,1934.0
108.26,2054.0
108.261,2168.0
108.262,2158.0
108.263,2072.0
108.264,1962.0
108.265,1838.0
108.266,1847.0
108.267,1957.0
108.268,2070.0
108.269,2164.0
108.27,2151.0
108.271,2068.0
108.272,1947.0
108.273,1833.0
108.274,1891.0
108.275,2005.0
108.276,2095.0
108.277,2176.0
108.278,2147.0
108.279,2081.0
108.28,1921.0
108.281,1818.0
108.282,1909.0
108.283,2053.0
108.284,2100.0
108.285,2167.0
108.286,2140.0
108.287,2047.0
108.288,1899.0
108.289,1803.0
108.29,1938.0
108.291,2067.0
108.292,2118.0
108.293,2177.0
108.294,2131.0
108.295,2006.0
108.296,1902.0
108.297,1850.0
108.298,1984.0
108.299,2088.0
108.3,2137.0
108.301,2175.0
108.302,2133.0
108.303,1956.0
108.304,1887.0
108.305,1892.0
108.306,2013.0
108.307,2108.0
108.308,2149.0
108.309,2178.0
108.31,2110.0
108.311,1933.0
108.312,1866.0
108.313,1934.0
108.314,2035.0
108.315,2106.0
108.316,2140.0
108.317,2149.0
108.318,2092.0
108.319,1870.0
108.32,1853.0
108.321,1936.0
108.322,2047.0
108.323,2128.0
108.324,2131.0
108.325,2137.0
108.326,1978.0
108.327,1877.0
108.328,1863.0
108.329,1955.0
108.33,2092.0
108.331,2159.0
108.332,2144.0
108.333,2154.0
108.334,1976.0
108.335,1872.0
108.336,1890.0
108.337,2012.0
108.338,2145.0
108.339,2192.0
108.34,2163.0
108.341,2167.0
108.342,1948.0
108.343,1891.0
108.344,1939.0
108.345,2033.0
108.346,2165.0
108.347,2200.0
108.348,2158.0
108.349,2137.0
108.35,1920.0
108.351,1868.0
108.352,1946.0
108.353,2068.0
108.354,2190.0
108.355,2210.0
108.356,2169.0
108.357,2118.0
108.358,1912.0
108.359,1873.0
108.36,1955.0
108.361,2112.0
108.362,2190.0
108.363,2184.0
108.364,2138.0
108.365,2039.0
108.366,1897.0
108.367,1859.0
108.368,1957.0
108.369,2124.0
108.37,2172.0
108.371,2105.0
108.372,1965.0
108.373,1750.0
108.374,1555.0
108.375,1520.0
108.376,1719.0
108.377,2031.0
108.378,2267.0
108.379,2405.0
108.38,2415.0
108.381,2354.0
108.382,2344.0
108.383,2426.0
108.384,2529.0
108.385,2701.0
108.386,2702.0
108.387,2605.0
108.388,2438.0
108.389,2236.0
108.39,2123.0
108.391,2195.0
108.392,2251.0
108.393,2339.0
108.394,2304.0
108.395,2191.0
108.396,2041.0
108.397,1817.0
108.398,1717.0
108.399,1807.0
108.4,1913.0
108.401,2026.0
108.402,2027.0
108.403,1978.0
108.404,1866.0
108.405,1730.0
108.406,1654.0
108.407,1821.0
108.408,1920.0
108.409,2050.0
108.41,2039.0
108.411,1986.0
108.412,1837.0
108.413,1723.0
108.414,1711.0
108.415,1856.0
108.416,1970.0
108.417,2074.0
108.418,2052.0
108.419,2001.0
108.42,1835.0
108.421,1720.0
108.422,1779.0
108.423,1917.0
108.424,2015.0
108.425,2090.0
108.426,2062.0
108.427,2006.0
108.428,1824.0
108.429,1725.0
108.43,1832.0
108.431,1957.0
108.432,2022.0
108.433,2094.0
108.434,2056.0
108.435,1972.0
108.436,1800.0
108.437,1712.0
108.438,1835.0
108.439,1974.0
108.44,2024.0
108.441,2073.0
108.442,2029.0
108.443,1893.0
108.444,1777.0
108.445,1719.0
108.446,1846.0
108.447,1984.0
108.448,2028.0
108.449,2058.0
108.45,2022.0
108.451,1827.0
108.452,1760.0
108.453,1768.0
108.454,1881.0
108.455,2013.0
108.456,2041.0
108.457,2072.0
108.458,2017.0
108.459,1816.0
108.46,1769.0
108.461,1843.0
108.462,1944.0
108.463,2071.0
108.464,2090.0
108.465,2108.0
108.466,2054.0
108.467,1853.0
108.468,1838.0
108.469,1927.0
108.47,2043.0
108.471,2173.0
108.472,2164.0
108.473,2186.0
108.474,2067.0
108.475,1927.0
108.476,1922.0
108.477,1999.0
108.478,2138.0
108.479,2249.0
108.48,2225.0
108.481,2246.0
108.482,2092.0
108.483,1972.0
108.484,1971.0
108.485,2075.0
108.486,2225.0
108.487,2306.0
108.488,2263.0
108.489,2258.0
108.49,2054.0
108.491,1962.0
108.492,2014.0
108.493,2118.0
108.494,2260.0
108.495,2316.0
108.496,2280.0
108.497,2235.0
108.498,2024.0
108.499,1931.0
108.5,2022.0
108.501,2135.0
108.502,2255.0
108.503,2299.0
108.504,2253.0
108.505,2196.0
108.506,1986.0
108.507,1927.0
108.508,1998.0
108.509,2156.0
108.51,2262.0
108.511,2271.0
108.512,2210.0
108.513,2121.0
108.514,1956.0
108.515,1897.0
108.516,2003.0
108.517,2148.0
108.518,2241.0
108.519,2248.0
108.52,2169.0
108.521,2048.0
108.522,1921.0
108.523,1887.0
108.524,2011.0
108.525,2155.0
108.526,2239.0
108.527,2218.0
108.528,2126.0
108.529,1996.0
108.53,1890.0
108.531,1924.0
108.532,2015.0
108.533,2173.0
108.534,2232.0
108.535,2215.0
108.536,2119.0
108.537,1978.0
108.538,1890.0
108.539,1967.0
108.54,2086.0
108.541,2188.0
108.542,2233.0
108.543,2203.0
108.544,2122.0
108.545,1959.0
108.546,1880.0
108.547,1979.0
108.548,2094.0
108.549,2189.0
108.55,2224.0
108.551,2195.0
108.552,2079.0
108.553,1938.0
108.554,1864.0
108.555,1983.0
108.556,2098.0
108.557,2189.0
108.558,2204.0
108.559,2177.0
108.56,2025.0
108.561,1920.0
108.562,1880.0
108.563,2012.0
108.564,2098.0
108.565,2184.0
108.566,2201.0
108.567,2158.0
108.568,1984.0
108.569,1903.0
108.57,1927.0
108.571,2027.0
108.572,2115.0
108.573,2200.0
108.574,2195.0
108.575,2131.0
108.576,1934.0
108.577,1885.0
108.578,1950.0
108.579,2068.0
108.58,2128.0
108.581,2179.0
108.582,2172.0
108.583,2108.0
108.584,1919.0
108.585,1868.0
108.586,1970.0
108.587,2090.0
108.588,2142.0
108.589,2175.0
108.59,2167.0
108.591,2038.0
108.592,1894.0
108.593,1894.0
108.594,1996.0
108.595,2124.0
108.596,2145.0
108.597,2165.0
108.598,2146.0
108.599,1968.0
108.6,1872.0
108.601,1918.0
108.602,2006.0
108.603,2138.0
108.604,2146.0
108.605,2153.0
108.606,2132.0
108.607,1932.0
108.608,1855.0
108.609,1928.0
108.61,2031.0
108.611,2151.0
108.612,2150.0
108.613,2155.0
108.614,2116.0
108.615,1897.0
108.616,1841.0
108.617,1920.0
108.618,2049.0
108.619,2152.0
108.62,2140.0
108.621,2129.0
108.622,2068.0
108.623,1862.0
108.624,1825.0
108.625,1911.0
108.626,2072.0
108.627,2158.0
108.628,2133.0
108.629,2132.0
108.63,1997.0
108.631,1860.0
108.632,1849.0
108.633,1954.0
108.634,2120.0
108.635,2206.0
108.636,2150.0
108.637,2127.0
108.638,1942.0
108.639,1857.0
108.64,1886.0
108.641,1990.0
108.642,2163.0
108.643,2204.0
108.644,2180.0
108.645,2121.0
108.646,1946.0
108.647,1849.0
108.648,1919.0
108.649,2029.0
108.65,2177.0
108.651,2199.0
108.652,2165.0
108.653,2085.0
108.654,1892.0
108.655,1856.0
108.656,1922.0
108.657,2068.0
108.658,2187.0
108.659,2184.0
108.66,2132.0
108.661,2057.0
108.662,1895.0
108.663,1837.0
108.664,1945.0
108.665,2090.0
108.666,2194.0
108.667,2190.0
108.668,2113.0
108.669,2002.0
108.67,1873.0
108.671,1828.0
108.672,1968.0
108.673,2117.0
108.674,2155.0
108.675,2070.0
108.676,1901.0
108.677,1704.0
108.678,1531.0
108.679,1615.0
108.68,1871.0
108.681,2205.0
108.682,2462.0
108.683,2543.0
108.684,2541.0
108.685,2460.0
108.686,2382.0
108.687,2485.0
108.688,2603.0
108.689,2689.0
108.69,2633.0
108.691,2531.0
108.692,2438.0
108.693,2225.0
108.694,2078.0
108.695,2095.0
108.696,2200.0
108.697,2225.0
108.698,2185.0
108.699,2072.0
108.7,1928.0
108.701,1746.0
108.702,1647.0
108.703,1770.0
108.704,1892.0
108.705,1983.0
108.706,2001.0
108.707,1983.0
108.708,1836.0
108.709,1711.0
108.71,1664.0
108.711,1810.0
108.712,1922.0
108.713,2014.0
108.714,2033.0
108.715,1979.0
108.716,1831.0
108.717,1737.0
108.718,1747.0
108.719,1870.0
108.72,1976.0
108.721,2034.0
108.722,2054.0
108.723,1996.0
108.724,1806.0
108.725,1771.0
108.726,1812.0
108.727,1929.0
108.728,2021.0
108.729,2061.0
108.73,2049.0
108.731,1985.0
108.732,1788.0
108.733,1753.0
108.734,1832.0
108.735,1961.0
108.736,2041.0
108.737,2063.0
108.738,2050.0
108.739,1928.0
108.74,1762.0
108.741,1758.0
108.742,1857.0
108.743,1980.0
108.744,2032.0
108.745,2045.0
108.746,2020.0
108.747,1840.0
108.748,1740.0
108.749,1759.0
108.75,1861.0
108.751,1981.0
108.752,2035.0
108.753,2032.0
108.754,2014.0
108.755,1795.0
108.756,1733.0
108.757,1780.0
108.758,1890.0
108.759,2015.0
108.76,2047.0
108.761,2044.0
108.762,2006.0
108.763,1799.0
108.764,1759.0
108.765,1826.0
108.766,1954.0
108.767,2085.0
108.768,2105.0
108.769,2103.0
108.77,2046.0
108.771,1849.0
108.772,1829.0
108.773,1934.0
108.774,2073.0
108.775,2191.0
108.776,2200.0
108.777,2179.0
108.778,2068.0
108.779,1932.0
108.78,1904.0
108.781,2012.0
108.782,2188.0
108.783,2272.0
108.784,2264.0
108.785,2226.0
108.786,2071.0
108.787,1967.0
108.788,1970.0
108.789,2090.0
108.79,2253.0
108.791,2326.0
108.792,2308.0
108.793,2232.0
108.794,2063.0
108.795,1966.0
108.796,2036.0
108.797,2136.0
108.798,2280.0
108.799,2333.0
108.8,2302.0
108.801,2214.0
108.802,2041.0
108.803,1963.0
108.804,2040.0
108.805,2159.0
108.806,2290.0
108.807,2312.0
108.808,2261.0
108.809,2194.0
108.81,2012.0
108.811,1927.0
108.812,2052.0
108.813,2169.0
108.814,2292.0
108.815,2277.0
108.816,2248.0
108.817,2149.0
108.818,2002.0
108.819,1931.0
108.82,2054.0
108.821,2159.0
108.822,2267.0
108.823,2271.0
108.824,2207.0
108.825,2072.0
108.826,1968.0
108.827,1945.0
108.828,2064.0
108.829,2161.0
108.83,2249.0
108.831,2248.0
108.832,2175.0
108.833,2042.0
108.834,1913.0
108.835,1972.0
108.836,2083.0
108.837,2162.0
108.838,2231.0
108.839,2211.0
108.84,2158.0
108.841,1981.0
108.842,1892.0
108.843,1981.0
108.844,2110.0
108.845,2159.0
108.846,2218.0
108.847,2189.0
108.848,2113.0
108.849,1939.0
108.85,1886.0
108.851,1988.0
108.852,2111.0
108.853,2161.0
108.854,2210.0
108.855,2175.0
108.856,2045.0
108.857,1913.0
108.858,1873.0
108.859,1991.0
108.86,2133.0
108.861,2165.0
108.862,2182.0
108.863,2160.0
108.864,1985.0
108.865,1898.0
108.866,1917.0
108.867,2028.0
108.868,2151.0
108.869,2168.0
108.87,2185.0
108.871,2128.0
108.872,1934.0
108.873,1880.0
108.874,1943.0
108.875,2038.0
108.876,2157.0
108.877,2161.0
108.878,2150.0
108.879,2106.0
108.88,1901.0
108.881,1863.0
108.882,1950.0
108.883,2106.0
108.884,2180.0
108.885,2145.0
108.886,2157.0
108.887,2049.0
108.888,1884.0
108.889,1873.0
108.89,1969.0
108.891,2093.0
108.892,2174.0
108.893,2139.0
108.894,2144.0
108.895,1972.0
108.896,1861.0
108.897,1867.0
108.898,1980.0
108.899,2130.0
108.9,2183.0
108.901,2113.0
108.902,2117.0
108.903,1935.0
108.904,1848.0
108.905,1882.0
108.906,1997.0
108.907,2128.0
108.908,2189.0
108.909,2138.0
108.91,2098.0
108.911,1889.0
108.912,1812.0
108.913,1887.0
108.914,2014.0
108.915,2144.0
108.916,2172.0
108.917,2117.0
108.918,2068.0
108.919,1877.0
108.92,1821.0
108.921,1905.0
108.922,2053.0
108.923,2166.0
108.924,2170.0
108.925,2105.0
108.926,2012.0
108.927,1851.0
108.928,1795.0
108.929,1906.0
108.93,2075.0
108.931,2154.0
108.932,2145.0
108.933,2056.0
108.934,1923.0
108.935,1817.0
108.936,1807.0
108.937,1930.0
108.938,2099.0
108.939,2176.0
108.94,2140.0
108.941,2050.0
108.942,1917.0
108.943,1789.0
108.944,1884.0
108.945,1976.0
108.946,2130.0
108.947,2211.0
108.948,2155.0
108.949,2057.0
108.95,1901.0
108.951,1826.0
108.952,1935.0
108.953,2031.0
108.954,2181.0
108.955,2200.0
108.956,2169.0
108.957,2090.0
108.958,1911.0
108.959,1833.0
108.96,1933.0
108.961,2063.0
108.962,2189.0
108.963,2185.0
108.964,2161.0
108.965,2038.0
108.966,1901.0
108.967,1827.0
108.968,1973.0
108.969,2067.0
108.97,2199.0
108.971,2195.0
108.972,2152.0
108.973,2001.0
108.974,1875.0
108.975,1845.0
108.976,1983.0
108.977,2082.0
108.978,2169.0
108.979,2174.0
108.98,2116.0
108.981,1959.0
108.982,1855.0
108.983,1896.0
108.984,1994.0
108.985,2021.0
108.986,2025.0
108.987,1919.0
108.988,1808.0
108.989,1660.0
108.99,1720.0
108.991,1968.0
108.992,2299.0
108.993,2487.0
108.994,2613.0
108.995,2662.0
108.996,2620.0
108.997,2469.0
108.998,2438.0
108.999,2489.0
109.0,2510.0
109.001,2519.0
109.002,2515.0
109.003,2442.0
109.004,2233.0
109.005,2056.0
109.006,1959.0
109.007,2010.0
109.008,2062.0
109.009,2039.0
109.01,2013.0
109.011,1947.0
109.012,1734.0
109.013,1645.0
109.014,1664.0
109.015,1771.0
109.016,1918.0
109.017,1950.0
109.018,1962.0
109.019,1927.0
109.02,1693.0
109.021,1671.0
109.022,1727.0
109.023,1818.0
109.024,1951.0
109.025,1970.0
109.026,1968.0
109.027,1926.0
109.028,1724.0
109.029,1694.0
109.03,1762.0
109.031,1881.0
109.032,2006.0
109.033,1994.0
109.034,2001.0
109.035,1923.0
109.036,1735.0
109.037,1723.0
109.038,1791.0
109.039,1939.0
109.04,2032.0
109.041,2016.0
109.042,2004.0
109.043,1852.0
109.044,1735.0
109.045,1730.0
109.046,1821.0
109.047,1967.0
109.048,2049.0
109.049,1989.0
109.05,1985.0
109.051,1821.0
109.052,1701.0
109.053,1748.0
109.054,1849.0
109.055,1985.0
109.056,2034.0
109.057,2011.0
109.058,1962.0
109.059,1770.0
109.06,1679.0
109.061,1753.0
109.062,1860.0
109.063,1993.0
109.064,2036.0
109.065,2005.0
109.066,1945.0
109.067,1758.0
109.068,1684.0
109.069,1770.0
109.07,1915.0
109.071,2047.0
109.072,2068.0
109.073,2017.0
109.074,1938.0
109.075,1789.0
109.076,1726.0
109.077,1840.0
109.078,1987.0
109.079,2110.0
109.08,2128.0
109.081,2059.0
109.082,1970.0
109.083,1854.0
109.084,1811.0
109.085,1957.0
109.086,2098.0
109.087,2219.0
109.088,2209.0
109.089,2138.0
109.09,2044.0
109.091,1925.0
109.092,1950.0
109.093,2053.0
109.094,2186.0
109.095,2282.0
109.096,2274.0
109.097,2185.0
109.098,2060.0
109.099,1959.0
109.1,2019.0
109.101,2126.0
109.102,2234.0
109.103,2290.0
109.104,2269.0
109.105,2211.0
109.106,2067.0
109.107,1973.0
109.108,2054.0
109.109,2179.0
109.11,2242.0
109.111,2295.0
109.112,2252.0
109.113,2164.0
109.114,2025.0
109.115,1952.0
109.116,2057.0
109.117,2158.0
109.118,2247.0
109.119,2274.0
109.12,2240.0
109.121,2097.0
109.122,1980.0
109.123,1919.0
109.124,2064.0
109.125,2151.0
109.126,2215.0
109.127,2242.0
109.128,2201.0
109.129,2023.0
109.13,1949.0
109.131,1956.0
109.132,2061.0
109.133,2146.0
109.134,2199.0
109.135,2220.0
109.136,2157.0
109.137,1973.0
109.138,1915.0
109.139,1970.0
109.14,2074.0
109.141,2155.0
109.142,2184.0
109.143,2181.0
109.144,2118.0
109.145,1933.0
109.146,1906.0
109.147,1981.0
109.148,2088.0
109.149,2151.0
109.15,2176.0
109.151,2169.0
109.152,2051.0
109.153,1906.0
109.154,1894.0
109.155,1984.0
109.156,2109.0
109.157,2163.0
109.158,2146.0
109.159,2153.0
109.16,1998.0
109.161,1898.0
109.162,1909.0
109.163,2001.0
109.164,2128.0
109.165,2148.0
109.166,2150.0
109.167,2131.0
109.168,1909.0
109.169,1878.0
109.17,1922.0
109.171,2029.0
109.172,2142.0
109.173,2147.0
109.174,2138.0
109.175,2106.0
109.176,1886.0
109.177,1844.0
109.178,1926.0
109.179,2047.0
109.18,2159.0
109.181,2143.0
109.182,2126.0
109.183,2081.0
109.184,1875.0
109.185,1847.0
109.186,1923.0
109.187,2071.0
109.188,2158.0
109.189,2134.0
109.19,2123.0
109.191,1989.0
109.192,1866.0
109.193,1832.0
109.194,1937.0
109.195,2100.0
109.196,2162.0
109.197,2133.0
109.198,2098.0
109.199,1932.0
109.2,1834.0
109.201,1841.0
109.202,1951.0
109.203,2112.0
109.204,2173.0
109.205,2150.0
109.206,2069.0
109.207,1900.0
109.208,1812.0
109.209,1878.0
109.21,1984.0
109.211,2144.0
109.212,2173.0
109.213,2143.0
109.214,2055.0
109.215,1878.0
109.216,1803.0
109.217,1888.0
109.218,2018.0
109.219,2158.0
109.22,2171.0
109.221,2122.0
109.222,2048.0
109.223,1877.0
109.224,1812.0
109.225,1925.0
109.226,2058.0
109.227,2182.0
109.228,2173.0
109.229,2093.0
109.23,2004.0
109.231,1870.0
109.232,1799.0
109.233,1954.0
109.234,2095.0
109.235,2195.0
109.236,2171.0
109.237,2099.0
109.238,1961.0
109.239,1847.0
109.24,1851.0
109.241,1970.0
109.242,2087.0
109.243,2168.0
109.244,2139.0
109.245,2054.0
109.246,1903.0
109.247,1814.0
109.248,1872.0
109.249,1996.0
109.25,2105.0
109.251,2162.0
109.252,2136.0
109.253,2078.0
109.254,1901.0
109.255,1807.0
109.256,1897.0
109.257,2050.0
109.258,2132.0
109.259,2179.0
109.26,2149.0
109.261,2064.0
109.262,1909.0
109.263,1841.0
109.264,1952.0
109.265,2074.0
109.266,2163.0
109.267,2198.0
109.268,2158.0
109.269,2020.0
109.27,1889.0
109.271,1855.0
109.272,1969.0
109.273,2096.0
109.274,2167.0
109.275,2179.0
109.276,2140.0
109.277,1975.0
109.278,1891.0
109.279,1892.0
109.28,1994.0
109.281,2116.0
109.282,2169.0
109.283,2180.0
109.284,2123.0
109.285,1924.0
109.286,1886.0
109.287,1921.0
109.288,2023.0
109.289,2133.0
109.29,2153.0
109.291,2155.0
109.292,2084.0
109.293,1881.0
109.294,1881.0
109.295,1925.0
109.296,1986.0
109.297,2025.0
109.298,1940.0
109.299,1876.0
109.3,1699.0
109.301,1598.0
109.302,1708.0
109.303,1947.0
109.304,2254.0
109.305,2450.0
109.306,2528.0
109.307,2591.0
109.308,2456.0
109.309,2372.0
109.31,2417.0
109.311,2489.0
109.312,2549.0
109.313,2520.0
109.314,2468.0
109.315,2415.0
109.316,2144.0
109.317,2042.0
109.318,2029.0
109.319,2093.0
109.32,2149.0
109.321,2129.0
109.322,2036.0
109.323,1971.0
109.324,1740.0
109.325,1651.0
109.326,1727.0
109.327,1841.0
109.328,1953.0
109.329,1988.0
109.33,1955.0
109.331,1906.0
109.332,1697.0
109.333,1657.0
109.334,1742.0
109.335,1885.0
109.336,1995.0
109.337,2001.0
109.338,1951.0
109.339,1867.0
109.34,1723.0
109.341,1680.0
109.342,1782.0
109.343,1938.0
109.344,2029.0
109.345,2029.0
109.346,1961.0
109.347,1820.0
109.348,1720.0
109.349,1697.0
109.35,1816.0
109.351,1983.0
109.352,2053.0
109.353,2047.0
109.354,1949.0
109.355,1799.0
109.356,1705.0
109.357,1765.0
109.358,1843.0
109.359,2002.0
109.36,2047.0
109.361,2036.0
109.362,1937.0
109.363,1777.0
109.364,1694.0
109.365,1785.0
109.366,1890.0
109.367,2024.0
109.368,2038.0
109.369,2018.0
109.37,1931.0
109.371,1764.0
109.372,1691.0
109.373,1792.0
109.374,1910.0
109.375,2024.0
109.376,2031.0
109.377,2010.0
109.378,1891.0
109.379,1766.0
109.38,1683.0
109.381,1825.0
109.382,1932.0
109.383,2010.0
109.384,2072.0
109.385,2040.0
109.386,1894.0
109.387,1792.0
109.388,1766.0
109.389,1927.0
109.39,1982.0
109.391,2109.0
109.392,2121.0
109.393,2075.0
109.394,1921.0
109.395,1844.0
109.396,1851.0
109.397,1998.0
109.398,2076.0
109.399,2185.0
109.4,2177.0
109.401,2131.0
109.402,1953.0
109.403,1889.0
109.404,1972.0
109.405,2099.0
109.406,2158.0
109.407,2220.0
109.408,2205.0
109.409,2157.0
109.41,1969.0
109.411,1935.0
109.412,2027.0
109.413,2164.0
109.414,2209.0
109.415,2256.0
109.416,2224.0
109.417,2100.0
109.418,1954.0
109.419,1954.0
109.42,2056.0
109.421,2199.0
109.422,2207.0
109.423,2257.0
109.424,2224.0
109.425,2041.0
109.426,1961.0
109.427,1988.0
109.428,2081.0
109.429,2208.0
109.43,2199.0
109.431,2240.0
109.432,2190.0
109.433,1990.0
109.434,1937.0
109.435,2008.0
109.436,2101.0
109.437,2234.0
109.438,2216.0
