846.028999987,2399.0
846.029999987,2196.0
846.030999987,2106.0
846.031999987,2109.0
846.032999987,2153.0
846.033999987,2272.0
846.034999987,2382.0
846.035999987,2389.0
846.036999987,2337.0
846.037999987,2138.0
846.038999987,2069.0
846.039999987,2064.0
846.040999987,2147.0
846.041999987,2300.0
846.042999987,2364.0
846.043999987,2360.0
846.044999987,2237.0
846.045999987,2108.0
846.046999987,2068.0
846.047999987,2034.0
846.048999987,2122.0
846.049999987,2317.0
846.050999987,2349.0
846.051999987,2310.0
846.052999987,2180.0
846.053999987,2071.0
846.054999987,2028.0
846.055999987,2025.0
846.056999987,2158.0
846.057999987,2332.0
846.058999987,2338.0
846.059999987,2287.0
846.060999987,2163.0
846.061999987,2025.0
846.062999987,1983.0
846.063999987,2021.0
846.064999987,2185.0
846.065999987,2329.0
846.066999987,2306.0
846.067999987,2256.0
846.068999987,2104.0
846.069999987,2004.0
846.070999987,1998.0
846.071999987,2025.0
846.072999987,2247.0
846.073999987,2341.0
846.074999987,2290.0
846.075999987,2217.0
846.076999987,2106.0
846.077999987,2007.0
846.078999987,1954.0
846.079999987,2039.0
846.080999987,2265.0
846.081999987,2337.0
846.082999987,2268.0
846.083999987,2121.0
846.084999987,2075.0
846.085999987,1992.0
846.086999987,1966.0
846.087999987,2072.0
846.088999987,2328.0
846.089999987,2333.0
846.090999987,2257.0
846.091999987,2127.0
846.092999987,2060.0
846.093999987,1985.0
846.094999987,1982.0
846.095999987,2116.0
846.096999987,2325.0
846.097999987,2341.0
846.098999987,2233.0
846.099999987,2108.0
846.100999987,2059.0
846.101999987,2007.0
846.102999987,1988.0
846.103999987,2160.0
846.104999987,2342.0
846.105999987,2332.0
846.106999987,2202.0
846.107999987,2088.0
846.108999987,2042.0
846.109999987,1962.0
846.110999987,2006.0
846.111999987,2233.0
846.112999987,2370.0
846.113999987,2300.0
846.114999987,2161.0
846.115999987,2078.0
846.116999987,2038.0
846.117999987,1983.0
846.118999987,2006.0
846.119999987,2242.0
846.120999987,2356.0
846.121999987,2294.0
846.122999987,2087.0
846.123999987,2031.0
846.124999987,2035.0
846.125999987,1970.0
846.126999987,2024.0
846.127999987,2254.0
846.128999987,2353.0
846.129999987,2243.0
846.130999987,2036.0
846.131999987,1999.0
846.132999987,2043.0
846.133999987,1984.0
846.134999987,2093.0
846.135999987,2292.0
846.136999987,2372.0
846.137999987,2229.0
846.138999987,2032.0
846.139999987,1977.0
846.140999987,2009.0
846.141999987,1995.0
846.142999987,2134.0
846.143999987,2310.0
846.144999987,2321.0
846.145999987,2221.0
846.146999987,1995.0
846.147999987,1983.0
846.148999987,1967.0
846.149999987,2012.0
846.150999987,2166.0
846.151999987,2297.0
846.152999987,2265.0
846.153999987,2128.0
846.154999987,1936.0
846.155999987,1954.0
846.156999987,1949.0
846.157999987,2003.0
846.158999987,2180.0
846.159999987,2301.0
846.160999987,2251.0
846.161999987,2091.0
846.162999987,1943.0
846.163999987,1981.0
846.164999987,1960.0
846.165999987,2049.0
846.166999987,2237.0
846.167999987,2323.0
846.168999987,2266.0
846.169999987,2084.0
846.170999987,1938.0
846.171999987,1987.0
846.172999987,2014.0
846.173999987,2142.0
846.174999987,2277.0
846.175999987,2354.0
846.176999987,2280.0
846.177999987,2091.0
846.178999987,1959.0
846.179999987,1999.0
846.180999987,2046.0
846.181999987,2197.0
846.182999987,2311.0
846.183999987,2315.0
846.184999987,2262.0
846.185999987,2087.0
846.186999987,1967.0
846.187999987,1986.0
846.188999987,2089.0
846.189999987,2257.0
846.190999987,2337.0
846.191999987,2293.0
846.192999987,2199.0
846.193999987,2063.0
846.194999987,1974.0
846.195999987,1989.0
846.196999987,2079.0
846.197999987,2277.0
846.198999987,2321.0
846.199999987,2271.0
846.200999987,2137.0
846.201999987,2016.0
846.202999987,1917.0
846.203999987,1905.0
846.204999987,2019.0
846.205999987,2156.0
846.206999987,2079.0
846.207999987,1910.0
846.208999987,1731.0
846.209999987,1541.0
846.210999987,1585.0
846.211999987,1821.0
846.212999987,2269.0
846.213999987,2649.0
846.214999987,2839.0
846.215999987,2898.0
846.216999987,2874.0
846.217999987,2799.0
846.218999987,2731.0
846.219999987,2801.0
846.220999987,2993.0
846.221999987,3004.0
846.222999987,2863.0
846.223999987,2718.0
846.224999987,2489.0
846.225999987,2279.0
846.226999987,2139.0
846.227999987,2149.0
846.228999987,2308.0
846.229999987,2294.0
846.230999987,2121.0
846.231999987,1920.0
846.232999987,1805.0
846.233999987,1703.0
846.234999987,1641.0
846.235999987,1742.0
846.236999987,2005.0
846.237999987,2076.0
846.238999987,1974.0
846.239999987,1820.0
846.240999987,1787.0
846.241999987,1719.0
846.242999987,1670.0
846.243999987,1822.0
846.244999987,2053.0
846.245999987,2095.0
846.246999987,1990.0
846.247999987,1849.0
846.248999987,1804.0
846.249999987,1760.0
846.250999987,1728.0
846.251999987,1912.0
846.252999987,2108.0
846.253999987,2139.0
846.254999987,1992.0
846.255999987,1868.0
846.256999987,1818.0
846.257999987,1789.0
846.258999987,1781.0
846.259999987,1992.0
846.260999987,2153.0
846.261999987,2109.0
846.262999987,1960.0
846.263999987,1869.0
846.264999987,1835.0
846.265999987,1781.0
846.266999987,1801.0
846.267999987,2038.0
846.268999987,2175.0
846.269999987,2101.0
846.270999987,1897.0
846.271999987,1840.0
846.272999987,1842.0
846.273999987,1779.0
846.274999987,1824.0
846.275999987,2064.0
846.276999987,2161.0
846.277999987,2065.0
846.278999987,1864.0
846.279999987,1802.0
846.280999987,1814.0
846.281999987,1779.0
846.282999987,1854.0
846.283999987,2053.0
846.284999987,2151.0
846.285999987,2029.0
846.286999987,1846.0
846.287999987,1783.0
846.288999987,1818.0
846.289999987,1792.0
846.290999987,1928.0
846.291999987,2112.0
846.292999987,2155.0
846.293999987,2065.0
846.294999987,1884.0
846.295999987,1830.0
846.296999987,1842.0
846.297999987,1903.0
846.298999987,2041.0
846.299999987,2198.0
846.300999987,2189.0
846.301999987,2119.0
846.302999987,1948.0
846.303999987,1956.0
846.304999987,1963.0
846.305999987,2033.0
846.306999987,2220.0
846.307999987,2356.0
846.308999987,2320.0
846.309999987,2177.0
846.310999987,2068.0
846.311999987,2091.0
846.312999987,2083.0
846.313999987,2186.0
846.314999987,2374.0
846.315999987,2480.0
846.316999987,2457.0
846.317999987,2301.0
846.318999987,2148.0
846.319999987,2163.0
846.320999987,2167.0
846.321999987,2300.0
846.322999987,2448.0
846.323999987,2521.0
846.324999987,2449.0
846.325999987,2304.0
846.326999987,2168.0
846.327999987,2200.0
846.328999987,2208.0
846.329999987,2373.0
846.330999987,2480.0
846.331999987,2479.0
846.332999987,2430.0
846.333999987,2262.0
846.334999987,2144.0
846.335999987,2115.0
846.336999987,2205.0
846.337999987,2394.0
846.338999987,2452.0
846.339999987,2415.0
846.340999987,2328.0
846.341999987,2216.0
846.342999987,2109.0
846.343999987,2091.0
846.344999987,2183.0
846.345999987,2408.0
846.346999987,2432.0
846.347999987,2377.0
846.348999987,2235.0
846.349999987,2147.0
846.350999987,2063.0
846.351999987,2046.0
846.352999987,2194.0
846.353999987,2397.0
846.354999987,2392.0
846.355999987,2332.0
846.356999987,2208.0
846.357999987,2121.0
846.358999987,2036.0
846.359999987,2027.0
846.360999987,2221.0
846.361999987,2378.0
846.362999987,2362.0
846.363999987,2291.0
846.364999987,2168.0
846.365999987,2088.0
846.366999987,1994.0
846.367999987,2024.0
846.368999987,2234.0
846.369999987,2371.0
846.370999987,2315.0
846.371999987,2249.0
846.372999987,2106.0
846.373999987,2024.0
846.374999987,1961.0
846.375999987,2030.0
846.376999987,2252.0
846.377999987,2366.0
846.378999987,2295.0
846.379999987,2142.0
846.380999987,2078.0
846.381999987,2035.0
846.382999987,1964.0
846.383999987,2037.0
846.384999987,2285.0
846.385999987,2369.0
846.386999987,2264.0
846.387999987,2099.0
846.388999987,2056.0
846.389999987,2015.0
846.390999987,1959.0
846.391999987,2081.0
846.392999987,2305.0
846.393999987,2362.0
846.394999987,2250.0
846.395999987,2099.0
846.396999987,2034.0
846.397999987,2034.0
846.398999987,1956.0
846.399999987,2122.0
846.400999987,2311.0
846.401999987,2377.0
846.402999987,2214.0
846.403999987,2076.0
846.404999987,2010.0
846.405999987,2015.0
846.406999987,1979.0
846.407999987,2170.0
846.408999987,2332.0
846.409999987,2313.0
846.410999987,2175.0
846.411999987,2064.0
846.412999987,2025.0
846.413999987,2004.0
846.414999987,2000.0
846.415999987,2223.0
846.416999987,2352.0
846.417999987,2307.0
846.418999987,2106.0
846.419999987,2018.0
846.420999987,2025.0
846.421999987,1980.0
846.422999987,2008.0
846.423999987,2241.0
846.424999987,2356.0
846.425999987,2285.0
846.426999987,2076.0
846.427999987,2005.0
846.428999987,2020.0
846.429999987,2013.0
846.430999987,2071.0
846.431999987,2261.0
846.432999987,2362.0
846.433999987,2274.0
846.434999987,2054.0
846.435999987,1976.0
846.436999987,2009.0
846.437999987,2033.0
846.438999987,2123.0
846.439999987,2316.0
846.440999987,2342.0
846.441999987,2249.0
846.442999987,2036.0
846.443999987,1974.0
846.444999987,1993.0
846.445999987,2050.0
846.446999987,2172.0
846.447999987,2314.0
846.448999987,2304.0
846.449999987,2229.0
846.450999987,2005.0
846.451999987,1961.0
846.452999987,1966.0
846.453999987,2054.0
846.454999987,2203.0
846.455999987,2318.0
846.456999987,2277.0
846.457999987,2143.0
846.458999987,1980.0
846.459999987,1982.0
846.460999987,1982.0
846.461999987,2077.0
846.462999987,2246.0
846.463999987,2327.0
846.464999987,2265.0
846.465999987,2130.0
846.466999987,1965.0
846.467999987,1964.0
846.468999987,1996.0
846.469999987,2123.0
846.470999987,2234.0
846.471999987,2303.0
846.472999987,2239.0
846.473999987,2124.0
846.474999987,1907.0
846.475999987,1948.0
846.476999987,1960.0
846.477999987,2156.0
846.478999987,2249.0
846.479999987,2276.0
846.480999987,2230.0
846.481999987,2049.0
846.482999987,1937.0
846.483999987,1908.0
846.484999987,2013.0
846.485999987,2237.0
846.486999987,2286.0
846.487999987,2258.0
846.488999987,2192.0
846.489999987,2074.0
846.490999987,1944.0
846.491999987,1934.0
846.492999987,2035.0
846.493999987,2284.0
846.494999987,2332.0
846.495999987,2267.0
846.496999987,2133.0
846.497999987,2065.0
846.498999987,1954.0
846.499999987,1940.0
846.500999987,2081.0
846.501999987,2315.0
846.502999987,2328.0
846.503999987,2268.0
846.504999987,2145.0
846.505999987,2077.0
846.506999987,1986.0
846.507999987,1986.0
846.508999987,2177.0
846.509999987,2353.0
846.510999987,2339.0
846.511999987,2266.0
846.512999987,2121.0
846.513999987,2062.0
846.514999987,1984.0
846.515999987,1998.0
846.516999987,2204.0
846.517999987,2388.0
846.518999987,2331.0
846.519999987,2237.0
846.520999987,2085.0
846.521999987,2023.0
846.522999987,1913.0
846.523999987,1982.0
846.524999987,2175.0
846.525999987,2261.0
846.526999987,2084.0
846.527999987,1859.0
846.528999987,1654.0
846.529999987,1567.0
846.530999987,1506.0
846.531999987,1715.0
846.532999987,2178.0
846.533999987,2546.0
846.534999987,2664.0
846.535999987,2641.0
846.536999987,2745.0
846.537999987,2765.0
846.538999987,2704.0
846.539999987,2806.0
846.540999987,3046.0
846.541999987,3051.0
846.542999987,2852.0
846.543999987,2621.0
846.544999987,2487.0
846.545999987,2387.0
846.546999987,2248.0
846.547999987,2315.0
846.548999987,2448.0
846.549999987,2441.0
846.550999987,2183.0
846.551999987,1945.0
846.552999987,1832.0
846.553999987,1789.0
846.554999987,1738.0
846.555999987,1915.0
846.556999987,2090.0
846.557999987,2095.0
846.558999987,1945.0
846.559999987,1815.0
846.560999987,1775.0
846.561999987,1748.0
846.562999987,1759.0
846.563999987,1965.0
846.564999987,2103.0
846.565999987,2081.0
846.566999987,1909.0
846.567999987,1802.0
846.568999987,1819.0
846.569999987,1790.0
846.570999987,1814.0
846.571999987,2044.0
846.572999987,2168.0
846.573999987,2112.0
846.574999987,1901.0
846.575999987,1823.0
846.576999987,1818.0
846.577999987,1817.0
846.578999987,1889.0
846.579999987,2092.0
846.580999987,2191.0
846.581999987,2119.0
846.582999987,1924.0
846.583999987,1822.0
846.584999987,1849.0
846.585999987,1843.0
846.586999987,1955.0
846.587999987,2108.0
846.588999987,2175.0
846.589999987,2113.0
846.590999987,1889.0
846.591999987,1809.0
846.592999987,1824.0
846.593999987,1875.0
846.594999987,2003.0
846.595999987,2132.0
846.596999987,2115.0
846.597999987,2076.0
846.598999987,1852.0
846.599999987,1808.0
846.600999987,1799.0
846.601999987,1877.0
846.602999987,2025.0
846.603999987,2110.0
846.604999987,2090.0
846.605999987,1970.0
846.606999987,1810.0
846.607999987,1785.0
846.608999987,1779.0
846.609999987,1867.0
846.610999987,2065.0
846.611999987,2156.0
846.612999987,2111.0
846.613999987,1988.0
846.614999987,1836.0
846.615999987,1852.0
846.616999987,1874.0
846.617999987,2020.0
846.618999987,2160.0
846.619999987,2221.0
846.620999987,2191.0
846.621999987,2065.0
846.622999987,1924.0
846.623999987,1953.0
846.624999987,1988.0
846.625999987,2176.0
846.626999987,2309.0
846.627999987,2334.0
846.628999987,2290.0
846.629999987,2169.0
846.630999987,2049.0
846.631999987,2048.0
846.632999987,2132.0
846.633999987,2340.0
846.634999987,2434.0
846.635999987,2412.0
846.636999987,2370.0
846.637999987,2248.0
846.638999987,2131.0
846.639999987,2103.0
846.640999987,2210.0
846.641999987,2451.0
846.642999987,2484.0
846.643999987,2439.0
846.644999987,2318.0
846.645999987,2254.0
846.646999987,2165.0
846.647999987,2131.0
846.648999987,2237.0
846.649999987,2478.0
846.650999987,2503.0
846.651999987,2436.0
846.652999987,2290.0
846.653999987,2204.0
846.654999987,2124.0
846.655999987,2106.0
846.656999987,2257.0
846.657999987,2474.0
846.658999987,2466.0
846.659999987,2371.0
846.660999987,2238.0
846.661999987,2171.0
846.662999987,2114.0
846.663999987,2116.0
846.664999987,2286.0
846.665999987,2478.0
846.666999987,2436.0
846.667999987,2319.0
846.668999987,2189.0
846.669999987,2137.0
846.670999987,2037.0
846.671999987,2090.0
846.672999987,2293.0
846.673999987,2426.0
846.674999987,2363.0
846.675999987,2231.0
846.676999987,2128.0
846.677999987,2108.0
846.678999987,2015.0
846.679999987,2074.0
846.680999987,2299.0
846.681999987,2405.0
846.682999987,2331.0
846.683999987,2140.0
846.684999987,2073.0
846.685999987,2066.0
846.686999987,1987.0
846.687999987,2064.0
846.688999987,2296.0
846.689999987,2384.0
846.690999987,2271.0
846.691999987,2102.0
846.692999987,2046.0
846.693999987,2031.0
846.694999987,1974.0
846.695999987,2100.0
846.696999987,2291.0
846.697999987,2361.0
846.698999987,2223.0
846.699999987,2057.0
846.700999987,2016.0
846.701999987,2043.0
846.702999987,1969.0
846.703999987,2137.0
846.704999987,2310.0
846.705999987,2327.0
846.706999987,2193.0
846.707999987,2015.0
846.708999987,2001.0
846.709999987,1991.0
846.710999987,2002.0
846.711999987,2177.0
846.712999987,2315.0
846.713999987,2303.0
846.714999987,2154.0
846.715999987,1992.0
846.716999987,1977.0
846.717999987,1979.0
846.718999987,2006.0
846.719999987,2205.0
846.720999987,2342.0
846.721999987,2288.0
846.722999987,2088.0
846.723999987,1968.0
846.724999987,2003.0
846.725999987,1995.0
846.726999987,2041.0
846.727999987,2245.0
846.728999987,2338.0
846.729999987,2273.0
846.730999987,2060.0
846.731999987,1935.0
846.732999987,2000.0
846.733999987,2009.0
846.734999987,2106.0
846.735999987,2251.0
846.736999987,2333.0
846.737999987,2265.0
846.738999987,2039.0
846.739999987,1925.0
846.740999987,1974.0
846.741999987,2021.0
846.742999987,2146.0
846.743999987,2286.0
846.744999987,2294.0
846.745999987,2255.0
846.746999987,2015.0
846.747999987,1927.0
846.748999987,1955.0
846.749999987,2051.0
846.750999987,2186.0
846.751999987,2282.0
846.752999987,2261.0
846.753999987,2166.0
846.754999987,1993.0
846.755999987,1929.0
846.756999987,1954.0
846.757999987,2053.0
846.758999987,2226.0
846.759999987,2300.0
846.760999987,2252.0
846.761999987,2116.0
846.762999987,1985.0
846.763999987,1923.0
846.764999987,1963.0
846.765999987,2110.0
846.766999987,2260.0
846.767999987,2295.0
846.768999987,2264.0
846.769999987,2127.0
846.770999987,1964.0
846.771999987,1915.0
846.772999987,1961.0
846.773999987,2158.0
846.774999987,2264.0
846.775999987,2275.0
846.776999987,2197.0
846.777999987,2070.0
846.778999987,1923.0
846.779999987,1874.0
846.780999987,1981.0
846.781999987,2163.0
846.782999987,2273.0
846.783999987,2242.0
846.784999987,2190.0
846.785999987,2070.0
846.786999987,1929.0
846.787999987,1899.0
846.788999987,2037.0
846.789999987,2241.0
846.790999987,2285.0
846.791999987,2246.0
846.792999987,2118.0
846.793999987,2056.0
846.794999987,1954.0
846.795999987,1917.0
846.796999987,2028.0
846.797999987,2288.0
846.798999987,2331.0
846.799999987,2250.0
846.800999987,2118.0
846.801999987,2062.0
846.802999987,1965.0
846.803999987,1934.0
846.804999987,2102.0
846.805999987,2336.0
846.806999987,2345.0
846.807999987,2254.0
846.808999987,2134.0
846.809999987,2054.0
846.810999987,1986.0
846.811999987,1961.0
846.812999987,2175.0
846.813999987,2390.0
846.814999987,2342.0
846.815999987,2219.0
846.816999987,2107.0
846.817999987,2055.0
846.818999987,1963.0
846.819999987,1989.0
846.820999987,2199.0
846.821999987,2354.0
846.822999987,2278.0
846.823999987,2146.0
846.824999987,1999.0
846.825999987,1953.0
846.826999987,1838.0
846.827999987,1802.0
846.828999987,1962.0
846.829999987,2002.0
846.830999987,1810.0
846.831999987,1611.0
846.832999987,1643.0
846.833999987,1811.0
846.834999987,1947.0
846.835999987,2263.0
846.836999987,2732.0
846.837999987,2946.0
846.838999987,2899.0
846.839999987,2723.0
846.840999987,2682.0
846.841999987,2694.0
846.842999987,2596.0
846.843999987,2610.0
846.844999987,2756.0
846.845999987,2767.0
846.846999987,2585.0
846.847999987,2373.0
846.848999987,2236.0
846.849999987,2224.0
846.850999987,2089.0
846.851999987,2166.0
846.852999987,2263.0
846.853999987,2246.0
846.854999987,2054.0
846.855999987,1857.0
846.856999987,1782.0
846.857999987,1776.0
846.858999987,1777.0
846.859999987,1964.0
846.860999987,2104.0
846.861999987,2100.0
846.862999987,1961.0
846.863999987,1823.0
846.864999987,1799.0
846.865999987,1788.0
846.866999987,1814.0
846.867999987,2012.0
846.868999987,2168.0
846.869999987,2095.0
846.870999987,1916.0
846.871999987,1809.0
846.872999987,1816.0
846.873999987,1816.0
846.874999987,1875.0
846.875999987,2074.0
846.876999987,2178.0
846.877999987,2126.0
846.878999987,1941.0
846.879999987,1828.0
846.880999987,1833.0
846.881999987,1838.0
846.882999987,1992.0
846.883999987,2106.0
846.884999987,2180.0
846.885999987,2118.0
846.886999987,1920.0
846.887999987,1816.0
846.888999987,1839.0
846.889999987,1863.0
846.890999987,1992.0
846.891999987,2116.0
846.892999987,2152.0
846.893999987,2119.0
846.894999987,1898.0
846.895999987,1806.0
846.896999987,1794.0
846.897999987,1883.0
846.898999987,2031.0
846.899999987,2117.0
846.900999987,2098.0
846.901999987,2027.0
846.902999987,1842.0
846.903999987,1792.0
846.904999987,1755.0
846.905999987,1841.0
846.906999987,2044.0
846.907999987,2103.0
846.908999987,2062.0
846.909999987,1941.0
846.910999987,1827.0
846.911999987,1795.0
846.912999987,1774.0
846.913999987,1907.0
846.914999987,2103.0
846.915999987,2127.0
846.916999987,2089.0
846.917999987,1990.0
846.918999987,1873.0
846.919999987,1860.0
846.920999987,1864.0
846.921999987,2051.0
846.922999987,2220.0
846.923999987,2242.0
846.924999987,2202.0
846.925999987,2077.0
846.926999987,1966.0
846.927999987,1960.0
846.928999987,2013.0
846.929999987,2242.0
846.930999987,2355.0
846.931999987,2354.0
846.932999987,2300.0
846.933999987,2181.0
846.934999987,2092.0
846.935999987,2039.0
846.936999987,2138.0
846.937999987,2380.0
846.938999987,2462.0
846.939999987,2418.0
846.940999987,2306.0
846.941999987,2244.0
846.942999987,2169.0
846.943999987,2112.0
846.944999987,2189.0
846.945999987,2460.0
846.946999987,2496.0
846.947999987,2423.0
846.948999987,2278.0
846.949999987,2226.0
846.950999987,2163.0
846.951999987,2126.0
846.952999987,2226.0
846.953999987,2466.0
846.954999987,2492.0
846.955999987,2395.0
846.956999987,2237.0
846.957999987,2183.0
846.958999987,2127.0
846.959999987,2108.0
846.960999987,2266.0
846.961999987,2465.0
846.962999987,2458.0
846.963999987,2347.0
846.964999987,2190.0
846.965999987,2148.0
846.966999987,2099.0
846.967999987,2107.0
846.968999987,2291.0
846.969999987,2452.0
846.970999987,2407.0
846.971999987,2288.0
846.972999987,2145.0
846.973999987,2106.0
846.974999987,2046.0
846.975999987,2070.0
846.976999987,2292.0
846.977999987,2422.0
846.978999987,2367.0
846.979999987,2181.0
846.980999987,2077.0
846.981999987,2057.0
846.982999987,2010.0
846.983999987,2053.0
846.984999987,2297.0
846.985999987,2398.0
846.986999987,2311.0
846.987999987,2113.0
846.988999987,2048.0
846.989999987,2042.0
846.990999987,2009.0
846.991999987,2087.0
846.992999987,2292.0
846.993999987,2394.0
846.994999987,2282.0
846.995999987,2062.0
846.996999987,2009.0
846.997999987,2025.0
846.998999987,2007.0
846.999999987,2131.0
847.000999987,2329.0
847.001999987,2366.0
847.002999987,2232.0
847.003999987,2023.0
847.004999987,2002.0
847.005999987,2006.0
847.006999987,2029.0
847.007999987,2170.0
847.008999987,2312.0
847.009999987,2312.0
847.010999987,2217.0
847.011999987,2007.0
847.012999987,1993.0
847.013999987,1996.0
847.014999987,2031.0
847.015999987,2210.0
847.016999987,2326.0
847.017999987,2293.0
847.018999987,2140.0
847.019999987,1978.0
847.020999987,2013.0
847.021999987,1991.0
847.022999987,2055.0
847.023999987,2221.0
847.024999987,2332.0
847.025999987,2281.0
847.026999987,2094.0
847.027999987,1957.0
847.028999987,1994.0
847.029999987,2007.0
847.030999987,2108.0
847.031999987,2267.0
847.032999987,2344.0
847.033999987,2280.0
847.034999987,2085.0
847.035999987,1944.0
847.036999987,1976.0
847.037999987,2028.0
847.038999987,2164.0
847.039999987,2287.0
847.040999987,2316.0
847.041999987,2256.0
847.042999987,2076.0
847.043999987,1942.0
847.044999987,1954.0
847.045999987,2050.0
847.046999987,2209.0
847.047999987,2300.0
847.048999987,2282.0
847.049999987,2209.0
847.050999987,2039.0
847.051999987,1930.0
847.052999987,1935.0
847.053999987,2039.0
847.054999987,2226.0
847.055999987,2297.0
847.056999987,2240.0
847.057999987,2123.0
847.058999987,1997.0
847.059999987,1908.0
847.060999987,1901.0
847.061999987,2033.0
847.062999987,2231.0
847.063999987,2261.0
847.064999987,2193.0
847.065999987,2078.0
847.066999987,1964.0
847.067999987,1900.0
847.068999987,1911.0
847.069999987,2096.0
847.070999987,2267.0
847.071999987,2285.0
847.072999987,2208.0
847.073999987,2083.0
847.074999987,1956.0
847.075999987,1914.0
847.076999987,1954.0
847.077999987,2169.0
847.078999987,2295.0
847.079999987,2293.0
847.080999987,2208.0
847.081999987,2083.0
847.082999987,1982.0
847.083999987,1927.0
847.084999987,1997.0
847.085999987,2238.0
847.086999987,2331.0
847.087999987,2269.0
847.088999987,2161.0
847.089999987,2062.0
847.090999987,1988.0
847.091999987,1938.0
847.092999987,2018.0
847.093999987,2289.0
847.094999987,2366.0
847.095999987,2273.0
847.096999987,2106.0
847.097999987,2060.0
847.098999987,1988.0
847.099999987,1929.0
847.100999987,2038.0
847.101999987,2292.0
847.102999987,2344.0
847.103999987,2236.0
847.104999987,2079.0
847.105999987,2031.0
847.106999987,1983.0
847.107999987,1936.0
847.108999987,2086.0
847.109999987,2291.0
847.110999987,2304.0
847.111999987,2136.0
847.112999987,1938.0
847.113999987,1819.0
847.114999987,1670.0
847.115999987,1535.0
847.116999987,1676.0
847.117999987,1926.0
847.118999987,2066.0
847.119999987,2136.0
847.120999987,2250.0
847.121999987,2439.0
847.122999987,2536.0
847.123999987,2662.0
847.124999987,2913.0
847.125999987,3069.0
847.126999987,3029.0
847.127999987,2835.0
847.128999987,2659.0
847.129999987,2560.0
847.130999987,2447.0
847.131999987,2397.0
847.132999987,2553.0
847.133999987,2602.0
847.134999987,2461.0
847.135999987,2179.0
847.136999987,2041.0
847.137999987,1932.0
847.138999987,1813.0
847.139999987,1835.0
847.140999987,2028.0
847.141999987,2109.0
847.142999987,2020.0
847.143999987,1824.0
847.144999987,1746.0
847.145999987,1763.0
847.146999987,1739.0
847.147999987,1849.0
847.148999987,2047.0
847.149999987,2115.0
847.150999987,2014.0
847.151999987,1816.0
847.152999987,1748.0
847.153999987,1772.0
847.154999987,1791.0
847.155999987,1934.0
847.156999987,2102.0
847.157999987,2104.0
847.158999987,2026.0
847.159999987,1835.0
847.160999987,1778.0
847.161999987,1778.0
847.162999987,1842.0
847.163999987,1999.0
847.164999987,2129.0
847.165999987,2112.0
847.166999987,1995.0
847.167999987,1825.0
847.168999987,1809.0
847.169999987,1791.0
847.170999987,1867.0
847.171999987,2045.0
847.172999987,2143.0
847.173999987,2097.0
847.174999987,1942.0
847.175999987,1801.0
847.176999987,1796.0
847.177999987,1787.0
847.178999987,1906.0
847.179999987,2063.0
847.180999987,2137.0
847.181999987,2072.0
847.182999987,1918.0
847.183999987,1761.0
847.184999987,1779.0
847.185999987,1801.0
847.186999987,1952.0
847.187999987,2100.0
847.188999987,2056.0
847.189999987,2032.0
847.190999987,1875.0
847.191999987,1746.0
847.192999987,1751.0
847.193999987,1825.0
847.194999987,1993.0
847.195999987,2092.0
847.196999987,2045.0
847.197999987,2022.0
847.198999987,1878.0
847.199999987,1783.0
847.200999987,1770.0
847.201999987,1877.0
847.202999987,2101.0
847.203999987,2155.0
847.204999987,2118.0
847.205999987,2023.0
847.206999987,1937.0
847.207999987,1865.0
847.208999987,1862.0
847.209999987,1985.0
847.210999987,2260.0
847.211999987,2287.0
847.212999987,2244.0
847.213999987,2132.0
847.214999987,2068.0
847.215999987,2001.0
847.216999987,2015.0
847.217999987,2190.0
847.218999987,2395.0
847.219999987,2410.0
847.220999987,2356.0
847.221999987,2236.0
847.222999987,2173.0
847.223999987,2111.0
847.224999987,2125.0
847.225999987,2325.0
847.226999987,2496.0
847.227999987,2487.0
847.228999987,2402.0
847.229999987,2268.0
847.230999987,2201.0
847.231999987,2126.0
847.232999987,2188.0
847.233999987,2420.0
847.234999987,2534.0
847.235999987,2460.0
847.236999987,2363.0
847.237999987,2253.0
847.238999987,2193.0
847.239999987,2130.0
847.240999987,2182.0
847.241999987,2421.0
847.242999987,2528.0
847.243999987,2435.0
847.244999987,2252.0
847.245999987,2199.0
847.246999987,2172.0
847.247999987,2088.0
847.248999987,2162.0
847.249999987,2415.0
847.250999987,2480.0
847.251999987,2375.0
847.252999987,2205.0
847.253999987,2141.0
847.254999987,2140.0
847.255999987,2064.0
847.256999987,2209.0
847.257999987,2420.0
847.258999987,2460.0
847.259999987,2327.0
847.260999987,2165.0
847.261999987,2112.0
847.262999987,2103.0
847.263999987,2037.0
847.264999987,2216.0
847.265999987,2391.0
847.266999987,2412.0
847.267999987,2277.0
847.268999987,2112.0
847.269999987,2072.0
847.270999987,2043.0
847.271999987,2058.0
847.272999987,2243.0
847.273999987,2393.0
847.274999987,2345.0
847.275999987,2187.0
847.276999987,2057.0
847.277999987,2055.0
847.278999987,2027.0
847.279999987,2035.0
847.280999987,2254.0
847.281999987,2381.0
847.282999987,2303.0
847.283999987,2105.0
847.284999987,2037.0
847.285999987,1997.0
847.286999987,2004.0
847.287999987,2059.0
847.288999987,2275.0
847.289999987,2383.0
847.290999987,2315.0
847.291999987,2085.0
847.292999987,1993.0
847.293999987,2022.0
847.294999987,2025.0
847.295999987,2112.0
847.296999987,2276.0
847.297999987,2400.0
847.298999987,2281.0
847.299999987,2067.0
847.300999987,1989.0
847.301999987,2045.0
847.302999987,2039.0
847.303999987,2153.0
847.304999987,2313.0
847.305999987,2322.0
847.306999987,2250.0
847.307999987,2046.0
847.308999987,1980.0
847.309999987,1977.0
847.310999987,2074.0
847.311999987,2192.0
847.312999987,2327.0
847.313999987,2300.0
847.314999987,2207.0
847.315999987,2010.0
847.316999987,2001.0
847.317999987,2002.0
847.318999987,2073.0
847.319999987,2234.0
847.320999987,2311.0
847.321999987,2285.0
847.322999987,2131.0
847.323999987,2004.0
847.324999987,1966.0
847.325999987,1974.0
847.326999987,2105.0
847.327999987,2267.0
847.328999987,2329.0
847.329999987,2273.0
847.330999987,2135.0
847.331999987,1971.0
847.332999987,1970.0
847.333999987,2013.0
847.334999987,2163.0
847.335999987,2281.0
847.336999987,2331.0
847.337999987,2253.0
847.338999987,2102.0
847.339999987,1952.0
847.340999987,1935.0
847.341999987,2015.0
847.342999987,2199.0
847.343999987,2277.0
847.344999987,2261.0
847.345999987,2200.0
847.346999987,2018.0
847.347999987,1899.0
847.348999987,1869.0
847.349999987,1990.0
847.350999987,2232.0
847.351999987,2282.0
847.352999987,2237.0
847.353999987,2125.0
847.354999987,2040.0
847.355999987,1924.0
847.356999987,1887.0
847.357999987,2008.0
847.358999987,2256.0
847.359999987,2287.0
847.360999987,2228.0
847.361999987,2105.0
847.362999987,2041.0
847.363999987,1942.0
847.364999987,1946.0
847.365999987,2101.0
847.366999987,2312.0
847.367999987,2321.0
847.368999987,2245.0
847.369999987,2099.0
847.370999987,2040.0
847.371999987,1971.0
847.372999987,1972.0
847.373999987,2165.0
847.374999987,2344.0
847.375999987,2325.0
847.376999987,2231.0
847.377999987,2091.0
847.378999987,2031.0
847.379999987,1959.0
847.380999987,1994.0
847.381999987,2217.0
847.382999987,2352.0
847.383999987,2281.0
847.384999987,2181.0
847.385999987,2091.0
847.386999987,2020.0
847.387999987,1941.0
847.388999987,1995.0
847.389999987,2250.0
847.390999987,2383.0
847.391999987,2267.0
847.392999987,2100.0
847.393999987,2019.0
847.394999987,1979.0
847.395999987,1859.0
847.396999987,1879.0
847.397999987,2061.0
847.398999987,2079.0
847.399999987,1852.0
847.400999987,1603.0
847.401999987,1571.0
847.402999987,1698.0
847.403999987,1851.0
847.404999987,2239.0
847.405999987,2687.0
847.406999987,2924.0
847.407999987,2922.0
847.408999987,2822.0
847.409999987,2771.0
847.410999987,2763.0
847.411999987,2715.0
847.412999987,2830.0
847.413999987,2926.0
847.414999987,2871.0
847.415999987,2646.0
847.416999987,2409.0
847.417999987,2273.0
847.418999987,2171.0
847.419999987,2074.0
847.420999987,2172.0
847.421999987,2240.0
847.422999987,2149.0
847.423999987,1941.0
847.424999987,1766.0
847.425999987,1710.0
847.426999987,1701.0
847.427999987,1712.0
847.428999987,1928.0
847.429999987,2069.0
847.430999987,2020.0
847.431999987,1825.0
847.432999987,1740.0
847.433999987,1740.0
847.434999987,1711.0
847.435999987,1766.0
847.436999987,1996.0
847.437999987,2098.0
847.438999987,2045.0
847.439999987,1848.0
847.440999987,1757.0
847.441999987,1775.0
847.442999987,1764.0
847.443999987,1868.0
847.444999987,2048.0
847.445999987,2128.0
847.446999987,2077.0
847.447999987,1862.0
847.448999987,1788.0
847.449999987,1812.0
847.450999987,1817.0
847.451999987,1941.0
847.452999987,2091.0
847.453999987,2135.0
847.454999987,2068.0
847.455999987,1863.0
847.456999987,1782.0
847.457999987,1792.0
847.458999987,1862.0
847.459999987,2004.0
847.460999987,2115.0
847.461999987,2099.0
847.462999987,2021.0
847.463999987,1830.0
847.464999987,1773.0
847.465999987,1777.0
847.466999987,1850.0
847.467999987,2023.0
847.468999987,2107.0
847.469999987,2075.0
847.470999987,1936.0
847.471999987,1784.0
847.472999987,1770.0
847.473999987,1762.0
847.474999987,1867.0
847.475999987,2050.0
847.476999987,2100.0
847.477999987,2053.0
847.478999987,1908.0
847.479999987,1774.0
847.480999987,1772.0
847.481999987,1783.0
847.482999987,1958.0
847.483999987,2100.0
847.484999987,2139.0
847.485999987,2085.0
847.486999987,1966.0
847.487999987,1826.0
847.488999987,1844.0
847.489999987,1896.0
847.490999987,2102.0
847.491999987,2205.0
847.492999987,2191.0
847.493999987,2175.0
847.494999987,2050.0
847.495999987,1949.0
847.496999987,1937.0
847.497999987,2038.0
847.498999987,2271.0
847.499999987,2362.0
847.500999987,2323.0
847.501999987,2251.0
847.502999987,2163.0
847.503999987,2061.0
847.504999987,2045.0
847.505999987,2154.0
847.506999987,2359.0
847.507999987,2467.0
847.508999987,2410.0
847.509999987,2273.0
847.510999987,2220.0
847.511999987,2146.0
847.512999987,2104.0
847.513999987,2256.0
847.514999987,2482.0
847.515999987,2499.0
847.516999987,2435.0
847.517999987,2300.0
847.518999987,2223.0
847.519999987,2146.0
847.520999987,2135.0
847.521999987,2311.0
847.522999987,2494.0
847.523999987,2495.0
847.524999987,2363.0
847.525999987,2249.0
847.526999987,2184.0
847.527999987,2116.0
847.528999987,2130.0
847.529999987,2327.0
847.530999987,2485.0
847.531999987,2438.0
847.532999987,2320.0
847.533999987,2197.0
847.534999987,2125.0
847.535999987,2064.0
847.536999987,2130.0
847.537999987,2346.0
847.538999987,2464.0
847.539999987,2402.0
847.540999987,2230.0
847.541999987,2141.0
847.542999987,2126.0
847.543999987,2037.0
847.544999987,2092.0
847.545999987,2338.0
847.546999987,2435.0
847.547999987,2341.0
847.548999987,2139.0
847.549999987,2091.0
847.550999987,2098.0
847.551999987,2021.0
847.552999987,2107.0
847.553999987,2325.0
847.554999987,2398.0
847.555999987,2294.0
847.556999987,2106.0
847.557999987,2049.0
847.558999987,2071.0
847.559999987,1996.0
847.560999987,2143.0
847.561999987,2359.0
847.562999987,2376.0
847.563999987,2235.0
847.564999987,2043.0
847.565999987,2014.0
847.566999987,2026.0
847.567999987,2020.0
847.568999987,2176.0
847.569999987,2342.0
847.570999987,2335.0
847.571999987,2216.0
847.572999987,2018.0
847.573999987,2010.0
847.574999987,2008.0
847.575999987,2018.0
847.576999987,2215.0
847.577999987,2350.0
847.578999987,2303.0
847.579999987,2140.0
847.580999987,1985.0
847.581999987,2029.0
847.582999987,2001.0
847.583999987,2038.0
847.584999987,2252.0
847.585999987,2350.0
847.586999987,2294.0
847.587999987,2113.0
847.588999987,1969.0
847.589999987,2006.0
847.590999987,2031.0
847.591999987,2091.0
847.592999987,2262.0
847.593999987,2340.0
847.594999987,2299.0
847.595999987,2101.0
847.596999987,1960.0
847.597999987,2005.0
847.598999987,2021.0
847.599999987,2150.0
847.600999987,2304.0
847.601999987,2349.0
847.602999987,2282.0
847.603999987,2072.0
847.604999987,1945.0
847.605999987,1994.0
847.606999987,2039.0
847.607999987,2209.0
847.608999987,2313.0
847.609999987,2308.0
847.610999987,2225.0
847.611999987,2031.0
847.612999987,1928.0
847.613999987,1969.0
847.614999987,2082.0
847.615999987,2228.0
847.616999987,2320.0
847.617999987,2288.0
847.618999987,2171.0
847.619999987,2008.0
847.620999987,1934.0
847.621999987,1970.0
847.622999987,2083.0
847.623999987,2272.0
847.624999987,2323.0
847.625999987,2276.0
847.626999987,2119.0
847.627999987,1969.0
847.628999987,1896.0
847.629999987,1927.0
847.630999987,2110.0
847.631999987,2247.0
847.632999987,2272.0
847.633999987,2234.0
847.634999987,2097.0
847.635999987,1964.0
847.636999987,1913.0
847.637999987,1969.0
847.638999987,2183.0
847.639999987,2290.0
847.640999987,2284.0
847.641999987,2239.0
847.642999987,2098.0
847.643999987,1958.0
847.644999987,1912.0
847.645999987,2020.0
847.646999987,2228.0
847.647999987,2320.0
847.648999987,2274.0
847.649999987,2209.0
847.650999987,2083.0
847.651999987,1974.0
847.652999987,1930.0
847.653999987,2037.0
847.654999987,2287.0
847.655999987,2348.0
847.656999987,2267.0
847.657999987,2126.0
847.658999987,2088.0
847.659999987,1980.0
847.660999987,1943.0
847.661999987,2084.0
847.662999987,2327.0
847.663999987,2349.0
847.664999987,2275.0
847.665999987,2121.0
847.666999987,2064.0
847.667999987,1985.0
847.668999987,1938.0
847.669999987,2119.0
847.670999987,2335.0
847.671999987,2350.0
847.672999987,2230.0
847.673999987,2097.0
847.674999987,2021.0
847.675999987,1955.0
847.676999987,1922.0
847.677999987,2143.0
847.678999987,2321.0
847.679999987,2247.0
847.680999987,2099.0
847.681999987,1924.0
847.682999987,1767.0
847.683999987,1555.0
847.684999987,1525.0
847.685999987,1744.0
847.686999987,2038.0
847.687999987,2208.0
847.688999987,2307.0
847.689999987,2436.0
847.690999987,2579.0
847.691999987,2654.0
847.692999987,2765.0
847.693999987,3037.0
847.694999987,3136.0
847.695999987,3066.0
847.696999987,2795.0
847.697999987,2656.0
847.698999987,2563.0
847.699999987,2417.0
847.700999987,2386.0
847.701999987,2535.0
847.702999987,2535.0
847.703999987,2342.0
847.704999987,2076.0
847.705999987,1895.0
847.706999987,1820.0
847.707999987,1705.0
847.708999987,1796.0
847.709999987,1984.0
847.710999987,2043.0
847.711999987,1919.0
847.712999987,1733.0
847.713999987,1694.0
847.714999987,1678.0
847.715999987,1702.0
847.716999987,1841.0
847.717999987,2024.0
847.718999987,2036.0
847.719999987,1921.0
847.720999987,1748.0
847.721999987,1703.0
847.722999987,1701.0
847.723999987,1732.0
847.724999987,1921.0
847.725999987,2084.0
847.726999987,2036.0
847.727999987,1898.0
847.728999987,1761.0
847.729999987,1748.0
847.730999987,1723.0
847.731999987,1767.0
847.732999987,1981.0
847.733999987,2108.0
847.734999987,2063.0
847.735999987,1882.0
847.736999987,1773.0
847.737999987,1773.0
847.738999987,1771.0
847.739999987,1870.0
847.740999987,2034.0
847.741999987,2128.0
847.742999987,2079.0
847.743999987,1893.0
847.744999987,1761.0
847.745999987,1799.0
847.746999987,1801.0
847.747999987,1912.0
847.748999987,2057.0
847.749999987,2121.0
847.750999987,2038.0
847.751999987,1847.0
847.752999987,1756.0
847.753999987,1761.0
847.754999987,1814.0
847.755999987,1939.0
847.756999987,2057.0
847.757999987,2056.0
847.758999987,1998.0
847.759999987,1818.0
847.760999987,1734.0
847.761999987,1726.0
847.762999987,1815.0
847.763999987,1991.0
847.764999987,2067.0
847.765999987,2044.0
847.766999987,1952.0
847.767999987,1816.0
847.768999987,1778.0
847.769999987,1764.0
847.770999987,1878.0
847.771999987,2086.0
847.772999987,2137.0
847.773999987,2104.0
847.774999987,1978.0
847.775999987,1883.0
847.776999987,1862.0
847.777999987,1870.0
847.778999987,2054.0
847.779999987,2235.0
847.780999987,2259.0
847.781999987,2238.0
847.782999987,2125.0
847.783999987,2018.0
847.784999987,2007.0
847.785999987,2028.0
847.786999987,2235.0
847.787999987,2398.0
847.788999987,2395.0
847.789999987,2336.0
847.790999987,2224.0
847.791999987,2126.0
847.792999987,2078.0
847.793999987,2155.0
847.794999987,2368.0
847.795999987,2475.0
847.796999987,2432.0
847.797999987,2363.0
847.798999987,2238.0
847.799999987,2159.0
847.800999987,2123.0
847.801999987,2190.0
847.802999987,2434.0
847.803999987,2502.0
847.804999987,2442.0
847.805999987,2311.0
847.806999987,2236.0
847.807999987,2163.0
847.808999987,2099.0
847.809999987,2191.0
847.810999987,2450.0
847.811999987,2498.0
847.812999987,2402.0
847.813999987,2253.0
847.814999987,2202.0
847.815999987,2127.0
847.816999987,2098.0
847.817999987,2230.0
847.818999987,2435.0
847.819999987,2452.0
847.820999987,2345.0
847.821999987,2217.0
847.822999987,2149.0
847.823999987,2125.0
847.824999987,2087.0
847.825999987,2252.0
847.826999987,2445.0
847.827999987,2426.0
847.828999987,2304.0
847.829999987,2154.0
847.830999987,2102.0
847.831999987,2045.0
847.832999987,2065.0
847.833999987,2265.0
847.834999987,2420.0
847.835999987,2384.0
847.836999987,2223.0
847.837999987,2113.0
847.838999987,2068.0
847.839999987,2036.0
847.840999987,2048.0
847.841999987,2276.0
847.842999987,2399.0
847.843999987,2336.0
847.844999987,2138.0
847.845999987,2074.0
847.846999987,2072.0
847.847999987,2020.0
847.848999987,2073.0
847.849999987,2309.0
847.850999987,2407.0
847.851999987,2292.0
847.852999987,2084.0
847.853999987,2030.0
847.854999987,2055.0
847.855999987,2021.0
847.856999987,2107.0
847.857999987,2312.0
847.858999987,2408.0
847.859999987,2278.0
847.860999987,2067.0
847.861999987,2034.0
847.862999987,2049.0
847.863999987,2040.0
847.864999987,2171.0
847.865999987,2350.0
847.866999987,2375.0
847.867999987,2265.0
847.868999987,2040.0
847.869999987,2009.0
847.870999987,2001.0
847.871999987,2064.0
847.872999987,2207.0
847.873999987,2353.0
847.874999987,2339.0
847.875999987,2222.0
847.876999987,2018.0
847.877999987,2015.0
847.878999987,2025.0
847.879999987,2083.0
847.880999987,2261.0
847.881999987,2371.0
847.882999987,2319.0
847.883999987,2168.0
847.884999987,2002.0
847.885999987,2011.0
847.886999987,2011.0
847.887999987,2115.0
847.888999987,2286.0
847.889999987,2380.0
847.890999987,2324.0
847.891999987,2135.0
847.892999987,1990.0
847.893999987,2042.0
847.894999987,2044.0
847.895999987,2176.0
847.896999987,2313.0
847.897999987,2385.0
847.898999987,2305.0
847.899999987,2132.0
847.900999987,1976.0
847.901999987,2004.0
847.902999987,2067.0
847.903999987,2224.0
847.904999987,2322.0
847.905999987,2334.0
847.906999987,2267.0
847.907999987,2090.0
847.908999987,1970.0
847.909999987,1949.0
847.910999987,2067.0
847.911999987,2257.0
847.912999987,2317.0
847.913999987,2267.0
847.914999987,2170.0
847.915999987,2039.0
847.916999987,1944.0
847.917999987,1950.0
847.918999987,2065.0
847.919999987,2303.0
847.920999987,2324.0
847.921999987,2258.0
847.922999987,2124.0
847.923999987,2011.0
847.924999987,1947.0
847.925999987,1945.0
847.926999987,2100.0
847.927999987,2283.0
847.928999987,2342.0
847.929999987,2266.0
847.930999987,2166.0
847.931999987,2031.0
847.932999987,1977.0
847.933999987,2044.0
847.934999987,2196.0
847.935999987,2354.0
847.936999987,2343.0
847.937999987,2264.0
847.938999987,2138.0
847.939999987,2029.0
847.940999987,1970.0
847.941999987,2019.0
847.942999987,2237.0
847.943999987,2372.0
847.944999987,2323.0
847.945999987,2244.0
847.946999987,2113.0
847.947999987,2024.0
847.948999987,1957.0
847.949999987,2042.0
847.950999987,2277.0
847.951999987,2383.0
847.952999987,2297.0
847.953999987,2163.0
847.954999987,2091.0
847.955999987,2028.0
847.956999987,1965.0
847.957999987,2026.0
847.958999987,2303.0
847.959999987,2358.0
847.960999987,2255.0
847.961999987,2056.0
847.962999987,1984.0
847.963999987,1917.0
847.964999987,1802.0
847.965999987,1837.0
847.966999987,1983.0
847.967999987,1932.0
847.968999987,1731.0
847.969999987,1631.0
847.970999987,1738.0
847.971999987,1917.0
847.972999987,2102.0
847.973999987,2498.0
847.974999987,2862.0
847.975999987,3018.0
847.976999987,2882.0
847.977999987,2752.0
847.978999987,2724.0
847.979999987,2674.0
847.980999987,2582.0
847.981999987,2712.0
847.982999987,2796.0
847.983999987,2709.0
847.984999987,2496.0
847.985999987,2322.0
847.986999987,2196.0
847.987999987,2108.0
847.988999987,2040.0
847.989999987,2188.0
847.990999987,2258.0
847.991999987,2116.0
847.992999987,1908.0
847.993999987,1793.0
847.994999987,1772.0
847.995999987,1738.0
847.996999987,1767.0
847.997999987,2015.0
847.998999987,2126.0
847.999999987,2041.0
848.000999987,1831.0
848.001999987,1777.0
848.002999987,1788.0
848.003999987,1750.0
848.004999987,1855.0
848.005999987,2076.0
848.006999987,2160.0
848.007999987,2084.0
848.008999987,1865.0
848.009999987,1801.0
848.010999987,1830.0
848.011999987,1818.0
848.012999987,1941.0
848.013999987,2118.0
848.014999987,2171.0
848.015999987,2072.0
848.016999987,1861.0
848.017999987,1819.0
848.018999987,1817.0
848.019999987,1872.0
848.020999987,1998.0
848.021999987,2145.0
848.022999987,2153.0
848.023999987,2044.0
848.024999987,1841.0
848.025999987,1813.0
848.026999987,1807.0
848.027999987,1870.0
848.028999987,2034.0
848.029999987,2157.0
848.030999987,2108.0
848.031999987,1984.0
848.032999987,1824.0
848.033999987,1804.0
848.034999987,1794.0
848.035999987,1891.0
848.036999987,2058.0
848.037999987,2133.0
848.038999987,2096.0
848.039999987,1931.0
848.040999987,1765.0
848.041999987,1772.0
848.042999987,1794.0
848.043999987,1930.0
848.044999987,2079.0
848.045999987,2131.0
848.046999987,2080.0
848.047999987,1922.0
848.048999987,1769.0
848.049999987,1803.0
848.050999987,1827.0
848.051999987,2012.0
848.052999987,2135.0
848.053999987,2149.0
848.054999987,2126.0
848.055999987,1991.0
848.056999987,1849.0
848.057999987,1852.0
848.058999987,1953.0
848.059999987,2170.0
848.060999987,2249.0
848.061999987,2241.0
848.062999987,2174.0
848.063999987,2068.0
848.064999987,1968.0
848.065999987,1971.0
848.066999987,2079.0
848.067999987,2331.0
848.068999987,2390.0
848.069999987,2334.0
848.070999987,2217.0
848.071999987,2167.0
848.072999987,2071.0
848.073999987,2066.0
848.074999987,2229.0
848.075999987,2437.0
848.076999987,2461.0
848.077999987,2395.0
848.078999987,2292.0
848.079999987,2201.0
848.080999987,2123.0
848.081999987,2141.0
848.082999987,2298.0
848.083999987,2513.0
848.084999987,2482.0
848.085999987,2398.0
848.086999987,2278.0
848.087999987,2200.0
848.088999987,2115.0
848.089999987,2151.0
848.090999987,2357.0
848.091999987,2511.0
848.092999987,2446.0
848.093999987,2345.0
848.094999987,2202.0
848.095999987,2167.0
848.096999987,2059.0
848.097999987,2129.0
848.098999987,2345.0
848.099999987,2467.0
848.100999987,2400.0
848.101999987,2252.0
848.102999987,2152.0
848.103999987,2132.0
848.104999987,2034.0
848.105999987,2097.0
848.106999987,2365.0
848.107999987,2447.0
848.108999987,2340.0
848.109999987,2166.0
848.110999987,2120.0
848.111999987,2069.0
848.112999987,2022.0
848.113999987,2109.0
848.114999987,2335.0
848.115999987,2430.0
848.116999987,2317.0
848.117999987,2117.0
848.118999987,2082.0
848.119999987,2059.0
848.120999987,1994.0
848.121999987,2146.0
848.122999987,2340.0
848.123999987,2392.0
848.124999987,2254.0
848.125999987,2095.0
848.126999987,2037.0
848.127999987,2021.0
848.128999987,1994.0
848.129999987,2209.0
848.130999987,2346.0
848.131999987,2347.0
848.132999987,2197.0
848.133999987,2044.0
848.134999987,2000.0
848.135999987,2003.0
848.136999987,1997.0
848.137999987,2208.0
848.138999987,2352.0
848.139999987,2311.0
848.140999987,2136.0
848.141999987,2024.0
848.142999987,2003.0
848.143999987,1997.0
848.144999987,2017.0
848.145999987,2247.0
848.146999987,2364.0
848.147999987,2305.0
848.148999987,2096.0
848.149999987,2004.0
848.150999987,2026.0
848.151999987,2014.0
848.152999987,2097.0
848.153999987,2279.0
848.154999987,2361.0
848.155999987,2307.0
848.156999987,2077.0
848.157999987,2008.0
848.158999987,2030.0
848.159999987,2051.0
848.160999987,2149.0
848.161999987,2325.0
848.162999987,2355.0
848.163999987,2304.0
848.164999987,2052.0
848.165999987,1989.0
848.166999987,1996.0
848.167999987,2069.0
848.168999987,2186.0
848.169999987,2331.0
848.170999987,2330.0
848.171999987,2258.0
848.172999987,2037.0
848.173999987,1982.0
848.174999987,1998.0
848.175999987,2083.0
848.176999987,2232.0
848.177999987,2337.0
848.178999987,2296.0
848.179999987,2173.0
848.180999987,2017.0
848.181999987,1982.0
848.182999987,1988.0
848.183999987,2087.0
848.184999987,2260.0
848.185999987,2344.0
848.186999987,2288.0
848.187999987,2136.0
848.188999987,1967.0
848.189999987,1939.0
848.190999987,1962.0
848.191999987,2114.0
848.192999987,2259.0
848.193999987,2328.0
848.194999987,2263.0
848.195999987,2113.0
848.196999987,1956.0
848.197999987,1955.0
848.198999987,1997.0
848.199999987,2189.0
848.200999987,2302.0
848.201999987,2319.0
848.202999987,2242.0
848.203999987,2116.0
848.204999987,1942.0
848.205999987,1871.0
848.206999987,2026.0
848.207999987,2256.0
848.208999987,2323.0
848.209999987,2297.0
848.210999987,2231.0
848.211999987,2102.0
848.212999987,1979.0
848.213999987,1928.0
848.214999987,2045.0
848.215999987,2295.0
848.216999987,2351.0
848.217999987,2289.0
848.218999987,2153.0
848.219999987,2083.0
848.220999987,1981.0
848.221999987,1967.0
848.222999987,2093.0
848.223999987,2347.0
848.224999987,2362.0
848.225999987,2280.0
848.226999987,2127.0
848.227999987,2061.0
848.228999987,1990.0
848.229999987,1971.0
848.230999987,2137.0
848.231999987,2343.0
848.232999987,2346.0
848.233999987,2256.0
848.234999987,2126.0
848.235999987,2049.0
848.236999987,1967.0
848.237999987,1951.0
848.238999987,2151.0
848.239999987,2305.0
848.240999987,2241.0
848.241999987,2078.0
848.242999987,1873.0
848.243999987,1747.0
848.244999987,1544.0
848.245999987,1501.0
848.246999987,1738.0
848.247999987,2022.0
848.248999987,2129.0
848.249999987,2222.0
848.250999987,2364.0
848.251999987,2511.0
848.252999987,2540.0
848.253999987,2616.0
848.254999987,2883.0
848.255999987,3043.0
848.256999987,2939.0
848.257999987,2685.0
848.258999987,2558.0
848.259999987,2448.0
848.260999987,2322.0
848.261999987,2382.0
848.262999987,2590.0
848.263999987,2604.0
848.264999987,2437.0
848.265999987,2192.0
848.266999987,2061.0
848.267999987,2011.0
848.268999987,1844.0
848.269999987,1937.0
848.270999987,2130.0
848.271999987,2192.0
848.272999987,2026.0
848.273999987,1868.0
848.274999987,1806.0
848.275999987,1819.0
848.276999987,1780.0
848.277999987,1955.0
848.278999987,2135.0
848.279999987,2160.0
848.280999987,2011.0
848.281999987,1866.0
848.282999987,1818.0
848.283999987,1803.0
848.284999987,1827.0
848.285999987,2023.0
848.286999987,2196.0
848.287999987,2147.0
848.288999987,1981.0
848.289999987,1853.0
848.290999987,1848.0
848.291999987,1826.0
848.292999987,1865.0
848.293999987,2084.0
848.294999987,2204.0
848.295999987,2150.0
848.296999987,1941.0
848.297999987,1857.0
848.298999987,1859.0
848.299999987,1841.0
848.300999987,1911.0
848.301999987,2111.0
848.302999987,2214.0
848.303999987,2153.0
848.304999987,1942.0
848.305999987,1829.0
848.306999987,1857.0
848.307999987,1861.0
848.308999987,1973.0
848.309999987,2124.0
848.310999987,2193.0
848.311999987,2121.0
848.312999987,1921.0
848.313999987,1822.0
848.314999987,1827.0
848.315999987,1865.0
848.316999987,1999.0
848.317999987,2128.0
848.318999987,2120.0
848.319999987,2084.0
848.320999987,1870.0
848.321999987,1793.0
848.322999987,1791.0
848.323999987,1899.0
848.324999987,2043.0
848.325999987,2137.0
848.326999987,2111.0
848.327999987,2015.0
848.328999987,1851.0
848.329999987,1819.0
848.330999987,1819.0
848.331999987,1904.0
848.332999987,2122.0
848.333999987,2194.0
848.334999987,2177.0
848.335999987,2054.0
848.336999987,1922.0
848.337999987,1914.0
848.338999987,1926.0
848.339999987,2078.0
848.340999987,2263.0
848.341999987,2329.0
848.342999987,2283.0
848.343999987,2163.0
848.344999987,2026.0
848.345999987,2047.0
848.346999987,2032.0
848.347999987,2295.0
848.348999987,2396.0
848.349999987,2417.0
848.350999987,2360.0
848.351999987,2229.0
848.352999987,2077.0
848.353999987,2090.0
848.354999987,2150.0
848.355999987,2378.0
848.356999987,2455.0
848.357999987,2424.0
848.358999987,2371.0
848.359999987,2249.0
848.360999987,2127.0
848.361999987,2089.0
848.362999987,2174.0
848.363999987,2429.0
848.364999987,2478.0
848.365999987,2425.0
848.366999987,2295.0
848.367999987,2220.0
848.368999987,2110.0
848.369999987,2070.0
848.370999987,2175.0
848.371999987,2422.0
848.372999987,2453.0
848.373999987,2376.0
848.374999987,2232.0
848.375999987,2154.0
848.376999987,2078.0
848.377999987,2066.0
848.378999987,2204.0
848.379999987,2414.0
848.380999987,2427.0
848.381999987,2325.0
848.382999987,2196.0
848.383999987,2138.0
848.384999987,2051.0
848.385999987,2053.0
848.386999987,2236.0
848.387999987,2417.0
848.388999987,2405.0
848.389999987,2283.0
848.390999987,2142.0
848.391999987,2087.0
848.392999987,2014.0
848.393999987,2048.0
848.394999987,2233.0
848.395999987,2402.0
848.396999987,2333.0
848.397999987,2219.0
848.398999987,2085.0
848.399999987,2051.0
848.400999987,1969.0
848.401999987,2020.0
848.402999987,2250.0
848.403999987,2399.0
848.404999987,2301.0
848.405999987,2126.0
848.406999987,2070.0
848.407999987,2021.0
848.408999987,1970.0
848.409999987,2029.0
848.410999987,2279.0
848.411999987,2375.0
848.412999987,2284.0
848.413999987,2082.0
848.414999987,2029.0
848.415999987,2035.0
848.416999987,1971.0
848.417999987,2088.0
848.418999987,2297.0
848.419999987,2380.0
848.420999987,2240.0
848.421999987,2027.0
848.422999987,1994.0
848.423999987,2030.0
848.424999987,1987.0
848.425999987,2149.0
848.426999987,2327.0
848.427999987,2360.0
848.428999987,2210.0
848.429999987,1984.0
848.430999987,1992.0
848.431999987,1990.0
848.432999987,2001.0
848.433999987,2169.0
848.434999987,2328.0
848.435999987,2304.0
848.436999987,2166.0
848.437999987,1981.0
848.438999987,1998.0
848.439999987,1986.0
848.440999987,2019.0
848.441999987,2223.0
848.442999987,2347.0
848.443999987,2291.0
848.444999987,2108.0
848.445999987,1961.0
848.446999987,1986.0
848.447999987,1986.0
848.448999987,2048.0
848.449999987,2241.0
848.450999987,2343.0
848.451999987,2287.0
848.452999987,2083.0
848.453999987,1928.0
848.454999987,1989.0
848.455999987,2017.0
848.456999987,2115.0
848.457999987,2286.0
848.458999987,2344.0
848.459999987,2275.0
848.460999987,2074.0
848.461999987,1935.0
848.462999987,1984.0
848.463999987,2047.0
848.464999987,2146.0
848.465999987,2274.0
848.466999987,2302.0
848.467999987,2246.0
848.468999987,2020.0
848.469999987,1905.0
848.470999987,1947.0
848.471999987,2033.0
848.472999987,2186.0
848.473999987,2273.0
848.474999987,2240.0
848.475999987,2166.0
848.476999987,1972.0
848.477999987,1894.0
848.478999987,1924.0
848.479999987,2039.0
848.480999987,2223.0
848.481999987,2287.0
848.482999987,2255.0
848.483999987,2104.0
848.484999987,1977.0
848.485999987,1913.0
848.486999987,1939.0
848.487999987,2103.0
848.488999987,2266.0
848.489999987,2301.0
848.490999987,2266.0
848.491999987,2120.0
848.492999987,1990.0
848.493999987,1934.0
848.494999987,1975.0
848.495999987,2166.0
848.496999987,2313.0
848.497999987,2328.0
848.498999987,2267.0
848.499999987,2117.0
848.500999987,1992.0
848.501999987,1939.0
848.502999987,2014.0
848.503999987,2247.0
848.504999987,2339.0
848.505999987,2320.0
848.506999987,2242.0
848.507999987,2122.0
848.508999987,1996.0
848.509999987,1941.0
848.510999987,2038.0
848.511999987,2283.0
848.512999987,2343.0
848.513999987,2291.0
848.514999987,2178.0
848.515999987,2079.0
848.516999987,1976.0
848.517999987,1928.0
848.518999987,2030.0
848.519999987,2279.0
848.520999987,2324.0
848.521999987,2223.0
848.522999987,2049.0
848.523999987,1968.0
848.524999987,1848.0
848.525999987,1727.0
848.526999987,1799.0
848.527999987,1903.0
848.528999987,1863.0
848.529999987,1786.0
848.530999987,1813.0
848.531999987,1957.0
848.532999987,2081.0
848.533999987,2302.0
848.534999987,2657.0
848.535999987,2982.0
848.536999987,3036.0
848.537999987,2928.0
848.538999987,2779.0
848.539999987,2743.0
848.540999987,2614.0
848.541999987,2534.0
848.542999987,2685.0
848.543999987,2789.0
848.544999987,2665.0
848.545999987,2481.0
848.546999987,2280.0
848.547999987,2171.0
848.548999987,2030.0
848.549999987,1965.0
848.550999987,2129.0
848.551999987,2200.0
848.552999987,2088.0
848.553999987,1871.0
848.554999987,1819.0
848.555999987,1787.0
848.556999987,1708.0
848.557999987,1761.0
848.558999987,2022.0
848.559999987,2136.0
848.560999987,2046.0
848.561999987,1851.0
848.562999987,1794.0
848.563999987,1789.0
848.564999987,1739.0
848.565999987,1851.0
848.566999987,2069.0
848.567999987,2169.0
848.568999987,2051.0
848.569999987,1878.0
848.570999987,1812.0
848.571999987,1835.0
848.572999987,1788.0
848.573999987,1930.0
848.574999987,2136.0
848.575999987,2188.0
848.576999987,2054.0
848.577999987,1883.0
848.578999987,1819.0
848.579999987,1821.0
848.580999987,1837.0
848.581999987,2008.0
848.582999987,2162.0
848.583999987,2158.0
848.584999987,2029.0
848.585999987,1872.0
848.586999987,1845.0
848.587999987,1824.0
848.588999987,1857.0
848.589999987,2036.0
848.590999987,2175.0
848.591999987,2126.0
848.592999987,1963.0
848.593999987,1849.0
848.594999987,1832.0
848.595999987,1800.0
848.596999987,1876.0
848.597999987,2065.0
848.598999987,2165.0
848.599999987,2109.0
848.600999987,1919.0
848.601999987,1782.0
848.602999987,1779.0
848.603999987,1819.0
848.604999987,1908.0
848.605999987,2075.0
848.606999987,2152.0
848.607999987,2085.0
848.608999987,1903.0
848.609999987,1793.0
848.610999987,1826.0
848.611999987,1851.0
848.612999987,1999.0
848.613999987,2134.0
848.614999987,2183.0
848.615999987,2139.0
848.616999987,1957.0
848.617999987,1871.0
848.618999987,1869.0
848.619999987,1972.0
848.620999987,2139.0
848.621999987,2243.0
848.622999987,2241.0
848.623999987,2223.0
848.624999987,2051.0
848.625999987,1995.0
848.626999987,1993.0
848.627999987,2110.0
848.628999987,2317.0
848.629999987,2397.0
848.630999987,2364.0
848.631999987,2261.0
848.632999987,2158.0
848.633999987,2119.0
848.634999987,2097.0
848.635999987,2233.0
848.636999987,2446.0
848.637999987,2479.0
848.638999987,2426.0
848.639999987,2311.0
848.640999987,2181.0
848.641999987,2165.0
848.642999987,2159.0
848.643999987,2326.0
848.644999987,2477.0
848.645999987,2499.0
848.646999987,2419.0
848.647999987,2300.0
848.648999987,2190.0
848.649999987,2149.0
848.650999987,2166.0
848.651999987,2361.0
848.652999987,2487.0
848.653999987,2459.0
848.654999987,2384.0
848.655999987,2258.0
848.656999987,2156.0
848.657999987,2074.0
848.658999987,2163.0
848.659999987,2377.0
848.660999987,2482.0
848.661999987,2410.0
848.662999987,2299.0
848.663999987,2195.0
848.664999987,2109.0
848.665999987,2044.0
848.666999987,2127.0
848.667999987,2393.0
848.668999987,2451.0
848.669999987,2363.0
848.670999987,2181.0
848.671999987,2128.0
848.672999987,2069.0
848.673999987,2031.0
848.674999987,2146.0
848.675999987,2380.0
848.676999987,2424.0
848.677999987,2322.0
848.678999987,2175.0
848.679999987,2098.0
848.680999987,2067.0
848.681999987,2023.0
848.682999987,2178.0
848.683999987,2393.0
848.684999987,2402.0
848.685999987,2277.0
848.686999987,2125.0
848.687999987,2067.0
848.688999987,2032.0
848.689999987,2025.0
848.690999987,2212.0
848.691999987,2370.0
848.692999987,2345.0
848.693999987,2229.0
848.694999987,2075.0
848.695999987,2055.0
848.696999987,2002.0
848.697999987,2031.0
848.698999987,2241.0
848.699999987,2375.0
848.700999987,2321.0
848.701999987,2155.0
848.702999987,2042.0
848.703999987,2033.0
848.704999987,1995.0
848.705999987,2025.0
848.706999987,2272.0
848.707999987,2390.0
848.708999987,2297.0
848.709999987,2100.0
848.710999987,2027.0
848.711999987,2028.0
848.712999987,1993.0
848.713999987,2084.0
848.714999987,2305.0
848.715999987,2413.0
848.716999987,2284.0
848.717999987,2071.0
848.718999987,2008.0
848.719999987,2044.0
848.720999987,2008.0
848.721999987,2130.0
848.722999987,2313.0
848.723999987,2390.0
848.724999987,2272.0
848.725999987,2054.0
848.726999987,2003.0
848.727999987,2035.0
848.728999987,2045.0
848.729999987,2187.0
848.730999987,2345.0
848.731999987,2335.0
848.732999987,2238.0
848.733999987,2028.0
848.734999987,1988.0
848.735999987,2011.0
848.736999987,2068.0
848.737999987,2217.0
848.738999987,2353.0
848.739999987,2312.0
848.740999987,2182.0
848.741999987,1993.0
848.742999987,2001.0
848.743999987,1991.0
848.744999987,2076.0
848.745999987,2254.0
848.746999987,2346.0
848.747999987,2308.0
848.748999987,2129.0
848.749999987,1979.0
848.750999987,1989.0
848.751999987,1996.0
848.752999987,2117.0
848.753999987,2267.0
848.754999987,2341.0
848.755999987,2281.0
848.756999987,2106.0
848.757999987,1966.0
848.758999987,1990.0
848.759999987,2023.0
848.760999987,2177.0
848.761999987,2302.0
848.762999987,2339.0
848.763999987,2271.0
848.764999987,2095.0
848.765999987,1953.0
848.766999987,1958.0
848.767999987,2040.0
848.768999987,2224.0
848.769999987,2312.0
848.770999987,2286.0
848.771999987,2235.0
848.772999987,2064.0
848.773999987,1949.0
848.774999987,1935.0
848.775999987,2042.0
848.776999987,2249.0
848.777999987,2305.0
848.778999987,2255.0
848.779999987,2133.0
848.780999987,2029.0
848.781999987,1919.0
848.782999987,1899.0
848.783999987,2031.0
848.784999987,2257.0
848.785999987,2294.0
848.786999987,2252.0
848.787999987,2114.0
848.788999987,2015.0
848.789999987,1939.0
848.790999987,1946.0
848.791999987,2118.0
848.792999987,2307.0
848.793999987,2317.0
848.794999987,2249.0
848.795999987,2129.0
848.796999987,2023.0
848.797999987,1961.0
848.798999987,1996.0
848.799999987,2217.0
848.800999987,2362.0
848.801999987,2331.0
848.802999987,2250.0
848.803999987,2141.0
848.804999987,2024.0
848.805999987,1965.0
848.806999987,2035.0
848.807999987,2265.0
848.808999987,2389.0
848.809999987,2316.0
848.810999987,2206.0
848.811999987,2115.0
848.812999987,2057.0
848.813999987,1977.0
848.814999987,2047.0
848.815999987,2310.0
848.816999987,2407.0
848.817999987,2324.0
848.818999987,2154.0
848.819999987,2100.0
848.820999987,2069.0
848.821999987,1991.0
848.822999987,2066.0
848.823999987,2328.0
848.824999987,2396.0
848.825999987,2291.0
848.826999987,2134.0
848.827999987,2054.0
848.828999987,2028.0
848.829999987,1949.0
848.830999987,2064.0
848.831999987,2275.0
848.832999987,2255.0
848.833999987,2029.0
848.834999987,1766.0
848.835999987,1617.0
848.836999987,1565.0
848.837999987,1609.0
848.838999987,1994.0
848.839999987,2398.0
848.840999987,2667.0
848.841999987,2705.0
848.842999987,2699.0
848.843999987,2764.0
848.844999987,2759.0
848.845999987,2778.0
848.846999987,2987.0
848.847999987,3104.0
848.848999987,2959.0
848.849999987,2704.0
848.850999987,2520.0
848.851999987,2420.0
848.852999987,2309.0
848.853999987,2244.0
848.854999987,2426.0
848.855999987,2463.0
848.856999987,2283.0
848.857999987,1997.0
848.858999987,1851.0
848.859999987,1803.0
848.860999987,1736.0
848.861999987,1784.0
848.862999987,2003.0
848.863999987,2113.0
848.864999987,2051.0
848.865999987,1843.0
848.866999987,1763.0
848.867999987,1792.0
848.868999987,1771.0
848.869999987,1867.0
848.870999987,2054.0
848.871999987,2136.0
848.872999987,2046.0
848.873999987,1848.0
848.874999987,1775.0
848.875999987,1799.0
848.876999987,1824.0
848.877999987,1966.0
848.878999987,2097.0
848.879999987,2130.0
848.880999987,2059.0
848.881999987,1856.0
848.882999987,1798.0
848.883999987,1810.0
848.884999987,1880.0
848.885999987,2033.0
848.886999987,2160.0
848.887999987,2114.0
848.888999987,2008.0
848.889999987,1829.0
848.890999987,1815.0
848.891999987,1804.0
848.892999987,1880.0
848.893999987,2072.0
848.894999987,2149.0
848.895999987,2106.0
848.896999987,1969.0
848.897999987,1813.0
848.898999987,1804.0
848.899999987,1816.0
848.900999987,1940.0
848.901999987,2091.0
848.902999987,2136.0
848.903999987,2092.0
848.904999987,1937.0
848.905999987,1776.0
848.906999987,1787.0
848.907999987,1813.0
848.908999987,1971.0
848.909999987,2098.0
848.910999987,2125.0
848.911999987,2064.0
848.912999987,1908.0
848.913999987,1757.0
848.914999987,1766.0
848.915999987,1839.0
848.916999987,2033.0
848.917999987,2131.0
848.918999987,2105.0
848.919999987,2069.0
848.920999987,1921.0
848.921999987,1804.0
848.922999987,1802.0
848.923999987,1891.0
848.924999987,2116.0
848.925999987,2190.0
848.926999987,2172.0
848.927999987,2094.0
848.928999987,2008.0
848.929999987,1915.0
848.930999987,1916.0
848.931999987,2042.0
848.932999987,2293.0
848.933999987,2340.0
848.934999987,2293.0
848.935999987,2179.0
848.936999987,2123.0
848.937999987,2046.0
848.938999987,2047.0
848.939999987,2209.0
848.940999987,2433.0
848.941999987,2480.0
848.942999987,2396.0
848.943999987,2277.0
848.944999987,2203.0
848.945999987,2126.0
848.946999987,2140.0
848.947999987,2328.0
848.948999987,2519.0
848.949999987,2504.0
848.950999987,2399.0
848.951999987,2266.0
848.952999987,2215.0
848.953999987,2137.0
848.954999987,2191.0
848.955999987,2400.0
848.956999987,2539.0
848.957999987,2459.0
848.958999987,2368.0
848.959999987,2244.0
848.960999987,2217.0
848.961999987,2110.0
848.962999987,2176.0
848.963999987,2410.0
848.964999987,2520.0
848.965999987,2437.0
848.966999987,2257.0
848.967999987,2190.0
848.968999987,2133.0
848.969999987,2080.0
848.970999987,2150.0
848.971999987,2398.0
848.972999987,2490.0
848.973999987,2382.0
848.974999987,2183.0
848.975999987,2133.0
848.976999987,2126.0
848.977999987,2050.0
848.978999987,2186.0
848.979999987,2384.0
848.980999987,2457.0
848.981999987,2329.0
848.982999987,2160.0
848.983999987,2090.0
848.984999987,2084.0
848.985999987,2025.0
848.986999987,2210.0
848.987999987,2392.0
848.988999987,2423.0
848.989999987,2275.0
848.990999987,2099.0
848.991999987,2056.0
848.992999987,2043.0
848.993999987,2044.0
848.994999987,2226.0
848.995999987,2373.0
848.996999987,2345.0
848.997999987,2206.0
848.998999987,2043.0
848.999999987,2019.0
849.000999987,2017.0
849.001999987,2039.0
849.002999987,2249.0
849.003999987,2374.0
849.004999987,2313.0
849.005999987,2120.0
849.006999987,2028.0
849.007999987,2029.0
849.008999987,2009.0
849.009999987,2065.0
849.010999987,2269.0
849.011999987,2363.0
849.012999987,2305.0
849.013999987,2093.0
849.014999987,1995.0
849.015999987,2044.0
849.016999987,2030.0
849.017999987,2107.0
849.018999987,2287.0
849.019999987,2372.0
849.020999987,2293.0
849.021999987,2087.0
849.022999987,1975.0
849.023999987,2032.0
849.024999987,2043.0
849.025999987,2148.0
849.026999987,2312.0
849.027999987,2350.0
849.028999987,2274.0
849.029999987,2053.0
849.030999987,1967.0
849.031999987,1992.0
849.032999987,2082.0
849.033999987,2208.0
849.034999987,2349.0
849.035999987,2310.0
849.036999987,2225.0
849.037999987,2025.0
849.038999987,1975.0
849.039999987,1992.0
849.040999987,2082.0
849.041999987,2259.0
849.042999987,2327.0
849.043999987,2301.0
849.044999987,2148.0
849.045999987,2002.0
849.046999987,1959.0
849.047999987,1986.0
849.048999987,2118.0
849.049999987,2293.0
849.050999987,2347.0
849.051999987,2303.0
849.052999987,2141.0
849.053999987,1990.0
849.054999987,1962.0
849.055999987,2005.0
849.056999987,2162.0
849.057999987,2304.0
849.058999987,2337.0
849.059999987,2275.0
849.060999987,2138.0
849.061999987,1984.0
849.062999987,1962.0
849.063999987,2047.0
849.064999987,2222.0
849.065999987,2312.0
849.066999987,2304.0
849.067999987,2253.0
849.068999987,2100.0
849.069999987,1973.0
849.070999987,1931.0
849.071999987,2041.0
849.072999987,2274.0
849.073999987,2324.0
849.074999987,2277.0
849.075999987,2177.0
849.076999987,2068.0
849.077999987,1967.0
849.078999987,1918.0
849.079999987,2035.0
849.080999987,2298.0
849.081999987,2327.0
849.082999987,2265.0
849.083999987,2123.0
849.084999987,2062.0
849.085999987,1970.0
849.086999987,1940.0
849.087999987,2068.0
849.088999987,2298.0
849.089999987,2317.0
849.090999987,2236.0
849.091999987,2104.0
849.092999987,2034.0
849.093999987,1948.0
849.094999987,1946.0
849.095999987,2150.0
849.096999987,2346.0
849.097999987,2333.0
849.098999987,2213.0
849.099999987,2086.0
849.100999987,2023.0
849.101999987,1939.0
849.102999987,1952.0
849.103999987,2190.0
849.104999987,2341.0
849.105999987,2288.0
849.106999987,2175.0
849.107999987,2059.0
849.108999987,1994.0
849.109999987,1928.0
849.110999987,1973.0
849.111999987,2224.0
849.112999987,2358.0
849.113999987,2286.0
849.114999987,2112.0
849.115999987,2044.0
849.116999987,2009.0
849.117999987,1930.0
849.118999987,2037.0
849.119999987,2247.0
849.120999987,2357.0
849.121999987,2257.0
849.122999987,2061.0
849.123999987,1999.0
849.124999987,2001.0
849.125999987,1931.0
849.126999987,2053.0
849.127999987,2257.0
849.128999987,2342.0
849.129999987,2199.0
849.130999987,2036.0
849.131999987,1989.0
849.132999987,1975.0
849.133999987,1922.0
849.134999987,2083.0
849.135999987,2286.0
849.136999987,2335.0
849.137999987,2187.0
849.138999987,2023.0
849.139999987,1963.0
849.140999987,1961.0
849.141999987,1962.0
849.142999987,2140.0
849.143999987,2316.0
849.144999987,2310.0
849.145999987,2151.0
849.146999987,2010.0
849.147999987,1991.0
849.148999987,2004.0
849.149999987,2005.0
849.150999987,2206.0
849.151999987,2371.0
849.152999987,2302.0
849.153999987,2125.0
849.154999987,2001.0
849.155999987,1991.0
849.156999987,1968.0
849.157999987,2013.0
849.158999987,2239.0
849.159999987,2350.0
849.160999987,2310.0
849.161999987,2089.0
849.162999987,1995.0
849.163999987,2017.0
849.164999987,1988.0
849.165999987,2086.0
849.166999987,2257.0
849.167999987,2358.0
849.168999987,2296.0
849.169999987,2087.0
849.170999987,1981.0
849.171999987,2011.0
849.172999987,2001.0
849.173999987,2119.0
849.174999987,2258.0
849.175999987,2292.0
849.176999987,2213.0
849.177999987,1991.0
849.178999987,1852.0
849.179999987,1785.0
849.180999987,1765.0
849.181999987,1790.0
849.182999987,1828.0
849.183999987,1831.0
849.184999987,1906.0
849.185999987,1935.0
849.186999987,2125.0
849.187999987,2348.0
849.188999987,2586.0
849.189999987,2882.0
849.190999987,3029.0
849.191999987,3027.0
849.192999987,2903.0
849.193999987,2760.0
849.194999987,2666.0
849.195999987,2544.0
849.196999987,2566.0
849.197999987,2692.0
849.198999987,2651.0
849.199999987,2534.0
849.200999987,2347.0
849.201999987,2094.0
849.202999987,2007.0
849.203999987,1905.0
849.204999987,1984.0
849.205999987,2091.0
849.206999987,2052.0
849.207999987,1971.0
849.208999987,1834.0
849.209999987,1688.0
849.210999987,1679.0
849.211999987,1730.0
849.212999987,1919.0
849.213999987,2035.0
849.214999987,2023.0
849.215999987,1974.0
849.216999987,1839.0
849.217999987,1718.0
849.218999987,1685.0
849.219999987,1778.0
849.220999987,2001.0
849.221999987,2078.0
849.222999987,2027.0
849.223999987,1957.0
849.224999987,1856.0
849.225999987,1741.0
849.226999987,1718.0
849.227999987,1808.0
849.228999987,2080.0
849.229999987,2115.0
849.230999987,2049.0
849.231999987,1911.0
849.232999987,1872.0
849.233999987,1776.0
849.234999987,1744.0
849.235999987,1872.0
849.236999987,2107.0
849.237999987,2129.0
849.238999987,2054.0
849.239999987,1909.0
849.240999987,1856.0
849.241999987,1781.0
849.242999987,1755.0
849.243999987,1937.0
849.244999987,2148.0
849.245999987,2132.0
849.246999987,2027.0
849.247999987,1896.0
849.248999987,1833.0
849.249999987,1770.0
849.250999987,1782.0
849.251999987,1992.0
849.252999987,2140.0
849.253999987,2105.0
849.254999987,1978.0
849.255999987,1850.0
849.256999987,1793.0
849.257999987,1729.0
849.258999987,1790.0
849.259999987,1999.0
849.260999987,2155.0
849.261999987,2089.0
849.262999987,1930.0
849.263999987,1840.0
849.264999987,1823.0
849.265999987,1766.0
849.266999987,1822.0
849.267999987,2075.0
849.268999987,2180.0
849.269999987,2119.0
849.270999987,1926.0
849.271999987,1886.0
849.272999987,1892.0
849.273999987,1857.0
849.274999987,1955.0
849.275999987,2212.0
849.276999987,2290.0
849.277999987,2209.0
849.278999987,2018.0
849.279999987,2006.0
849.280999987,2032.0
849.281999987,1983.0
849.282999987,2150.0
849.283999987,2362.0
849.284999987,2433.0
849.285999987,2321.0
849.286999987,2122.0
849.287999987,2111.0
849.288999987,2139.0
849.289999987,2134.0
849.290999987,2293.0
849.291999987,2480.0
849.292999987,2471.0
849.293999987,2359.0
849.294999987,2157.0
849.295999987,2155.0
849.296999987,2172.0
849.297999987,2197.0
849.298999987,2382.0
849.299999987,2525.0
849.300999987,2472.0
849.301999987,2317.0
849.302999987,2152.0
849.303999987,2183.0
849.304999987,2162.0
849.305999987,2210.0
849.306999987,2398.0
849.307999987,2507.0
849.308999987,2452.0
849.309999987,2255.0
849.310999987,2091.0
849.311999987,2139.0
849.312999987,2156.0
849.313999987,2235.0
849.314999987,2392.0
849.315999987,2508.0
849.316999987,2419.0
849.317999987,2213.0
849.318999987,2062.0
849.319999987,2114.0
849.320999987,2131.0
849.321999987,2252.0
849.322999987,2393.0
849.323999987,2446.0
849.324999987,2368.0
849.325999987,2161.0
849.326999987,2027.0
849.327999987,2080.0
849.328999987,2130.0
849.329999987,2265.0
849.330999987,2380.0
849.331999987,2367.0
849.332999987,2291.0
849.333999987,2095.0
849.334999987,2006.0
849.335999987,2030.0
849.336999987,2132.0
849.337999987,2302.0
849.338999987,2379.0
849.339999987,2322.0
849.340999987,2204.0
849.341999987,2058.0
849.342999987,1977.0
849.343999987,1987.0
849.344999987,2106.0
849.345999987,2298.0
849.346999987,2342.0
849.347999987,2300.0
849.348999987,2150.0
849.349999987,2021.0
849.350999987,1946.0
849.351999987,1992.0
849.352999987,2142.0
849.353999987,2324.0
849.354999987,2350.0
849.355999987,2277.0
849.356999987,2149.0
849.357999987,1993.0
849.358999987,1942.0
849.359999987,2004.0
849.360999987,2201.0
849.361999987,2329.0
849.362999987,2325.0
849.363999987,2253.0
849.364999987,2123.0
849.365999987,1996.0
849.366999987,1934.0
849.367999987,2025.0
849.368999987,2251.0
849.369999987,2339.0
849.370999987,2292.0
849.371999987,2211.0
849.372999987,2093.0
849.373999987,1989.0
849.374999987,1936.0
849.375999987,2027.0
849.376999987,2267.0
849.377999987,2354.0
849.378999987,2282.0
849.379999987,2146.0
849.380999987,2087.0
849.381999987,1978.0
849.382999987,1919.0
849.383999987,2062.0
849.384999987,2328.0
849.385999987,2357.0
849.386999987,2262.0
849.387999987,2118.0
849.388999987,2051.0
849.389999987,1976.0
849.390999987,1952.0
849.391999987,2112.0
849.392999987,2336.0
849.393999987,2362.0
849.394999987,2239.0
849.395999987,2097.0
849.396999987,2033.0
849.397999987,1987.0
849.398999987,1960.0
849.399999987,2173.0
849.400999987,2361.0
849.401999987,2341.0
849.402999987,2198.0
849.403999987,2094.0
849.404999987,2047.0
849.405999987,1969.0
849.406999987,1993.0
849.407999987,2220.0
849.408999987,2381.0
849.409999987,2306.0
849.410999987,2142.0
849.411999987,2057.0
849.412999987,2006.0
849.413999987,1947.0
849.414999987,1994.0
849.415999987,2234.0
849.416999987,2367.0
849.417999987,2286.0
849.418999987,2077.0
849.419999987,2005.0
849.420999987,2000.0
849.421999987,1939.0
849.422999987,2022.0
849.423999987,2265.0
849.424999987,2368.0
849.425999987,2265.0
849.426999987,2073.0
849.427999987,1985.0
849.428999987,2005.0
849.429999987,1947.0
849.430999987,2075.0
849.431999987,2299.0
849.432999987,2368.0
849.433999987,2241.0
849.434999987,2059.0
849.435999987,1989.0
849.436999987,2000.0
849.437999987,1972.0
849.438999987,2128.0
849.439999987,2317.0
849.440999987,2344.0
849.441999987,2219.0
849.442999987,2034.0
849.443999987,1979.0
849.444999987,1969.0
849.445999987,2000.0
849.446999987,2175.0
849.447999987,2315.0
849.448999987,2295.0
849.449999987,2170.0
849.450999987,2011.0
849.451999987,1991.0
849.452999987,1965.0
849.453999987,2028.0
849.454999987,2210.0
849.455999987,2327.0
849.456999987,2296.0
849.457999987,2128.0
849.458999987,1989.0
849.459999987,1973.0
849.460999987,1970.0
849.461999987,2071.0
849.462999987,2249.0
849.463999987,2374.0
849.464999987,2287.0
849.465999987,2086.0
849.466999987,1951.0
849.467999987,1975.0
849.468999987,1990.0
849.469999987,2123.0
849.470999987,2282.0
849.471999987,2338.0
849.472999987,2251.0
849.473999987,2054.0
849.474999987,1936.0
849.475999987,1951.0
849.476999987,2011.0
849.477999987,2160.0
849.478999987,2286.0
849.479999987,2282.0
849.480999987,2220.0
849.481999987,2015.0
849.482999987,1930.0
849.483999987,1929.0
849.484999987,2018.0
849.485999987,2215.0
849.486999987,2302.0
849.487999987,2263.0
849.488999987,2159.0
849.489999987,2028.0
849.490999987,1966.0
849.491999987,1935.0
849.492999987,2061.0
849.493999987,2261.0
849.494999987,2307.0
849.495999987,2270.0
849.496999987,2137.0
849.497999987,2012.0
849.498999987,1956.0
849.499999987,1968.0
849.500999987,2125.0
849.501999987,2319.0
849.502999987,2332.0
849.503999987,2261.0
849.504999987,2137.0
849.505999987,2012.0
849.506999987,1980.0
849.507999987,1989.0
849.508999987,2190.0
849.509999987,2320.0
849.510999987,2321.0
849.511999987,2245.0
849.512999987,2102.0
849.513999987,1996.0
849.514999987,1937.0
849.515999987,2000.0
849.516999987,2205.0
849.517999987,2320.0
849.518999987,2262.0
849.519999987,2173.0
849.520999987,2027.0
849.521999987,1910.0
849.522999987,1800.0
849.523999987,1816.0
849.524999987,1972.0
849.525999987,1971.0
849.526999987,1798.0
849.527999987,1620.0
849.528999987,1695.0
849.529999987,1786.0
849.530999987,1926.0
849.531999987,2251.0
849.532999987,2711.0
849.533999987,2916.0
849.534999987,2897.0
849.535999987,2706.0
849.536999987,2661.0
849.537999987,2654.0
849.538999987,2564.0
849.539999987,2617.0
849.540999987,2773.0
849.541999987,2750.0
849.542999987,2591.0
849.543999987,2407.0
849.544999987,2285.0
849.545999987,2202.0
849.546999987,2092.0
849.547999987,2204.0
849.548999987,2323.0
849.549999987,2270.0
849.550999987,2077.0
849.551999987,1893.0
849.552999987,1799.0
849.553999987,1767.0
849.554999987,1779.0
849.555999987,1985.0
849.556999987,2133.0
849.557999987,2120.0
849.558999987,1963.0
849.559999987,1832.0
849.560999987,1799.0
849.561999987,1777.0
849.562999987,1794.0
849.563999987,2043.0
849.564999987,2167.0
849.565999987,2104.0
849.566999987,1910.0
849.567999987,1819.0
849.568999987,1826.0
849.569999987,1795.0
849.570999987,1851.0
849.571999987,2097.0
849.572999987,2196.0
849.573999987,2114.0
849.574999987,1912.0
849.575999987,1840.0
849.576999987,1850.0
849.577999987,1831.0
849.578999987,1931.0
849.579999987,2153.0
849.580999987,2226.0
849.581999987,2122.0
849.582999987,1905.0
849.583999987,1836.0
849.584999987,1860.0
849.585999987,1878.0
849.586999987,2000.0
849.587999987,2163.0
849.588999987,2192.0
849.589999987,2110.0
849.590999987,1881.0
849.591999987,1818.0
849.592999987,1839.0
849.593999987,1892.0
849.594999987,2030.0
849.595999987,2173.0
849.596999987,2138.0
849.597999987,2034.0
849.598999987,1824.0
849.599999987,1804.0
849.600999987,1801.0
849.601999987,1886.0
849.602999987,2058.0
849.603999987,2166.0
849.604999987,2117.0
849.605999987,1964.0
849.606999987,1809.0
849.607999987,1810.0
849.608999987,1833.0
849.609999987,1941.0
849.610999987,2105.0
849.611999987,2206.0
849.612999987,2147.0
849.613999987,1997.0
849.614999987,1852.0
849.615999987,1880.0
849.616999987,1910.0
849.617999987,2071.0
849.618999987,2224.0
849.619999987,2312.0
849.620999987,2248.0
849.621999987,2093.0
849.622999987,1954.0
849.623999987,1990.0
849.624999987,2069.0
849.625999987,2271.0
849.626999987,2386.0
849.627999987,2401.0
849.628999987,2348.0
849.629999987,2195.0
849.630999987,2068.0
849.631999987,2070.0
849.632999987,2196.0
849.633999987,2408.0
849.634999987,2482.0
849.635999987,2462.0
849.636999987,2383.0
849.637999987,2246.0
849.638999987,2137.0
849.639999987,2121.0
849.640999987,2244.0
849.641999987,2491.0
849.642999987,2525.0
849.643999987,2474.0
849.644999987,2324.0
849.645999987,2232.0
849.646999987,2142.0
849.647999987,2139.0
849.648999987,2291.0
849.649999987,2502.0
849.650999987,2525.0
849.651999987,2456.0
849.652999987,2324.0
849.653999987,2218.0
849.654999987,2122.0
849.655999987,2132.0
849.656999987,2332.0
849.657999987,2496.0
849.658999987,2489.0
849.659999987,2409.0
849.660999987,2248.0
849.661999987,2159.0
849.662999987,2081.0
849.663999987,2120.0
849.664999987,2344.0
849.665999987,2499.0
849.666999987,2430.0
849.667999987,2336.0
849.668999987,2199.0
849.669999987,2126.0
849.670999987,2038.0
849.671999987,2101.0
849.672999987,2337.0
849.673999987,2471.0
849.674999987,2372.0
849.675999987,2232.0
849.676999987,2156.0
849.677999987,2111.0
849.678999987,2022.0
849.679999987,2093.0
849.680999987,2363.0
849.681999987,2445.0
849.682999987,2354.0
849.683999987,2144.0
849.684999987,2093.0
849.685999987,2059.0
849.686999987,1995.0
849.687999987,2117.0
849.688999987,2355.0
849.689999987,2439.0
849.690999987,2297.0
849.691999987,2129.0
849.692999987,2065.0
849.693999987,2056.0
849.694999987,1965.0
849.695999987,2146.0
849.696999987,2367.0
849.697999987,2425.0
849.698999987,2253.0
849.699999987,2133.0
849.700999987,2043.0
849.701999987,2028.0
849.702999987,2012.0
849.703999987,2208.0
849.704999987,2368.0
849.705999987,2348.0
849.706999987,2200.0
849.707999987,2069.0
849.708999987,2030.0
849.709999987,1990.0
849.710999987,2025.0
849.711999987,2241.0
849.712999987,2402.0
849.713999987,2337.0
849.714999987,2139.0
849.715999987,2033.0
849.716999987,2033.0
849.717999987,2001.0
849.718999987,2034.0
849.719999987,2274.0
849.720999987,2394.0
849.721999987,2327.0
849.722999987,2099.0
849.723999987,2006.0
849.724999987,2034.0
849.725999987,2006.0
849.726999987,2099.0
849.727999987,2300.0
849.728999987,2398.0
849.729999987,2313.0
849.730999987,2101.0
849.731999987,2000.0
849.732999987,2028.0
849.733999987,2048.0
849.734999987,2145.0
849.735999987,2315.0
849.736999987,2373.0
849.737999987,2296.0
849.738999987,2059.0
849.739999987,1992.0
849.740999987,1993.0
849.741999987,2064.0
849.742999987,2193.0
849.743999987,2328.0
849.744999987,2312.0
849.745999987,2254.0
849.746999987,2035.0
849.747999987,1980.0
849.748999987,1995.0
849.749999987,2054.0
849.750999987,2250.0
849.751999987,2340.0
849.752999987,2301.0
849.753999987,2151.0
849.754999987,1993.0
849.755999987,1980.0
849.756999987,1972.0
849.757999987,2077.0
849.758999987,2255.0
849.759999987,2337.0
849.760999987,2300.0
849.761999987,2137.0
849.762999987,1975.0
849.763999987,1985.0
849.764999987,1989.0
849.765999987,2141.0
849.766999987,2293.0
849.767999987,2336.0
849.768999987,2282.0
849.769999987,2117.0
849.770999987,1967.0
849.771999987,1982.0
849.772999987,1997.0
849.773999987,2218.0
849.774999987,2309.0
849.775999987,2295.0
849.776999987,2241.0
849.777999987,2108.0
849.778999987,1956.0
849.779999987,1955.0
849.780999987,2034.0
849.781999987,2228.0
849.782999987,2308.0
849.783999987,2268.0
849.784999987,2204.0
849.785999987,2068.0
849.786999987,1946.0
849.787999987,1936.0
849.788999987,2033.0
849.789999987,2268.0
849.790999987,2310.0
849.791999987,2254.0
849.792999987,2105.0
849.793999987,2056.0
849.794999987,1944.0
849.795999987,1930.0
849.796999987,2051.0
849.797999987,2292.0
849.798999987,2311.0
849.799999987,2241.0
849.800999987,2119.0
849.801999987,2032.0
849.802999987,1957.0
849.803999987,1954.0
849.804999987,2128.0
849.805999987,2331.0
849.806999987,2307.0
849.807999987,2213.0
849.808999987,2085.0
849.809999987,2015.0
849.810999987,1942.0
849.811999987,1974.0
849.812999987,2179.0
849.813999987,2351.0
849.814999987,2288.0
849.815999987,2193.0
849.816999987,2068.0
849.817999987,1994.0
849.818999987,1902.0
849.819999987,1981.0
849.820999987,2194.0
849.821999987,2328.0
849.822999987,2262.0
849.823999987,2131.0
849.824999987,2055.0
849.825999987,2002.0
849.826999987,1922.0
849.827999987,1997.0
849.828999987,2243.0
849.829999987,2352.0
849.830999987,2258.0
849.831999987,2068.0
849.832999987,2028.0
849.833999987,2017.0
849.834999987,1942.0
849.835999987,2039.0
849.836999987,2285.0
849.837999987,2382.0
849.838999987,2264.0
849.839999987,2103.0
849.840999987,2027.0
849.841999987,2034.0
849.842999987,1982.0
849.843999987,2128.0
849.844999987,2335.0
849.845999987,2388.0
849.846999987,2233.0
849.847999987,2090.0
849.848999987,2013.0
849.849999987,2043.0
849.850999987,2000.0
849.851999987,2190.0
849.852999987,2356.0
849.853999987,2364.0
849.854999987,2230.0
849.855999987,2055.0
849.856999987,2031.0
849.857999987,2003.0
849.858999987,2021.0
849.859999987,2221.0
849.860999987,2367.0
849.861999987,2323.0
849.862999987,2141.0
849.863999987,1988.0
849.864999987,1981.0
849.865999987,1971.0
849.866999987,1994.0
849.867999987,2195.0
849.868999987,2275.0
849.869999987,2182.0
849.870999987,1882.0
849.871999987,1690.0
849.872999987,1594.0
849.873999987,1520.0
849.874999987,1596.0
849.875999987,1952.0
849.876999987,2247.0
849.877999987,2419.0
849.878999987,2452.0
849.879999987,2496.0
849.880999987,2647.0
849.881999987,2702.0
849.882999987,2814.0
849.883999987,2996.0
849.884999987,3067.0
849.885999987,2926.0
849.886999987,2603.0
849.887999987,2415.0
849.888999987,2392.0
849.889999987,2408.0
849.890999987,2478.0
849.891999987,2539.0
849.892999987,2460.0
849.893999987,2342.0
849.894999987,2021.0
849.895999987,1872.0
849.896999987,1832.0
849.897999987,1866.0
849.898999987,1989.0
849.899999987,2086.0
849.900999987,2048.0
849.901999987,1930.0
849.902999987,1763.0
849.903999987,1717.0
849.904999987,1738.0
849.905999987,1853.0
849.906999987,2026.0
849.907999987,2104.0
849.908999987,2070.0
849.909999987,1913.0
849.910999987,1759.0
849.911999987,1744.0
849.912999987,1767.0
849.913999987,1923.0
849.914999987,2085.0
849.915999987,2133.0
849.916999987,2088.0
849.917999987,1947.0
849.918999987,1792.0
849.919999987,1761.0
849.920999987,1811.0
849.921999987,2020.0
849.922999987,2135.0
849.923999987,2154.0
849.924999987,2080.0
849.925999987,1947.0
849.926999987,1789.0
849.927999987,1739.0
849.928999987,1868.0
849.929999987,2086.0
849.930999987,2161.0
849.931999987,2127.0
849.932999987,2060.0
849.933999987,1908.0
849.934999987,1786.0
849.935999987,1755.0
849.936999987,1860.0
849.937999987,2118.0
849.938999987,2156.0
849.939999987,2101.0
849.940999987,1955.0
849.941999987,1880.0
849.942999987,1772.0
849.943999987,1740.0
849.944999987,1847.0
849.945999987,2116.0
849.946999987,2132.0
849.947999987,2065.0
849.948999987,1913.0
849.949999987,1834.0
849.950999987,1757.0
849.951999987,1727.0
849.952999987,1927.0
849.953999987,2147.0
849.954999987,2141.0
849.955999987,2059.0
849.956999987,1925.0
849.957999987,1847.0
849.958999987,1780.0
849.959999987,1789.0
849.960999987,2016.0
849.961999987,2227.0
849.962999987,2202.0
849.963999987,2101.0
849.964999987,1982.0
849.965999987,1938.0
849.966999987,1863.0
849.967999987,1933.0
849.968999987,2180.0
849.969999987,2358.0
849.970999987,2300.0
849.971999987,2197.0
849.972999987,2089.0
849.973999987,2076.0
849.974999987,2020.0
849.975999987,2089.0
849.976999987,2360.0
849.977999987,2485.0
849.978999987,2419.0
849.979999987,2237.0
849.980999987,2189.0
849.981999987,2187.0
849.982999987,2118.0
849.983999987,2205.0
849.984999987,2460.0
849.985999987,2567.0
849.986999987,2459.0
849.987999987,2286.0
849.988999987,2204.0
849.989999987,2205.0
849.990999987,2129.0
849.991999987,2270.0
849.992999987,2499.0
849.993999987,2574.0
849.994999987,2431.0
849.995999987,2270.0
849.996999987,2178.0
849.997999987,2196.0
849.998999987,2154.0
849.999999987,2318.0
850.000999987,2505.0
850.001999987,2527.0
850.002999987,2359.0
850.003999987,2203.0
850.004999987,2165.0
850.005999987,2136.0
850.006999987,2133.0
850.007999987,2316.0
850.008999987,2484.0
850.009999987,2450.0
850.010999987,2288.0
850.011999987,2142.0
850.012999987,2124.0
850.013999987,2089.0
850.014999987,2124.0
850.015999987,2330.0
850.016999987,2458.0
850.017999987,2395.0
850.018999987,2194.0
850.019999987,2083.0
850.020999987,2080.0
850.021999987,2071.0
850.022999987,2140.0
850.023999987,2327.0
850.024999987,2430.0
850.025999987,2362.0
850.026999987,2178.0
850.027999987,2054.0
850.028999987,2061.0
850.029999987,2062.0
850.030999987,2172.0
850.031999987,2328.0
850.032999987,2399.0
850.033999987,2331.0
850.034999987,2112.0
850.035999987,2006.0
850.036999987,2029.0
850.037999987,2062.0
850.038999987,2195.0
850.039999987,2317.0
850.040999987,2339.0
850.041999987,2267.0
850.042999987,2060.0
850.043999987,1987.0
850.044999987,1969.0
850.045999987,2062.0
850.046999987,2220.0
850.047999987,2317.0
850.048999987,2296.0
850.049999987,2184.0
850.050999987,2017.0
850.051999987,1976.0
850.052999987,1954.0
850.053999987,2058.0
850.054999987,2252.0
850.055999987,2309.0
850.056999987,2286.0
850.057999987,2125.0
850.058999987,1991.0
850.059999987,1962.0
850.060999987,1945.0
850.061999987,2095.0
850.062999987,2272.0
850.063999987,2310.0
850.064999987,2257.0
850.065999987,2114.0
850.066999987,1979.0
850.067999987,1959.0
850.068999987,1965.0
850.069999987,2152.0
850.070999987,2300.0
850.071999987,2299.0
850.072999987,2240.0
850.073999987,2109.0
850.074999987,1953.0
850.075999987,1928.0
850.076999987,1994.0
850.077999987,2220.0
850.078999987,2317.0
850.079999987,2275.0
850.080999987,2215.0
850.081999987,2092.0
850.082999987,1960.0
850.083999987,1926.0
850.084999987,2057.0
850.085999987,2244.0
850.086999987,2303.0
850.087999987,2249.0
850.088999987,2135.0
850.089999987,2053.0
850.090999987,1953.0
850.091999987,1923.0
850.092999987,2012.0
850.093999987,2276.0
850.094999987,2310.0
850.095999987,2239.0
850.096999987,2107.0
850.097999987,2038.0
850.098999987,1972.0
850.099999987,1928.0
850.100999987,2073.0
850.101999987,2309.0
850.102999987,2308.0
850.103999987,2218.0
850.104999987,2078.0
850.105999987,2017.0
850.106999987,1951.0
850.107999987,1946.0
850.108999987,2134.0
850.109999987,2324.0
850.110999987,2316.0
850.111999987,2206.0
850.112999987,2059.0
850.113999987,2013.0
850.114999987,1932.0
850.115999987,1960.0
850.116999987,2182.0
850.117999987,2345.0
850.118999987,2282.0
850.119999987,2156.0
850.120999987,2033.0
850.121999987,1994.0
850.122999987,1923.0
850.123999987,1983.0
850.124999987,2215.0
850.125999987,2350.0
850.126999987,2273.0
850.127999987,2092.0
850.128999987,2004.0
850.129999987,1978.0
850.130999987,1950.0
850.131999987,2004.0
850.132999987,2270.0
850.133999987,2366.0
850.134999987,2272.0
850.135999987,2057.0
850.136999987,1995.0
850.137999987,2001.0
850.138999987,1937.0
850.139999987,2053.0
850.140999987,2276.0
850.141999987,2354.0
850.142999987,2215.0
850.143999987,2016.0
850.144999987,1978.0
850.145999987,2000.0
850.146999987,1962.0
850.147999987,2112.0
850.148999987,2307.0
850.149999987,2341.0
850.150999987,2206.0
850.151999987,1991.0
850.152999987,1987.0
850.153999987,1977.0
850.154999987,1999.0
850.155999987,2163.0
850.156999987,2317.0
850.157999987,2294.0
850.158999987,2157.0
850.159999987,1975.0
850.160999987,1968.0
850.161999987,1962.0
850.162999987,2005.0
850.163999987,2202.0
850.164999987,2330.0
850.165999987,2276.0
850.166999987,2101.0
850.167999987,1933.0
850.168999987,1943.0
850.169999987,1943.0
850.170999987,2017.0
850.171999987,2214.0
850.172999987,2329.0
850.173999987,2263.0
850.174999987,2066.0
850.175999987,1907.0
850.176999987,1952.0
850.177999987,1971.0
850.178999987,2078.0
850.179999987,2241.0
850.180999987,2350.0
850.181999987,2275.0
850.182999987,2045.0
850.183999987,1919.0
850.184999987,1975.0
850.185999987,2029.0
850.186999987,2159.0
850.187999987,2304.0
850.188999987,2337.0
850.189999987,2277.0
850.190999987,2065.0
850.191999987,1938.0
850.192999987,1959.0
850.193999987,2055.0
850.194999987,2214.0
850.195999987,2312.0
850.196999987,2288.0
850.197999987,2222.0
850.198999987,2028.0
850.199999987,1939.0
850.200999987,1963.0
850.201999987,2075.0
850.202999987,2283.0
850.203999987,2356.0
850.204999987,2313.0
850.205999987,2147.0
850.206999987,2014.0
850.207999987,1950.0
850.208999987,1972.0
850.209999987,2107.0
850.210999987,2292.0
850.211999987,2327.0
850.212999987,2267.0
850.213999987,2119.0
850.214999987,1990.0
850.215999987,1906.0
850.216999987,1929.0
850.217999987,2084.0
850.218999987,2209.0
850.219999987,2149.0
850.220999987,1973.0
850.221999987,1750.0
850.222999987,1512.0
850.223999987,1433.0
850.224999987,1651.0
850.225999987,2087.0
850.226999987,2467.0
850.227999987,2658.0
850.228999987,2752.0
850.229999987,2751.0
850.230999987,2685.0
850.231999987,2653.0
850.232999987,2757.0
850.233999987,3003.0
850.234999987,3045.0
850.235999987,2891.0
850.236999987,2682.0
850.237999987,2508.0
850.238999987,2333.0
850.239999987,2207.0
850.240999987,2227.0
850.241999987,2428.0
850.242999987,2424.0
850.243999987,2233.0
850.244999987,2011.0
850.245999987,1853.0
850.246999987,1746.0
850.247999987,1667.0
850.248999987,1806.0
850.249999987,2054.0
850.250999987,2080.0
850.251999987,1981.0
850.252999987,1842.0
850.253999987,1782.0
850.254999987,1712.0
850.255999987,1694.0
850.256999987,1877.0
850.257999987,2095.0
850.258999987,2120.0
850.259999987,1979.0
850.260999987,1843.0
850.261999987,1804.0
850.262999987,1742.0
850.263999987,1747.0
850.264999987,1972.0
850.265999987,2146.0
850.266999987,2116.0
850.267999987,1987.0
850.268999987,1834.0
850.269999987,1811.0
850.270999987,1756.0
850.271999987,1792.0
850.272999987,2044.0
850.273999987,2194.0
850.274999987,2131.0
850.275999987,1968.0
850.276999987,1858.0
850.277999987,1824.0
850.278999987,1787.0
850.279999987,1837.0
850.280999987,2093.0
850.281999987,2190.0
850.282999987,2109.0
850.283999987,1904.0
850.284999987,1835.0
850.285999987,1844.0
850.286999987,1771.0
850.287999987,1876.0
850.288999987,2109.0
850.289999987,2198.0
850.290999987,2077.0
850.291999987,1880.0
850.292999987,1801.0
850.293999987,1815.0
850.294999987,1777.0
850.295999987,1915.0
850.296999987,2114.0
850.297999987,2168.0
850.298999987,2043.0
850.299999987,1851.0
850.300999987,1784.0
850.301999987,1788.0
850.302999987,1803.0
850.303999987,1966.0
850.304999987,2143.0
850.305999987,2141.0
850.306999987,2038.0
850.307999987,1865.0
850.308999987,1819.0
850.309999987,1815.0
850.310999987,1875.0
850.311999987,2065.0
850.312999987,2230.0
850.313999987,2197.0
850.314999987,2064.0
850.315999987,1933.0
850.316999987,1915.0
850.317999987,1937.0
850.318999987,2035.0
850.319999987,2240.0
850.320999987,2367.0
850.321999987,2345.0
850.322999987,2184.0
850.323999987,2071.0
850.324999987,2116.0
850.325999987,2107.0
850.326999987,2234.0
850.327999987,2419.0
850.328999987,2499.0
850.329999987,2467.0
850.330999987,2268.0
850.331999987,2149.0
850.332999987,2168.0
850.333999987,2196.0
850.334999987,2350.0
850.335999987,2489.0
850.336999987,2536.0
850.337999987,2486.0
850.338999987,2280.0
850.339999987,2179.0
850.340999987,2167.0
850.341999987,2258.0
850.342999987,2408.0
850.343999987,2516.0
850.344999987,2490.0
850.345999987,2419.0
850.346999987,2243.0
850.347999987,2150.0
850.348999987,2143.0
850.349999987,2234.0
850.350999987,2444.0
850.351999987,2497.0
850.352999987,2461.0
850.353999987,2320.0
850.354999987,2194.0
850.355999987,2140.0
850.356999987,2085.0
850.357999987,2221.0
850.358999987,2435.0
850.359999987,2465.0
850.360999987,2411.0
850.361999987,2282.0
850.362999987,2162.0
850.363999987,2094.0
850.364999987,2080.0
850.365999987,2250.0
850.366999987,2429.0
850.367999987,2431.0
850.368999987,2360.0
850.369999987,2258.0
850.370999987,2104.0
850.371999987,2062.0
850.372999987,2065.0
850.373999987,2281.0
850.374999987,2394.0
850.375999987,2384.0
850.376999987,2313.0
850.377999987,2170.0
850.378999987,2066.0
850.379999987,1986.0
850.380999987,2084.0
850.381999987,2306.0
850.382999987,2412.0
850.383999987,2342.0
850.384999987,2237.0
850.385999987,2122.0
850.386999987,2039.0
850.387999987,1985.0
850.388999987,2057.0
850.389999987,2312.0
850.390999987,2398.0
850.391999987,2311.0
850.392999987,2134.0
850.393999987,2075.0
850.394999987,2033.0
850.395999987,1974.0
850.396999987,2096.0
850.397999987,2351.0
850.398999987,2384.0
850.399999987,2286.0
850.400999987,2124.0
850.401999987,2066.0
850.402999987,2036.0
850.403999987,1976.0
850.404999987,2125.0
850.405999987,2345.0
850.406999987,2396.0
850.407999987,2263.0
850.408999987,2093.0
850.409999987,2039.0
850.410999987,2016.0
850.411999987,2000.0
850.412999987,2184.0
850.413999987,2362.0
850.414999987,2358.0
850.415999987,2217.0
850.416999987,2063.0
850.417999987,2026.0
850.418999987,1983.0
850.419999987,2004.0
850.420999987,2247.0
850.421999987,2379.0
850.422999987,2319.0
850.423999987,2152.0
850.424999987,2047.0
850.425999987,2010.0
850.426999987,1993.0
850.427999987,2021.0
850.428999987,2260.0
850.429999987,2388.0
850.430999987,2301.0
850.431999987,2101.0
850.432999987,2016.0
850.433999987,2015.0
850.434999987,1995.0
850.435999987,2060.0
850.436999987,2283.0
850.437999987,2382.0
850.438999987,2284.0
850.439999987,2059.0
850.440999987,1983.0
850.441999987,2009.0
850.442999987,2000.0
850.443999987,2131.0
850.444999987,2310.0
850.445999987,2378.0
850.446999987,2268.0
850.447999987,2047.0
850.448999987,1970.0
850.449999987,1990.0
850.450999987,2020.0
850.451999987,2154.0
850.452999987,2329.0
850.453999987,2331.0
850.454999987,2272.0
850.455999987,2023.0
850.456999987,1961.0
850.457999987,1988.0
850.458999987,2046.0
850.459999987,2214.0
850.460999987,2334.0
850.461999987,2302.0
850.462999987,2172.0
850.463999987,1978.0
850.464999987,1962.0
850.465999987,1970.0
850.466999987,2060.0
850.467999987,2242.0
850.468999987,2338.0
850.469999987,2302.0
850.470999987,2136.0
850.471999987,1975.0
850.472999987,1958.0
850.473999987,1975.0
850.474999987,2109.0
850.475999987,2277.0
850.476999987,2337.0
850.477999987,2296.0
850.478999987,2118.0
850.479999987,1949.0
850.480999987,1955.0
850.481999987,2003.0
850.482999987,2169.0
850.483999987,2290.0
850.484999987,2332.0
850.485999987,2259.0
850.486999987,2087.0
850.487999987,1946.0
850.488999987,1934.0
850.489999987,2029.0
850.490999987,2223.0
850.491999987,2321.0
850.492999987,2296.0
850.493999987,2237.0
850.494999987,2070.0
850.495999987,1916.0
850.496999987,1916.0
850.497999987,2037.0
850.498999987,2265.0
850.499999987,2319.0
850.500999987,2270.0
850.501999987,2151.0
850.502999987,2046.0
850.503999987,1943.0
850.504999987,1918.0
850.505999987,2057.0
850.506999987,2295.0
850.507999987,2314.0
850.508999987,2251.0
850.509999987,2105.0
850.510999987,2016.0
850.511999987,1922.0
850.512999987,1915.0
850.513999987,2084.0
850.514999987,2279.0
850.515999987,2281.0
850.516999987,2213.0
850.517999987,2106.0
850.518999987,1981.0
850.519999987,1922.0
850.520999987,1936.0
850.521999987,2153.0
850.522999987,2310.0
850.523999987,2303.0
850.524999987,2193.0
850.525999987,2043.0
850.526999987,2001.0
850.527999987,1907.0
850.528999987,1978.0
850.529999987,2205.0
850.530999987,2373.0
850.531999987,2274.0
850.532999987,2165.0
850.533999987,2066.0
850.534999987,2016.0
850.535999987,1928.0
850.536999987,2008.0
850.537999987,2271.0
850.538999987,2392.0
850.539999987,2294.0
850.540999987,2110.0
850.541999987,2048.0
850.542999987,2011.0
850.543999987,1949.0
850.544999987,2040.0
850.545999987,2311.0
850.546999987,2390.0
850.547999987,2276.0
850.548999987,2097.0
850.549999987,2028.0
850.550999987,2019.0
850.551999987,1958.0
850.552999987,2090.0
850.553999987,2330.0
850.554999987,2397.0
850.555999987,2252.0
850.556999987,2091.0
850.557999987,1999.0
850.558999987,2015.0
850.559999987,1950.0
850.560999987,2125.0
850.561999987,2302.0
850.562999987,2321.0
850.563999987,2144.0
850.564999987,1948.0
850.565999987,1820.0
850.566999987,1712.0
850.567999987,1602.0
850.568999987,1730.0
850.569999987,1878.0
850.570999987,1956.0
850.571999987,1993.0
850.572999987,2106.0
850.573999987,2321.0
850.574999987,2471.0
850.575999987,2629.0
850.576999987,2924.0
850.577999987,3085.0
850.578999987,3036.0
850.579999987,2826.0
850.580999987,2703.0
850.581999987,2604.0
850.582999987,2481.0
850.583999987,2471.0
850.584999987,2624.0
850.585999987,2656.0
850.586999987,2516.0
850.587999987,2220.0
850.588999987,2038.0
850.589999987,1953.0
850.590999987,1869.0
850.591999987,1908.0
850.592999987,2045.0
850.593999987,2106.0
850.594999987,2009.0
850.595999987,1784.0
850.596999987,1690.0
850.597999987,1727.0
850.598999987,1747.0
850.599999987,1881.0
850.600999987,2041.0
850.601999987,2066.0
850.602999987,2003.0
850.603999987,1787.0
850.604999987,1712.0
850.605999987,1730.0
850.606999987,1808.0
850.607999987,1961.0
850.608999987,2101.0
850.609999987,2032.0
850.610999987,1962.0
850.611999987,1776.0
850.612999987,1741.0
850.613999987,1748.0
850.614999987,1843.0
850.615999987,2002.0
850.616999987,2162.0
850.617999987,2062.0
850.618999987,1952.0
850.619999987,1798.0
850.620999987,1787.0
850.621999987,1772.0
850.622999987,1902.0
850.623999987,2074.0
850.624999987,2137.0
850.625999987,2098.0
850.626999987,1945.0
850.627999987,1781.0
850.628999987,1796.0
850.629999987,1814.0
850.630999987,1975.0
850.631999987,2119.0
850.632999987,2134.0
850.633999987,2059.0
850.634999987,1925.0
850.635999987,1763.0
850.636999987,1765.0
850.637999987,1814.0
850.638999987,2014.0
850.639999987,2120.0
850.640999987,2091.0
850.641999987,2027.0
850.642999987,1871.0
850.643999987,1741.0
850.644999987,1723.0
850.645999987,1823.0
850.646999987,2045.0
850.647999987,2106.0
850.648999987,2056.0
850.649999987,1973.0
850.650999987,1881.0
850.651999987,1759.0
850.652999987,1745.0
850.653999987,1862.0
850.654999987,2109.0
850.655999987,2163.0
850.656999987,2121.0
850.657999987,1991.0
850.658999987,1910.0
850.659999987,1838.0
850.660999987,1846.0
850.661999987,2014.0
850.662999987,2249.0
850.663999987,2274.0
850.664999987,2225.0
850.665999987,2115.0
850.666999987,2042.0
850.667999987,1985.0
850.668999987,2019.0
850.669999987,2222.0
850.670999987,2415.0
850.671999987,2416.0
850.672999987,2334.0
850.673999987,2213.0
850.674999987,2173.0
850.675999987,2094.0
850.676999987,2153.0
850.677999987,2367.0
850.678999987,2533.0
850.679999987,2466.0
850.680999987,2377.0
850.681999987,2246.0
850.682999987,2200.0
850.683999987,2122.0
850.684999987,2193.0
850.685999987,2434.0
850.686999987,2571.0
850.687999987,2485.0
850.688999987,2321.0
850.689999987,2245.0
850.690999987,2219.0
850.691999987,2130.0
850.692999987,2209.0
850.693999987,2470.0
850.694999987,2552.0
850.695999987,2465.0
850.696999987,2275.0
850.697999987,2196.0
850.698999987,2169.0
850.699999987,2100.0
850.700999987,2233.0
850.701999987,2443.0
850.702999987,2514.0
850.703999987,2385.0
850.704999987,2205.0
850.705999987,2132.0
850.706999987,2140.0
850.707999987,2084.0
850.708999987,2250.0
850.709999987,2425.0
850.710999987,2472.0
850.711999987,2305.0
850.712999987,2132.0
850.713999987,2088.0
850.714999987,2074.0
850.715999987,2075.0
850.716999987,2240.0
850.717999987,2406.0
850.718999987,2367.0
850.719999987,2241.0
850.720999987,2086.0
850.721999987,2036.0
850.722999987,2035.0
850.723999987,2055.0
850.724999987,2271.0
850.725999987,2396.0
850.726999987,2347.0
850.727999987,2143.0
850.728999987,2011.0
850.729999987,2043.0
850.730999987,2012.0
850.731999987,2055.0
850.732999987,2279.0
850.733999987,2386.0
850.734999987,2312.0
850.735999987,2096.0
850.736999987,1980.0
850.737999987,2016.0
850.738999987,2026.0
850.739999987,2108.0
850.740999987,2301.0
850.741999987,2390.0
850.742999987,2277.0
850.743999987,2062.0
850.744999987,1957.0
850.745999987,2016.0
850.746999987,2052.0
850.747999987,2172.0
850.748999987,2337.0
850.749999987,2351.0
850.750999987,2271.0
850.751999987,2025.0
850.752999987,1948.0
850.753999987,1968.0
850.754999987,2052.0
850.755999987,2199.0
850.756999987,2331.0
850.757999987,2312.0
850.758999987,2217.0
850.759999987,2020.0
850.760999987,1948.0
850.761999987,1962.0
850.762999987,2071.0
850.763999987,2251.0
850.764999987,2345.0
850.765999987,2310.0
850.766999987,2143.0
850.767999987,1995.0
850.768999987,1951.0
850.769999987,1975.0
850.770999987,2107.0
850.771999987,2293.0
850.772999987,2336.0
850.773999987,2297.0
850.774999987,2150.0
850.775999987,1981.0
850.776999987,1954.0
850.777999987,2006.0
850.778999987,2179.0
850.779999987,2308.0
850.780999987,2343.0
850.781999987,2271.0
850.782999987,2134.0
850.783999987,1976.0
850.784999987,1959.0
850.785999987,2031.0
850.786999987,2224.0
850.787999987,2340.0
850.788999987,2313.0
850.789999987,2250.0
850.790999987,2092.0
850.791999987,1982.0
850.792999987,1926.0
850.793999987,2051.0
850.794999987,2281.0
850.795999987,2334.0
850.796999987,2279.0
850.797999987,2181.0
850.798999987,2088.0
850.799999987,1973.0
850.800999987,1942.0
850.801999987,2054.0
850.802999987,2306.0
850.803999987,2351.0
850.804999987,2278.0
850.805999987,2117.0
850.806999987,2067.0
850.807999987,1969.0
850.808999987,1934.0
850.809999987,2082.0
850.810999987,2339.0
850.811999987,2345.0
850.812999987,2262.0
850.813999987,2124.0
850.814999987,2041.0
850.815999987,1967.0
850.816999987,1951.0
850.817999987,2162.0
850.818999987,2350.0
850.819999987,2348.0
850.820999987,2238.0
850.821999987,2116.0
850.822999987,2066.0
850.823999987,1950.0
850.824999987,1958.0
850.825999987,2191.0
850.826999987,2369.0
850.827999987,2301.0
850.828999987,2201.0
850.829999987,2062.0
850.830999987,2013.0
850.831999987,1907.0
850.832999987,1968.0
850.833999987,2213.0
850.834999987,2356.0
850.835999987,2283.0
850.836999987,2113.0
850.837999987,2014.0
850.838999987,1993.0
850.839999987,1922.0
850.840999987,1984.0
850.841999987,2255.0
850.842999987,2389.0
850.843999987,2282.0
850.844999987,2095.0
850.845999987,2050.0
850.846999987,2013.0
850.847999987,1943.0
850.848999987,2059.0
850.849999987,2305.0
850.850999987,2395.0
850.851999987,2279.0
850.852999987,2082.0
850.853999987,2029.0
850.854999987,2034.0
850.855999987,1974.0
850.856999987,2136.0
850.857999987,2356.0
850.858999987,2426.0
850.859999987,2262.0
850.860999987,2088.0
850.861999987,2034.0
850.862999987,2019.0
850.863999987,2001.0
850.864999987,2178.0
850.865999987,2372.0
850.866999987,2371.0
850.867999987,2224.0
850.868999987,2077.0
850.869999987,2020.0
850.870999987,2003.0
850.871999987,2017.0
850.872999987,2218.0
850.873999987,2381.0
850.874999987,2345.0
850.875999987,2133.0
850.876999987,2012.0
850.877999987,2031.0
850.878999987,1967.0
850.879999987,1971.0
850.880999987,2160.0
850.881999987,2241.0
850.882999987,2105.0
850.883999987,1806.0
850.884999987,1612.0
850.885999987,1515.0
850.886999987,1504.0
850.887999987,1725.0
850.888999987,2097.0
850.889999987,2402.0
850.890999987,2573.0
850.891999987,2563.0
850.892999987,2564.0
850.893999987,2644.0
850.894999987,2656.0
850.895999987,2794.0
850.896999987,2964.0
850.897999987,2972.0
850.898999987,2816.0
850.899999987,2537.0
850.900999987,2372.0
850.901999987,2341.0
850.902999987,2358.0
850.903999987,2439.0
850.904999987,2497.0
850.905999987,2443.0
850.906999987,2311.0
850.907999987,2028.0
850.908999987,1889.0
850.909999987,1821.0
850.910999987,1898.0
850.911999987,2055.0
850.912999987,2122.0
850.913999987,2094.0
850.914999987,1958.0
850.915999987,1822.0
850.916999987,1783.0
850.917999987,1746.0
850.918999987,1892.0
850.919999987,2108.0
850.920999987,2142.0
850.921999987,2104.0
850.922999987,1964.0
850.923999987,1817.0
850.924999987,1822.0
850.925999987,1821.0
850.926999987,1971.0
850.927999987,2151.0
850.928999987,2165.0
850.929999987,2131.0
850.930999987,1952.0
850.931999987,1845.0
850.932999987,1850.0
850.933999987,1864.0
850.934999987,2070.0
850.935999987,2197.0
850.936999987,2166.0
850.937999987,2108.0
850.938999987,1969.0
850.939999987,1861.0
850.940999987,1807.0
850.941999987,1901.0
850.942999987,2145.0
850.943999987,2194.0
850.944999987,2143.0
850.945999987,2069.0
850.946999987,1965.0
850.947999987,1834.0
850.948999987,1783.0
850.949999987,1894.0
850.950999987,2133.0
850.951999987,2195.0
850.952999987,2127.0
850.953999987,1969.0
850.954999987,1906.0
850.955999987,1811.0
850.956999987,1774.0
850.957999987,1888.0
850.958999987,2144.0
850.959999987,2170.0
850.960999987,2082.0
850.961999987,1918.0
850.962999987,1872.0
850.963999987,1799.0
850.964999987,1779.0
850.965999987,1966.0
850.966999987,2176.0
850.967999987,2180.0
850.968999987,2074.0
850.969999987,1951.0
850.970999987,1870.0
850.971999987,1842.0
850.972999987,1849.0
850.973999987,2074.0
850.974999987,2264.0
850.975999987,2242.0
850.976999987,2134.0
850.977999987,2015.0
850.978999987,1983.0
850.979999987,1909.0
850.980999987,1982.0
850.981999987,2226.0
850.982999987,2412.0
850.983999987,2349.0
850.984999987,2208.0
850.985999987,2131.0
850.986999987,2111.0
850.987999987,2062.0
850.988999987,2123.0
850.989999987,2377.0
850.990999987,2492.0
850.991999987,2432.0
850.992999987,2241.0
850.993999987,2199.0
850.994999987,2185.0
850.995999987,2139.0
850.996999987,2231.0
850.997999987,2483.0
850.998999987,2567.0
850.999999987,2461.0
851.000999987,2256.0
851.001999987,2215.0
851.002999987,2226.0
851.003999987,2166.0
851.004999987,2295.0
851.005999987,2511.0
851.006999987,2587.0
851.007999987,2432.0
851.008999987,2215.0
851.009999987,2165.0
851.010999987,2192.0
851.011999987,2171.0
851.012999987,2321.0
851.013999987,2517.0
851.014999987,2515.0
851.015999987,2374.0
851.016999987,2159.0
851.017999987,2139.0
851.018999987,2132.0
851.019999987,2141.0
851.020999987,2343.0
851.021999987,2484.0
851.022999987,2439.0
851.023999987,2282.0
851.024999987,2105.0
851.025999987,2151.0
851.026999987,2098.0
851.027999987,2152.0
