835.253999987,2055.0
835.254999987,1978.0
835.255999987,1985.0
835.256999987,2054.0
835.257999987,2220.0
835.258999987,2264.0
835.259999987,2219.0
835.260999987,2089.0
835.261999987,1992.0
835.262999987,1932.0
835.263999987,1951.0
835.264999987,2078.0
835.265999987,2211.0
835.266999987,2229.0
835.267999987,2181.0
835.268999987,2080.0
835.269999987,1981.0
835.270999987,1925.0
835.271999987,1951.0
835.272999987,2120.0
835.273999987,2224.0
835.274999987,2242.0
835.275999987,2197.0
835.276999987,2075.0
835.277999987,1966.0
835.278999987,1933.0
835.279999987,1970.0
835.280999987,2163.0
835.281999987,2255.0
835.282999987,2217.0
835.283999987,2191.0
835.284999987,2088.0
835.285999987,1978.0
835.286999987,1930.0
835.287999987,2022.0
835.288999987,2228.0
835.289999987,2263.0
835.290999987,2216.0
835.291999987,2110.0
835.292999987,2105.0
835.293999987,1996.0
835.294999987,1944.0
835.295999987,2009.0
835.296999987,2262.0
835.297999987,2300.0
835.298999987,2219.0
835.299999987,2091.0
835.300999987,2083.0
835.301999987,2006.0
835.302999987,1944.0
835.303999987,2051.0
835.304999987,2280.0
835.305999987,2315.0
835.306999987,2201.0
835.307999987,2091.0
835.308999987,2076.0
835.309999987,2005.0
835.310999987,1964.0
835.311999987,2120.0
835.312999987,2304.0
835.313999987,2321.0
835.314999987,2190.0
835.315999987,2111.0
835.316999987,2049.0
835.317999987,1999.0
835.318999987,1980.0
835.319999987,2179.0
835.320999987,2319.0
835.321999987,2272.0
835.322999987,2160.0
835.323999987,2080.0
835.324999987,2079.0
835.325999987,1988.0
835.326999987,1995.0
835.327999987,2208.0
835.328999987,2334.0
835.329999987,2260.0
835.330999987,2093.0
835.331999987,2060.0
835.332999987,2054.0
835.333999987,1989.0
835.334999987,1996.0
835.335999987,2223.0
835.336999987,2317.0
835.337999987,2231.0
835.338999987,2046.0
835.339999987,2019.0
835.340999987,2043.0
835.341999987,1968.0
835.342999987,2038.0
835.343999987,2235.0
835.344999987,2329.0
835.345999987,2195.0
835.346999987,2050.0
835.347999987,2013.0
835.348999987,2034.0
835.349999987,1962.0
835.350999987,2083.0
835.351999987,2244.0
835.352999987,2294.0
835.353999987,2159.0
835.354999987,2019.0
835.355999987,1990.0
835.356999987,1985.0
835.357999987,1969.0
835.358999987,2086.0
835.359999987,2223.0
835.360999987,2213.0
835.361999987,2102.0
835.362999987,1974.0
835.363999987,1969.0
835.364999987,1965.0
835.365999987,1966.0
835.366999987,2117.0
835.367999987,2245.0
835.368999987,2199.0
835.369999987,2053.0
835.370999987,1971.0
835.371999987,1992.0
835.372999987,1948.0
835.373999987,1987.0
835.374999987,2158.0
835.375999987,2251.0
835.376999987,2220.0
835.377999987,2068.0
835.378999987,1993.0
835.379999987,2025.0
835.380999987,1987.0
835.381999987,2063.0
835.382999987,2198.0
835.383999987,2280.0
835.384999987,2233.0
835.385999987,2064.0
835.386999987,2008.0
835.387999987,2022.0
835.388999987,2030.0
835.389999987,2126.0
835.390999987,2233.0
835.391999987,2272.0
835.392999987,2231.0
835.393999987,2082.0
835.394999987,1997.0
835.395999987,1988.0
835.396999987,2046.0
835.397999987,2166.0
835.398999987,2253.0
835.399999987,2222.0
835.400999987,2174.0
835.401999987,2022.0
835.402999987,1984.0
835.403999987,1957.0
835.404999987,2022.0
835.405999987,2191.0
835.406999987,2213.0
835.407999987,2168.0
835.408999987,2049.0
835.409999987,1945.0
835.410999987,1869.0
835.411999987,1759.0
835.412999987,1761.0
835.413999987,1857.0
835.414999987,1770.0
835.415999987,1695.0
835.416999987,1703.0
835.417999987,1788.0
835.418999987,1982.0
835.419999987,2184.0
835.420999987,2513.0
835.421999987,2790.0
835.422999987,2842.0
835.423999987,2793.0
835.424999987,2728.0
835.425999987,2661.0
835.426999987,2606.0
835.427999987,2520.0
835.428999987,2623.0
835.429999987,2666.0
835.430999987,2583.0
835.431999987,2469.0
835.432999987,2320.0
835.433999987,2185.0
835.434999987,2053.0
835.435999987,2048.0
835.436999987,2150.0
835.437999987,2132.0
835.438999987,2025.0
835.439999987,1908.0
835.440999987,1820.0
835.441999987,1757.0
835.442999987,1690.0
835.443999987,1738.0
835.444999987,1975.0
835.445999987,2021.0
835.446999987,1937.0
835.447999987,1804.0
835.448999987,1800.0
835.449999987,1761.0
835.450999987,1719.0
835.451999987,1796.0
835.452999987,2016.0
835.453999987,2044.0
835.454999987,1963.0
835.455999987,1833.0
835.456999987,1835.0
835.457999987,1802.0
835.458999987,1755.0
835.459999987,1876.0
835.460999987,2073.0
835.461999987,2089.0
835.462999987,1975.0
835.463999987,1862.0
835.464999987,1846.0
835.465999987,1798.0
835.466999987,1786.0
835.467999987,1948.0
835.468999987,2102.0
835.469999987,2073.0
835.470999987,1961.0
835.471999987,1853.0
835.472999987,1881.0
835.473999987,1796.0
835.474999987,1797.0
835.475999987,1975.0
835.476999987,2102.0
835.477999987,2048.0
835.478999987,1898.0
835.479999987,1840.0
835.480999987,1843.0
835.481999987,1786.0
835.482999987,1784.0
835.483999987,1980.0
835.484999987,2081.0
835.485999987,2004.0
835.486999987,1813.0
835.487999987,1784.0
835.488999987,1807.0
835.489999987,1764.0
835.490999987,1808.0
835.491999987,1994.0
835.492999987,2096.0
835.493999987,1997.0
835.494999987,1803.0
835.495999987,1804.0
835.496999987,1819.0
835.497999987,1785.0
835.498999987,1868.0
835.499999987,2037.0
835.500999987,2115.0
835.501999987,2017.0
835.502999987,1831.0
835.503999987,1833.0
835.504999987,1883.0
835.505999987,1897.0
835.506999987,1993.0
835.507999987,2151.0
835.508999987,2172.0
835.509999987,2124.0
835.510999987,1948.0
835.511999987,1954.0
835.512999987,1989.0
835.513999987,2032.0
835.514999987,2164.0
835.515999987,2314.0
835.516999987,2287.0
835.517999987,2170.0
835.518999987,2046.0
835.519999987,2070.0
835.520999987,2075.0
835.521999987,2129.0
835.522999987,2292.0
835.523999987,2403.0
835.524999987,2359.0
835.525999987,2206.0
835.526999987,2099.0
835.527999987,2160.0
835.528999987,2149.0
835.529999987,2214.0
835.530999987,2342.0
835.531999987,2437.0
835.532999987,2372.0
835.533999987,2205.0
835.534999987,2114.0
835.535999987,2166.0
835.536999987,2166.0
835.537999987,2259.0
835.538999987,2376.0
835.539999987,2413.0
835.540999987,2344.0
835.541999987,2179.0
835.542999987,2068.0
835.543999987,2086.0
835.544999987,2140.0
835.545999987,2287.0
835.546999987,2378.0
835.547999987,2333.0
835.548999987,2297.0
835.549999987,2137.0
835.550999987,2055.0
835.551999987,2048.0
835.552999987,2143.0
835.553999987,2301.0
835.554999987,2342.0
835.555999987,2287.0
835.556999987,2185.0
835.557999987,2098.0
835.558999987,2023.0
835.559999987,2006.0
835.560999987,2095.0
835.561999987,2284.0
835.562999987,2304.0
835.563999987,2251.0
835.564999987,2149.0
835.565999987,2054.0
835.566999987,2005.0
835.567999987,2010.0
835.568999987,2142.0
835.569999987,2295.0
835.570999987,2296.0
835.571999987,2214.0
835.572999987,2128.0
835.573999987,2024.0
835.574999987,1982.0
835.575999987,2004.0
835.576999987,2173.0
835.577999987,2296.0
835.578999987,2270.0
835.579999987,2194.0
835.580999987,2090.0
835.581999987,2019.0
835.582999987,1947.0
835.583999987,1999.0
835.584999987,2206.0
835.585999987,2300.0
835.586999987,2224.0
835.587999987,2142.0
835.588999987,2052.0
835.589999987,2000.0
835.590999987,1926.0
835.591999987,1974.0
835.592999987,2213.0
835.593999987,2300.0
835.594999987,2195.0
835.595999987,2061.0
835.596999987,2042.0
835.597999987,1994.0
835.598999987,1925.0
835.599999987,1989.0
835.600999987,2242.0
835.601999987,2315.0
835.602999987,2196.0
835.603999987,2052.0
835.604999987,2043.0
835.605999987,2004.0
835.606999987,1937.0
835.607999987,2047.0
835.608999987,2267.0
835.609999987,2313.0
835.610999987,2178.0
835.611999987,2045.0
835.612999987,2038.0
835.613999987,2027.0
835.614999987,1957.0
835.615999987,2124.0
835.616999987,2280.0
835.617999987,2294.0
835.618999987,2143.0
835.619999987,2053.0
835.620999987,2047.0
835.621999987,1978.0
835.622999987,1970.0
835.623999987,2146.0
835.624999987,2290.0
835.625999987,2245.0
835.626999987,2099.0
835.627999987,2026.0
835.628999987,2030.0
835.629999987,1975.0
835.630999987,1975.0
835.631999987,2180.0
835.632999987,2288.0
835.633999987,2224.0
835.634999987,2027.0
835.635999987,2009.0
835.636999987,2013.0
835.637999987,1989.0
835.638999987,2002.0
835.639999987,2195.0
835.640999987,2297.0
835.641999987,2209.0
835.642999987,2049.0
835.643999987,1995.0
835.644999987,2011.0
835.645999987,2000.0
835.646999987,2047.0
835.647999987,2217.0
835.648999987,2306.0
835.649999987,2230.0
835.650999987,2030.0
835.651999987,1992.0
835.652999987,2010.0
835.653999987,1992.0
835.654999987,2090.0
835.655999987,2238.0
835.656999987,2245.0
835.657999987,2184.0
835.658999987,2005.0
835.659999987,1977.0
835.660999987,1975.0
835.661999987,2022.0
835.662999987,2126.0
835.663999987,2252.0
835.664999987,2209.0
835.665999987,2133.0
835.666999987,1998.0
835.667999987,1975.0
835.668999987,1962.0
835.669999987,2008.0
835.670999987,2169.0
835.671999987,2248.0
835.672999987,2215.0
835.673999987,2068.0
835.674999987,1960.0
835.675999987,1995.0
835.676999987,1959.0
835.677999987,2037.0
835.678999987,2185.0
835.679999987,2261.0
835.680999987,2200.0
835.681999987,2052.0
835.682999987,1946.0
835.683999987,1974.0
835.684999987,1973.0
835.685999987,2085.0
835.686999987,2199.0
835.687999987,2223.0
835.688999987,2172.0
835.689999987,2031.0
835.690999987,1923.0
835.691999987,1922.0
835.692999987,1950.0
835.693999987,2095.0
835.694999987,2165.0
835.695999987,2147.0
835.696999987,2132.0
835.697999987,2006.0
835.698999987,1923.0
835.699999987,1898.0
835.700999987,1958.0
835.701999987,2146.0
835.702999987,2195.0
835.703999987,2143.0
835.704999987,2073.0
835.705999987,2012.0
835.706999987,1933.0
835.707999987,1896.0
835.708999987,1969.0
835.709999987,2202.0
835.710999987,2215.0
835.711999987,2159.0
835.712999987,2046.0
835.713999987,2021.0
835.714999987,1955.0
835.715999987,1925.0
835.716999987,2061.0
835.717999987,2234.0
835.718999987,2227.0
835.719999987,2164.0
835.720999987,2064.0
835.721999987,2031.0
835.722999987,1964.0
835.723999987,1952.0
835.724999987,2110.0
835.725999987,2251.0
835.726999987,2229.0
835.727999987,2126.0
835.728999987,2066.0
835.729999987,2013.0
835.730999987,1957.0
835.731999987,1956.0
835.732999987,2130.0
835.733999987,2267.0
835.734999987,2202.0
835.735999987,2127.0
835.736999987,2020.0
835.737999987,2020.0
835.738999987,1904.0
835.739999987,1961.0
835.740999987,2190.0
835.741999987,2242.0
835.742999987,2144.0
835.743999987,1969.0
835.744999987,1918.0
835.745999987,1799.0
835.746999987,1633.0
835.747999987,1552.0
835.748999987,1746.0
835.749999987,1838.0
835.750999987,1907.0
835.751999987,1951.0
835.752999987,2195.0
835.753999987,2397.0
835.754999987,2460.0
835.755999987,2663.0
835.756999987,2916.0
835.757999987,2989.0
835.758999987,2863.0
835.759999987,2731.0
835.760999987,2641.0
835.761999987,2571.0
835.762999987,2420.0
835.763999987,2528.0
835.764999987,2589.0
835.765999987,2543.0
835.766999987,2334.0
835.767999987,2140.0
835.768999987,2026.0
835.769999987,1914.0
835.770999987,1814.0
835.771999987,1924.0
835.772999987,2022.0
835.773999987,1952.0
835.774999987,1815.0
835.775999987,1714.0
835.776999987,1706.0
835.777999987,1688.0
835.778999987,1686.0
835.779999987,1884.0
835.780999987,2017.0
835.781999987,1951.0
835.782999987,1775.0
835.783999987,1733.0
835.784999987,1756.0
835.785999987,1735.0
835.786999987,1735.0
835.787999987,1940.0
835.788999987,2049.0
835.789999987,1973.0
835.790999987,1784.0
835.791999987,1757.0
835.792999987,1781.0
835.793999987,1757.0
835.794999987,1833.0
835.795999987,1992.0
835.796999987,2067.0
835.797999987,1996.0
835.798999987,1812.0
835.799999987,1764.0
835.800999987,1809.0
835.801999987,1814.0
835.802999987,1885.0
835.803999987,2039.0
835.804999987,2060.0
835.805999987,2006.0
835.806999987,1810.0
835.807999987,1764.0
835.808999987,1785.0
835.809999987,1855.0
835.810999987,1942.0
835.811999987,2051.0
835.812999987,2020.0
835.813999987,1953.0
835.814999987,1786.0
835.815999987,1752.0
835.816999987,1763.0
835.817999987,1826.0
835.818999987,1963.0
835.819999987,2044.0
835.820999987,1994.0
835.821999987,1860.0
835.822999987,1742.0
835.823999987,1722.0
835.824999987,1746.0
835.825999987,1848.0
835.826999987,1986.0
835.827999987,2054.0
835.828999987,1991.0
835.829999987,1866.0
835.830999987,1749.0
835.831999987,1761.0
835.832999987,1781.0
835.833999987,1906.0
835.834999987,2047.0
835.835999987,2088.0
835.836999987,2039.0
835.837999987,1948.0
835.838999987,1817.0
835.839999987,1841.0
835.840999987,1897.0
835.841999987,2075.0
835.842999987,2155.0
835.843999987,2167.0
835.844999987,2141.0
835.845999987,2044.0
835.846999987,1957.0
835.847999987,1935.0
835.848999987,2057.0
835.849999987,2252.0
835.850999987,2316.0
835.851999987,2274.0
835.852999987,2233.0
835.853999987,2166.0
835.854999987,2074.0
835.855999987,2042.0
835.856999987,2145.0
835.857999987,2385.0
835.858999987,2404.0
835.859999987,2348.0
835.860999987,2233.0
835.861999987,2215.0
835.862999987,2134.0
835.863999987,2108.0
835.864999987,2233.0
835.865999987,2413.0
835.866999987,2431.0
835.867999987,2353.0
835.868999987,2264.0
835.869999987,2209.0
835.870999987,2128.0
835.871999987,2119.0
835.872999987,2269.0
835.873999987,2429.0
835.874999987,2404.0
835.875999987,2316.0
835.876999987,2206.0
835.877999987,2166.0
835.878999987,2105.0
835.879999987,2093.0
835.880999987,2280.0
835.881999987,2429.0
835.882999987,2359.0
835.883999987,2261.0
835.884999987,2174.0
835.885999987,2138.0
835.886999987,2049.0
835.887999987,2089.0
835.888999987,2287.0
835.889999987,2406.0
835.890999987,2309.0
835.891999987,2159.0
835.892999987,2133.0
835.893999987,2105.0
835.894999987,2012.0
835.895999987,2034.0
835.896999987,2296.0
835.897999987,2372.0
835.898999987,2268.0
835.899999987,2099.0
835.900999987,2082.0
835.901999987,2085.0
835.902999987,1990.0
835.903999987,2068.0
835.904999987,2279.0
835.905999987,2359.0
835.906999987,2220.0
835.907999987,2068.0
835.908999987,2044.0
835.909999987,2043.0
835.910999987,1972.0
835.911999987,2100.0
835.912999987,2264.0
835.913999987,2329.0
835.914999987,2168.0
835.915999987,2053.0
835.916999987,2025.0
835.917999987,2025.0
835.918999987,1975.0
835.919999987,2130.0
835.920999987,2282.0
835.921999987,2272.0
835.922999987,2144.0
835.923999987,2028.0
835.924999987,2012.0
835.925999987,1979.0
835.926999987,1967.0
835.927999987,2153.0
835.928999987,2272.0
835.929999987,2230.0
835.930999987,2053.0
835.931999987,1995.0
835.932999987,2019.0
835.933999987,1959.0
835.934999987,1964.0
835.935999987,2171.0
835.936999987,2272.0
835.937999987,2203.0
835.938999987,2012.0
835.939999987,1961.0
835.940999987,1997.0
835.941999987,1978.0
835.942999987,2030.0
835.943999987,2198.0
835.944999987,2287.0
835.945999987,2211.0
835.946999987,2032.0
835.947999987,1970.0
835.948999987,1981.0
835.949999987,1979.0
835.950999987,2076.0
835.951999987,2214.0
835.952999987,2246.0
835.953999987,2202.0
835.954999987,1997.0
835.955999987,1952.0
835.956999987,1966.0
835.957999987,2006.0
835.958999987,2114.0
835.959999987,2224.0
835.960999987,2210.0
835.961999987,2159.0
835.962999987,1998.0
835.963999987,1957.0
835.964999987,1943.0
835.965999987,2020.0
835.966999987,2156.0
835.967999987,2238.0
835.968999987,2195.0
835.969999987,2089.0
835.970999987,1976.0
835.971999987,1964.0
835.972999987,1950.0
835.973999987,2020.0
835.974999987,2178.0
835.975999987,2243.0
835.976999987,2203.0
835.977999987,2071.0
835.978999987,1946.0
835.979999987,1962.0
835.980999987,1959.0
835.981999987,2069.0
835.982999987,2208.0
835.983999987,2226.0
835.984999987,2176.0
835.985999987,2061.0
835.986999987,1951.0
835.987999987,1958.0
835.988999987,1965.0
835.989999987,2119.0
835.990999987,2210.0
835.991999987,2195.0
835.992999987,2145.0
835.993999987,2060.0
835.994999987,1943.0
835.995999987,1915.0
835.996999987,1985.0
835.997999987,2157.0
835.998999987,2225.0
835.999999987,2168.0
836.000999987,2104.0
836.001999987,2031.0
836.002999987,1945.0
836.003999987,1912.0
836.004999987,1976.0
836.005999987,2192.0
836.006999987,2217.0
836.007999987,2158.0
836.008999987,2044.0
836.009999987,2017.0
836.010999987,1947.0
836.011999987,1917.0
836.012999987,2009.0
836.013999987,2201.0
836.014999987,2233.0
836.015999987,2148.0
836.016999987,2047.0
836.017999987,2027.0
836.018999987,1957.0
836.019999987,1920.0
836.020999987,2055.0
836.021999987,2233.0
836.022999987,2211.0
836.023999987,2128.0
836.024999987,2028.0
836.025999987,2007.0
836.026999987,1939.0
836.027999987,1932.0
836.028999987,2085.0
836.029999987,2252.0
836.030999987,2163.0
836.031999987,2087.0
836.032999987,1992.0
836.033999987,1981.0
836.034999987,1897.0
836.035999987,1950.0
836.036999987,2133.0
836.037999987,2265.0
836.038999987,2159.0
836.039999987,2059.0
836.040999987,2016.0
836.041999987,2007.0
836.042999987,1917.0
836.043999987,1959.0
836.044999987,2192.0
836.045999987,2288.0
836.046999987,2211.0
836.047999987,2048.0
836.048999987,2032.0
836.049999987,2065.0
836.050999987,1956.0
836.051999987,2027.0
836.052999987,2232.0
836.053999987,2333.0
836.054999987,2204.0
836.055999987,2063.0
836.056999987,2044.0
836.057999987,2067.0
836.058999987,1981.0
836.059999987,2087.0
836.060999987,2255.0
836.061999987,2328.0
836.062999987,2192.0
836.063999987,2052.0
836.064999987,2023.0
836.065999987,2050.0
836.066999987,1993.0
836.067999987,2136.0
836.068999987,2308.0
836.069999987,2272.0
836.070999987,2151.0
836.071999987,1999.0
836.072999987,2008.0
836.073999987,1990.0
836.074999987,1991.0
836.075999987,2154.0
836.076999987,2276.0
836.077999987,2214.0
836.078999987,2025.0
836.079999987,1882.0
836.080999987,1831.0
836.081999987,1723.0
836.082999987,1604.0
836.083999987,1741.0
836.084999987,1875.0
836.085999987,1982.0
836.086999987,2030.0
836.087999987,2187.0
836.088999987,2448.0
836.089999987,2563.0
836.090999987,2710.0
836.091999987,2951.0
836.092999987,3050.0
836.093999987,2963.0
836.094999987,2799.0
836.095999987,2638.0
836.096999987,2603.0
836.097999987,2548.0
836.098999987,2541.0
836.099999987,2590.0
836.100999987,2559.0
836.101999987,2406.0
836.102999987,2146.0
836.103999987,1966.0
836.104999987,1928.0
836.105999987,1889.0
836.106999987,1921.0
836.107999987,1983.0
836.108999987,1961.0
836.109999987,1923.0
836.110999987,1721.0
836.111999987,1681.0
836.112999987,1702.0
836.113999987,1788.0
836.114999987,1903.0
836.115999987,1985.0
836.116999987,1956.0
836.117999987,1874.0
836.118999987,1740.0
836.119999987,1692.0
836.120999987,1714.0
836.121999987,1788.0
836.122999987,1949.0
836.123999987,2037.0
836.124999987,1977.0
836.125999987,1866.0
836.126999987,1754.0
836.127999987,1733.0
836.128999987,1757.0
836.129999987,1880.0
836.130999987,2032.0
836.131999987,2062.0
836.132999987,2004.0
836.133999987,1893.0
836.134999987,1802.0
836.135999987,1758.0
836.136999987,1801.0
836.137999987,1980.0
836.138999987,2064.0
836.139999987,2062.0
836.140999987,2004.0
836.141999987,1896.0
836.142999987,1767.0
836.143999987,1740.0
836.144999987,1831.0
836.145999987,2003.0
836.146999987,2062.0
836.147999987,2020.0
836.148999987,1977.0
836.149999987,1851.0
836.150999987,1761.0
836.151999987,1703.0
836.152999987,1790.0
836.153999987,2007.0
836.154999987,2041.0
836.155999987,1973.0
836.156999987,1861.0
836.157999987,1837.0
836.158999987,1747.0
836.159999987,1708.0
836.160999987,1823.0
836.161999987,2026.0
836.162999987,2041.0
836.163999987,1970.0
836.164999987,1861.0
836.165999987,1860.0
836.166999987,1766.0
836.167999987,1723.0
836.168999987,1889.0
836.169999987,2086.0
836.170999987,2087.0
836.171999987,2021.0
836.172999987,1920.0
836.173999987,1903.0
836.174999987,1849.0
836.175999987,1830.0
836.176999987,2036.0
836.177999987,2216.0
836.178999987,2185.0
836.179999987,2101.0
836.180999987,2025.0
836.181999987,2020.0
836.182999987,1958.0
836.183999987,1997.0
836.184999987,2218.0
836.185999987,2381.0
836.186999987,2285.0
836.187999987,2182.0
836.188999987,2152.0
836.189999987,2132.0
836.190999987,2065.0
836.191999987,2096.0
836.192999987,2339.0
836.193999987,2458.0
836.194999987,2389.0
836.195999987,2199.0
836.196999987,2193.0
836.197999987,2229.0
836.198999987,2125.0
836.199999987,2165.0
836.200999987,2398.0
836.201999987,2492.0
836.202999987,2364.0
836.203999987,2195.0
836.204999987,2191.0
836.205999987,2214.0
836.206999987,2116.0
836.207999987,2196.0
836.208999987,2408.0
836.209999987,2484.0
836.210999987,2327.0
836.211999987,2212.0
836.212999987,2153.0
836.213999987,2172.0
836.214999987,2098.0
836.215999987,2233.0
836.216999987,2390.0
836.217999987,2427.0
836.218999987,2286.0
836.219999987,2145.0
836.220999987,2132.0
836.221999987,2100.0
836.222999987,2101.0
836.223999987,2240.0
836.224999987,2381.0
836.225999987,2346.0
836.226999987,2195.0
836.227999987,2078.0
836.228999987,2086.0
836.229999987,2056.0
836.230999987,2051.0
836.231999987,2228.0
836.232999987,2349.0
836.233999987,2284.0
836.234999987,2099.0
836.235999987,2035.0
836.236999987,2068.0
836.237999987,2034.0
836.238999987,2073.0
836.239999987,2256.0
836.240999987,2328.0
836.241999987,2267.0
836.242999987,2086.0
836.243999987,1995.0
836.244999987,2019.0
836.245999987,2019.0
836.246999987,2094.0
836.247999987,2211.0
836.248999987,2293.0
836.249999987,2233.0
836.250999987,2070.0
836.251999987,1971.0
836.252999987,2011.0
836.253999987,2023.0
836.254999987,2130.0
836.255999987,2221.0
836.256999987,2234.0
836.257999987,2206.0
836.258999987,2027.0
836.259999987,1973.0
836.260999987,1952.0
836.261999987,2016.0
836.262999987,2153.0
836.263999987,2216.0
836.264999987,2198.0
836.265999987,2122.0
836.266999987,1998.0
836.267999987,1963.0
836.268999987,1932.0
836.269999987,2009.0
836.270999987,2173.0
836.271999987,2217.0
836.272999987,2184.0
836.273999987,2063.0
836.274999987,1975.0
836.275999987,1974.0
836.276999987,1929.0
836.277999987,2052.0
836.278999987,2202.0
836.279999987,2203.0
836.280999987,2172.0
836.281999987,2067.0
836.282999987,1976.0
836.283999987,1970.0
836.284999987,1940.0
836.285999987,2117.0
836.286999987,2211.0
836.287999987,2206.0
836.288999987,2151.0
836.289999987,2059.0
836.290999987,1951.0
836.291999987,1935.0
836.292999987,1981.0
836.293999987,2144.0
836.294999987,2229.0
836.295999987,2192.0
836.296999987,2186.0
836.297999987,2075.0
836.298999987,1959.0
836.299999987,1915.0
836.300999987,1973.0
836.301999987,2194.0
836.302999987,2236.0
836.303999987,2180.0
836.304999987,2075.0
836.305999987,2025.0
836.306999987,1970.0
836.307999987,1936.0
836.308999987,2001.0
836.309999987,2237.0
836.310999987,2256.0
836.311999987,2175.0
836.312999987,2068.0
836.313999987,2063.0
836.314999987,1989.0
836.315999987,1942.0
836.316999987,2054.0
836.317999987,2255.0
836.318999987,2253.0
836.319999987,2159.0
836.320999987,2049.0
836.321999987,2042.0
836.322999987,1972.0
836.323999987,1938.0
836.324999987,2096.0
836.325999987,2251.0
836.326999987,2236.0
836.327999987,2123.0
836.328999987,2035.0
836.329999987,2016.0
836.330999987,1942.0
836.331999987,1939.0
836.332999987,2093.0
836.333999987,2270.0
836.334999987,2180.0
836.335999987,2075.0
836.336999987,2036.0
836.337999987,1982.0
836.338999987,1919.0
836.339999987,1942.0
836.340999987,2150.0
836.341999987,2226.0
836.342999987,2176.0
836.343999987,2007.0
836.344999987,1991.0
836.345999987,2012.0
836.346999987,1927.0
836.347999987,1942.0
836.348999987,2171.0
836.349999987,2267.0
836.350999987,2167.0
836.351999987,1976.0
836.352999987,1940.0
836.353999987,1991.0
836.354999987,1915.0
836.355999987,1972.0
836.356999987,2172.0
836.357999987,2255.0
836.358999987,2124.0
836.359999987,1952.0
836.360999987,1913.0
836.361999987,1947.0
836.362999987,1882.0
836.363999987,1983.0
836.364999987,2161.0
836.365999987,2205.0
836.366999987,2081.0
836.367999987,1894.0
836.368999987,1925.0
836.369999987,1920.0
836.370999987,1925.0
836.371999987,2050.0
836.372999987,2196.0
836.373999987,2157.0
836.374999987,2049.0
836.375999987,1894.0
836.376999987,1928.0
836.377999987,1917.0
836.378999987,1928.0
836.379999987,2092.0
836.380999987,2196.0
836.381999987,2166.0
836.382999987,2009.0
836.383999987,1886.0
836.384999987,1921.0
836.385999987,1922.0
836.386999987,1954.0
836.387999987,2088.0
836.388999987,2219.0
836.389999987,2149.0
836.390999987,1986.0
836.391999987,1859.0
836.392999987,1916.0
836.393999987,1921.0
836.394999987,2000.0
836.395999987,2152.0
836.396999987,2212.0
836.397999987,2147.0
836.398999987,1982.0
836.399999987,1875.0
836.400999987,1934.0
836.401999987,1938.0
836.402999987,2051.0
836.403999987,2155.0
836.404999987,2178.0
836.405999987,2123.0
836.406999987,1950.0
836.407999987,1855.0
836.408999987,1883.0
836.409999987,1939.0
836.410999987,2045.0
836.411999987,2074.0
836.412999987,1977.0
836.413999987,1827.0
836.414999987,1591.0
836.415999987,1395.0
836.416999987,1417.0
836.417999987,1640.0
836.418999987,2011.0
836.419999987,2284.0
836.420999987,2432.0
836.421999987,2481.0
836.422999987,2511.0
836.423999987,2494.0
836.424999987,2517.0
836.425999987,2639.0
836.426999987,2839.0
836.427999987,2818.0
836.428999987,2669.0
836.429999987,2493.0
836.430999987,2363.0
836.431999987,2266.0
836.432999987,2261.0
836.433999987,2403.0
836.434999987,2439.0
836.435999987,2368.0
836.436999987,2224.0
836.437999987,2056.0
836.438999987,1858.0
836.439999987,1746.0
836.440999987,1788.0
836.441999987,1926.0
836.442999987,2020.0
836.443999987,1980.0
836.444999987,1951.0
836.445999987,1843.0
836.446999987,1743.0
836.447999987,1689.0
836.448999987,1786.0
836.449999987,1929.0
836.450999987,2039.0
836.451999987,1982.0
836.452999987,1885.0
836.453999987,1848.0
836.454999987,1750.0
836.455999987,1700.0
836.456999987,1777.0
836.457999987,2024.0
836.458999987,2071.0
836.459999987,1985.0
836.460999987,1863.0
836.461999987,1839.0
836.462999987,1778.0
836.463999987,1708.0
836.464999987,1836.0
836.465999987,2053.0
836.466999987,2092.0
836.467999987,1977.0
836.468999987,1875.0
836.469999987,1872.0
836.470999987,1776.0
836.471999987,1740.0
836.472999987,1898.0
836.473999987,2074.0
836.474999987,2099.0
836.475999987,1952.0
836.476999987,1849.0
836.477999987,1841.0
836.478999987,1739.0
836.479999987,1723.0
836.480999987,1929.0
836.481999987,2101.0
836.482999987,2027.0
836.483999987,1899.0
836.484999987,1848.0
836.485999987,1807.0
836.486999987,1724.0
836.487999987,1724.0
836.488999987,1948.0
836.489999987,2065.0
836.490999987,1998.0
836.491999987,1827.0
836.492999987,1800.0
836.493999987,1788.0
836.494999987,1719.0
836.495999987,1744.0
836.496999987,1982.0
836.497999987,2111.0
836.498999987,1999.0
836.499999987,1824.0
836.500999987,1796.0
836.501999987,1820.0
836.502999987,1760.0
836.503999987,1843.0
836.504999987,2063.0
836.505999987,2182.0
836.506999987,2062.0
836.507999987,1912.0
836.508999987,1902.0
836.509999987,1941.0
836.510999987,1884.0
836.511999987,2003.0
836.512999987,2193.0
836.513999987,2282.0
836.514999987,2172.0
836.515999987,2036.0
836.516999987,2033.0
836.517999987,2057.0
836.518999987,2041.0
836.519999987,2180.0
836.520999987,2353.0
836.521999987,2335.0
836.522999987,2243.0
836.523999987,2105.0
836.524999987,2095.0
836.525999987,2079.0
836.526999987,2124.0
836.527999987,2282.0
836.528999987,2405.0
836.529999987,2364.0
836.530999987,2219.0
836.531999987,2125.0
836.532999987,2137.0
836.533999987,2109.0
836.534999987,2155.0
836.535999987,2298.0
836.536999987,2410.0
836.537999987,2330.0
836.538999987,2214.0
836.539999987,2114.0
836.540999987,2128.0
836.541999987,2101.0
836.542999987,2180.0
836.543999987,2320.0
836.544999987,2381.0
836.545999987,2343.0
836.546999987,2195.0
836.547999987,2093.0
836.548999987,2084.0
836.549999987,2106.0
836.550999987,2193.0
836.551999987,2332.0
836.552999987,2349.0
836.553999987,2297.0
836.554999987,2155.0
836.555999987,2068.0
836.556999987,2061.0
836.557999987,2119.0
836.558999987,2256.0
836.559999987,2328.0
836.560999987,2297.0
836.561999987,2258.0
836.562999987,2146.0
836.563999987,2057.0
836.564999987,2029.0
836.565999987,2103.0
836.566999987,2277.0
836.567999987,2311.0
836.568999987,2261.0
836.569999987,2159.0
836.570999987,2079.0
836.571999987,2035.0
836.572999987,1986.0
836.573999987,2072.0
836.574999987,2257.0
836.575999987,2279.0
836.576999987,2227.0
836.577999987,2113.0
836.578999987,2044.0
836.579999987,2001.0
836.580999987,1972.0
836.581999987,2117.0
836.582999987,2263.0
836.583999987,2266.0
836.584999987,2197.0
836.585999987,2121.0
836.586999987,2032.0
836.587999987,1984.0
836.588999987,1988.0
836.589999987,2171.0
836.590999987,2279.0
836.591999987,2255.0
836.592999987,2196.0
836.593999987,2110.0
836.594999987,2037.0
836.595999987,1958.0
836.596999987,2020.0
836.597999987,2217.0
836.598999987,2294.0
836.599999987,2222.0
836.600999987,2134.0
836.601999987,2068.0
836.602999987,2023.0
836.603999987,1951.0
836.604999987,2004.0
836.605999987,2227.0
836.606999987,2291.0
836.607999987,2205.0
836.608999987,2061.0
836.609999987,2066.0
836.610999987,2019.0
836.611999987,1947.0
836.612999987,2027.0
836.613999987,2269.0
836.614999987,2310.0
836.615999987,2213.0
836.616999987,2090.0
836.617999987,2058.0
836.618999987,2037.0
836.619999987,1979.0
836.620999987,2103.0
836.621999987,2287.0
836.622999987,2300.0
836.623999987,2180.0
836.624999987,2063.0
836.625999987,2023.0
836.626999987,2012.0
836.627999987,1977.0
836.628999987,2134.0
836.629999987,2304.0
836.630999987,2299.0
836.631999987,2172.0
836.632999987,2062.0
836.633999987,2052.0
836.634999987,1998.0
836.635999987,1989.0
836.636999987,2173.0
836.637999987,2293.0
836.638999987,2251.0
836.639999987,2099.0
836.640999987,2037.0
836.641999987,2023.0
836.642999987,1979.0
836.643999987,1989.0
836.644999987,2202.0
836.645999987,2294.0
836.646999987,2221.0
836.647999987,2035.0
836.648999987,1997.0
836.649999987,2003.0
836.650999987,1957.0
836.651999987,1995.0
836.652999987,2208.0
836.653999987,2317.0
836.654999987,2222.0
836.655999987,2021.0
836.656999987,1979.0
836.657999987,2020.0
836.658999987,1984.0
836.659999987,2062.0
836.660999987,2232.0
836.661999987,2310.0
836.662999987,2205.0
836.663999987,2009.0
836.664999987,1999.0
836.665999987,2003.0
836.666999987,2010.0
836.667999987,2122.0
836.668999987,2268.0
836.669999987,2263.0
836.670999987,2205.0
836.671999987,2006.0
836.672999987,1992.0
836.673999987,1989.0
836.674999987,2040.0
836.675999987,2154.0
836.676999987,2276.0
836.677999987,2249.0
836.678999987,2131.0
836.679999987,1986.0
836.680999987,1987.0
836.681999987,1999.0
836.682999987,2041.0
836.683999987,2198.0
836.684999987,2296.0
836.685999987,2237.0
836.686999987,2090.0
836.687999987,1974.0
836.688999987,1990.0
836.689999987,1988.0
836.690999987,2086.0
836.691999987,2225.0
836.692999987,2285.0
836.693999987,2235.0
836.694999987,2080.0
836.695999987,1939.0
836.696999987,1965.0
836.697999987,1985.0
836.698999987,2080.0
836.699999987,2166.0
836.700999987,2172.0
836.701999987,2055.0
836.702999987,1865.0
836.703999987,1677.0
836.704999987,1585.0
836.705999987,1540.0
836.706999987,1704.0
836.707999987,1923.0
836.708999987,2084.0
836.709999987,2256.0
836.710999987,2336.0
836.711999987,2402.0
836.712999987,2490.0
836.713999987,2616.0
836.714999987,2799.0
836.715999987,2867.0
836.716999987,2821.0
836.717999987,2668.0
836.718999987,2523.0
836.719999987,2388.0
836.720999987,2327.0
836.721999987,2383.0
836.722999987,2577.0
836.723999987,2522.0
836.724999987,2412.0
836.725999987,2218.0
836.726999987,2104.0
836.727999987,1930.0
836.728999987,1858.0
836.729999987,1956.0
836.730999987,2103.0
836.731999987,2082.0
836.732999987,2008.0
836.733999987,1912.0
836.734999987,1846.0
836.735999987,1775.0
836.736999987,1779.0
836.737999987,1961.0
836.738999987,2105.0
836.739999987,2065.0
836.740999987,1994.0
836.741999987,1912.0
836.742999987,1861.0
836.743999987,1772.0
836.744999987,1823.0
836.745999987,2022.0
836.746999987,2151.0
836.747999987,2068.0
836.748999987,1984.0
836.749999987,1911.0
836.750999987,1870.0
836.751999987,1774.0
836.752999987,1825.0
836.753999987,2058.0
836.754999987,2158.0
836.755999987,2058.0
836.756999987,1925.0
836.757999987,1898.0
836.758999987,1880.0
836.759999987,1807.0
836.760999987,1868.0
836.761999987,2106.0
836.762999987,2186.0
836.763999987,2052.0
836.764999987,1928.0
836.765999987,1897.0
836.766999987,1877.0
836.767999987,1801.0
836.768999987,1907.0
836.769999987,2113.0
836.770999987,2169.0
836.771999987,2020.0
836.772999987,1896.0
836.773999987,1876.0
836.774999987,1870.0
836.775999987,1792.0
836.776999987,1947.0
836.777999987,2110.0
836.778999987,2133.0
836.779999987,1989.0
836.780999987,1871.0
836.781999987,1835.0
836.782999987,1821.0
836.783999987,1798.0
836.784999987,1980.0
836.785999987,2128.0
836.786999987,2094.0
836.787999987,1941.0
836.788999987,1875.0
836.789999987,1850.0
836.790999987,1831.0
836.791999987,1832.0
836.792999987,2052.0
836.793999987,2172.0
836.794999987,2111.0
836.795999987,1937.0
836.796999987,1921.0
836.797999987,1948.0
836.798999987,1930.0
836.799999987,1954.0
836.800999987,2175.0
836.801999987,2295.0
836.802999987,2229.0
836.803999987,2063.0
836.804999987,2034.0
836.805999987,2058.0
836.806999987,2047.0
836.807999987,2130.0
836.808999987,2298.0
836.809999987,2396.0
836.810999987,2322.0
836.811999987,2146.0
836.812999987,2121.0
836.813999987,2147.0
836.814999987,2134.0
836.815999987,2245.0
836.816999987,2383.0
836.817999987,2399.0
836.818999987,2354.0
836.819999987,2163.0
836.820999987,2130.0
836.821999987,2129.0
836.822999987,2173.0
836.823999987,2294.0
836.824999987,2398.0
836.825999987,2363.0
836.826999987,2280.0
836.827999987,2134.0
836.828999987,2118.0
836.829999987,2095.0
836.830999987,2168.0
836.831999987,2322.0
836.832999987,2403.0
836.833999987,2351.0
836.834999987,2222.0
836.835999987,2103.0
836.836999987,2101.0
836.837999987,2091.0
836.838999987,2164.0
836.839999987,2314.0
836.840999987,2347.0
836.841999987,2317.0
836.842999987,2194.0
836.843999987,2047.0
836.844999987,2072.0
836.845999987,2066.0
836.846999987,2191.0
836.847999987,2304.0
836.848999987,2333.0
836.849999987,2265.0
836.850999987,2146.0
836.851999987,2024.0
836.852999987,2034.0
836.853999987,2067.0
836.854999987,2225.0
836.855999987,2285.0
836.856999987,2260.0
836.857999987,2221.0
836.858999987,2122.0
836.859999987,1991.0
836.860999987,1973.0
836.861999987,2079.0
836.862999987,2241.0
836.863999987,2258.0
836.864999987,2217.0
836.865999987,2144.0
836.866999987,2073.0
836.867999987,1980.0
836.868999987,1941.0
836.869999987,2026.0
836.870999987,2242.0
836.871999987,2258.0
836.872999987,2203.0
836.873999987,2097.0
836.874999987,2054.0
836.875999987,1970.0
836.876999987,1947.0
836.877999987,2064.0
836.878999987,2233.0
836.879999987,2249.0
836.880999987,2180.0
836.881999987,2078.0
836.882999987,2025.0
836.883999987,1964.0
836.884999987,1960.0
836.885999987,2113.0
836.886999987,2283.0
836.887999987,2241.0
836.888999987,2157.0
836.889999987,2061.0
836.890999987,2022.0
836.891999987,1948.0
836.892999987,1997.0
836.893999987,2164.0
836.894999987,2294.0
836.895999987,2212.0
836.896999987,2146.0
836.897999987,2058.0
836.898999987,2008.0
836.899999987,1925.0
836.900999987,1971.0
836.901999987,2187.0
836.902999987,2291.0
836.903999987,2208.0
836.904999987,2056.0
836.905999987,2018.0
836.906999987,2005.0
836.907999987,1932.0
836.908999987,1963.0
836.909999987,2223.0
836.910999987,2291.0
836.911999987,2182.0
836.912999987,2040.0
836.913999987,2009.0
836.914999987,2016.0
836.915999987,1942.0
836.916999987,2033.0
836.917999987,2217.0
836.918999987,2279.0
836.919999987,2168.0
836.920999987,2032.0
836.921999987,2011.0
836.922999987,2039.0
836.923999987,1936.0
836.924999987,2069.0
836.925999987,2244.0
836.926999987,2269.0
836.927999987,2135.0
836.928999987,2002.0
836.929999987,1988.0
836.930999987,1985.0
836.931999987,1944.0
836.932999987,2102.0
836.933999987,2220.0
836.934999987,2193.0
836.935999987,2056.0
836.936999987,1958.0
836.937999987,1959.0
836.938999987,1943.0
836.939999987,1934.0
836.940999987,2112.0
836.941999987,2249.0
836.942999987,2191.0
836.943999987,2007.0
836.944999987,1968.0
836.945999987,1971.0
836.946999987,1946.0
836.947999987,1967.0
836.948999987,2179.0
836.949999987,2257.0
836.950999987,2188.0
836.951999987,2009.0
836.952999987,1946.0
836.953999987,2012.0
836.954999987,2007.0
836.955999987,2055.0
836.956999987,2188.0
836.957999987,2300.0
836.958999987,2230.0
836.959999987,2048.0
836.960999987,1971.0
836.961999987,2017.0
836.962999987,2018.0
836.963999987,2101.0
836.964999987,2253.0
836.965999987,2278.0
836.966999987,2227.0
836.967999987,2025.0
836.968999987,1974.0
836.969999987,1979.0
836.970999987,2056.0
836.971999987,2146.0
836.972999987,2265.0
836.973999987,2227.0
836.974999987,2155.0
836.975999987,1987.0
836.976999987,1965.0
836.977999987,1968.0
836.978999987,2029.0
836.979999987,2168.0
836.980999987,2251.0
836.981999987,2190.0
836.982999987,2039.0
836.983999987,1895.0
836.984999987,1827.0
836.985999987,1757.0
836.986999987,1776.0
836.987999987,1797.0
836.988999987,1790.0
836.989999987,1779.0
836.990999987,1808.0
836.991999987,1854.0
836.992999987,2069.0
836.993999987,2305.0
836.994999987,2592.0
836.995999987,2809.0
836.996999987,2910.0
836.997999987,2839.0
836.998999987,2732.0
836.999999987,2609.0
837.000999987,2570.0
837.001999987,2517.0
837.002999987,2645.0
837.003999987,2673.0
837.004999987,2600.0
837.005999987,2497.0
837.006999987,2329.0
837.007999987,2131.0
837.008999987,2008.0
837.009999987,2031.0
837.010999987,2145.0
837.011999987,2118.0
837.012999987,2034.0
837.013999987,1911.0
837.014999987,1823.0
837.015999987,1709.0
837.016999987,1679.0
837.017999987,1774.0
837.018999987,1999.0
837.019999987,2020.0
837.020999987,1967.0
837.021999987,1845.0
837.022999987,1824.0
837.023999987,1726.0
837.024999987,1705.0
837.025999987,1834.0
837.026999987,2064.0
837.027999987,2053.0
837.028999987,1984.0
837.029999987,1896.0
837.030999987,1836.0
837.031999987,1754.0
837.032999987,1770.0
837.033999987,1925.0
837.034999987,2111.0
837.035999987,2076.0
837.036999987,1983.0
837.037999987,1892.0
837.038999987,1856.0
837.039999987,1777.0
837.040999987,1801.0
837.041999987,1989.0
837.042999987,2143.0
837.043999987,2069.0
837.044999987,1985.0
837.045999987,1897.0
837.046999987,1872.0
837.047999987,1773.0
837.048999987,1809.0
837.049999987,2023.0
837.050999987,2134.0
837.051999987,2052.0
837.052999987,1920.0
837.053999987,1863.0
837.054999987,1858.0
837.055999987,1768.0
837.056999987,1795.0
837.057999987,2051.0
837.058999987,2128.0
837.059999987,2022.0
837.060999987,1865.0
837.061999987,1840.0
837.062999987,1825.0
837.063999987,1738.0
837.064999987,1831.0
837.065999987,2025.0
837.066999987,2115.0
837.067999987,2002.0
837.068999987,1861.0
837.069999987,1852.0
837.070999987,1865.0
837.071999987,1772.0
837.072999987,1898.0
837.073999987,2089.0
837.074999987,2171.0
837.075999987,2017.0
837.076999987,1899.0
837.077999987,1876.0
837.078999987,1896.0
837.079999987,1862.0
837.080999987,2060.0
837.081999987,2213.0
837.082999987,2217.0
837.083999987,2099.0
837.084999987,2014.0
837.085999987,2018.0
837.086999987,2019.0
837.087999987,2020.0
837.088999987,2215.0
837.089999987,2364.0
837.090999987,2324.0
837.091999987,2165.0
837.092999987,2122.0
837.093999987,2131.0
837.094999987,2108.0
837.095999987,2126.0
837.096999987,2331.0
837.097999987,2448.0
837.098999987,2388.0
837.099999987,2204.0
837.100999987,2156.0
837.101999987,2187.0
837.102999987,2159.0
837.103999987,2222.0
837.104999987,2381.0
837.105999987,2476.0
837.106999987,2404.0
837.107999987,2223.0
837.108999987,2177.0
837.109999987,2195.0
837.110999987,2173.0
837.111999987,2282.0
837.112999987,2400.0
837.113999987,2447.0
837.114999987,2386.0
837.115999987,2195.0
837.116999987,2142.0
837.117999987,2118.0
837.118999987,2182.0
837.119999987,2285.0
837.120999987,2381.0
837.121999987,2366.0
837.122999987,2313.0
837.123999987,2146.0
837.124999987,2110.0
837.125999987,2088.0
837.126999987,2147.0
837.127999987,2290.0
837.128999987,2374.0
837.129999987,2323.0
837.130999987,2220.0
837.131999987,2104.0
837.132999987,2075.0
837.133999987,2055.0
837.134999987,2134.0
837.135999987,2303.0
837.136999987,2345.0
837.137999987,2319.0
837.138999987,2195.0
837.139999987,2059.0
837.140999987,2065.0
837.141999987,2033.0
837.142999987,2146.0
837.143999987,2288.0
837.144999987,2310.0
837.145999987,2256.0
837.146999987,2149.0
837.147999987,2028.0
837.148999987,2034.0
837.149999987,2046.0
837.150999987,2188.0
837.151999987,2288.0
837.152999987,2263.0
837.153999987,2222.0
837.154999987,2151.0
837.155999987,2004.0
837.156999987,1970.0
837.157999987,2037.0
837.158999987,2211.0
837.159999987,2259.0
837.160999987,2225.0
837.161999987,2155.0
837.162999987,2091.0
837.163999987,1998.0
837.164999987,1945.0
837.165999987,2010.0
837.166999987,2245.0
837.167999987,2263.0
837.168999987,2207.0
837.169999987,2078.0
837.170999987,2058.0
837.171999987,1985.0
837.172999987,1940.0
837.173999987,2040.0
837.174999987,2258.0
837.175999987,2263.0
837.176999987,2191.0
837.177999987,2115.0
837.178999987,2048.0
837.179999987,1988.0
837.180999987,1970.0
837.181999987,2108.0
837.182999987,2310.0
837.183999987,2267.0
837.184999987,2178.0
837.185999987,2075.0
837.186999987,2048.0
837.187999987,1983.0
837.188999987,1996.0
837.189999987,2138.0
837.190999987,2302.0
837.191999987,2259.0
837.192999987,2159.0
837.193999987,2068.0
837.194999987,2050.0
837.195999987,1942.0
837.196999987,1997.0
837.197999987,2178.0
837.198999987,2301.0
837.199999987,2229.0
837.200999987,2096.0
837.201999987,2039.0
837.202999987,2044.0
837.203999987,1965.0
837.204999987,1983.0
837.205999987,2235.0
837.206999987,2306.0
837.207999987,2223.0
837.208999987,2034.0
837.209999987,2018.0
837.210999987,2009.0
837.211999987,1946.0
837.212999987,1997.0
837.213999987,2200.0
837.214999987,2275.0
837.215999987,2182.0
837.216999987,2021.0
837.217999987,1999.0
837.218999987,2029.0
837.219999987,1929.0
837.220999987,2022.0
837.221999987,2205.0
837.222999987,2259.0
837.223999987,2123.0
837.224999987,1977.0
837.225999987,1994.0
837.226999987,2002.0
837.227999987,1935.0
837.228999987,2101.0
837.229999987,2235.0
837.230999987,2240.0
837.231999987,2123.0
837.232999987,1974.0
837.233999987,1983.0
837.234999987,1972.0
837.235999987,1974.0
837.236999987,2140.0
837.237999987,2272.0
837.238999987,2234.0
837.239999987,2085.0
837.240999987,1970.0
837.241999987,2002.0
837.242999987,1997.0
837.243999987,1992.0
837.244999987,2171.0
837.245999987,2292.0
837.246999987,2218.0
837.247999987,2039.0
837.248999987,1939.0
837.249999987,2007.0
837.250999987,1996.0
837.251999987,2035.0
837.252999987,2205.0
837.253999987,2304.0
837.254999987,2229.0
837.255999987,2035.0
837.256999987,1959.0
837.257999987,2003.0
837.258999987,2007.0
837.259999987,2091.0
837.260999987,2218.0
837.261999987,2272.0
837.262999987,2228.0
837.263999987,2039.0
837.264999987,1910.0
837.265999987,1956.0
837.266999987,2010.0
837.267999987,2103.0
837.268999987,2203.0
837.269999987,2179.0
837.270999987,2130.0
837.271999987,1895.0
837.272999987,1760.0
837.273999987,1711.0
837.274999987,1705.0
837.275999987,1732.0
837.276999987,1780.0
837.277999987,1827.0
837.278999987,1911.0
837.279999987,1980.0
837.280999987,2136.0
837.281999987,2352.0
837.282999987,2588.0
837.283999987,2849.0
837.284999987,2916.0
837.285999987,2911.0
837.286999987,2779.0
837.287999987,2641.0
837.288999987,2521.0
837.289999987,2488.0
837.290999987,2561.0
837.291999987,2635.0
837.292999987,2606.0
837.293999987,2475.0
837.294999987,2302.0
837.295999987,2093.0
837.296999987,1966.0
837.297999987,1920.0
837.298999987,2015.0
837.299999987,2079.0
837.300999987,2029.0
837.301999987,1945.0
837.302999987,1871.0
837.303999987,1721.0
837.304999987,1667.0
837.305999987,1753.0
837.306999987,1965.0
837.307999987,2027.0
837.308999987,2002.0
837.309999987,1931.0
837.310999987,1850.0
837.311999987,1741.0
837.312999987,1706.0
837.313999987,1789.0
837.314999987,2022.0
837.315999987,2064.0
837.316999987,1999.0
837.317999987,1885.0
837.318999987,1868.0
837.319999987,1773.0
837.320999987,1731.0
837.321999987,1828.0
837.322999987,2074.0
837.323999987,2100.0
837.324999987,2014.0
837.325999987,1924.0
837.326999987,1870.0
837.327999987,1792.0
837.328999987,1747.0
837.329999987,1895.0
837.330999987,2109.0
837.331999987,2105.0
837.332999987,2000.0
837.333999987,1888.0
837.334999987,1869.0
837.335999987,1804.0
837.336999987,1776.0
837.337999987,1952.0
837.338999987,2118.0
837.339999987,2099.0
837.340999987,1984.0
837.341999987,1880.0
837.342999987,1856.0
837.343999987,1760.0
837.344999987,1766.0
837.345999987,1975.0
837.346999987,2106.0
837.347999987,2039.0
837.348999987,1917.0
837.349999987,1840.0
837.350999987,1835.0
837.351999987,1756.0
837.352999987,1763.0
837.353999987,2011.0
837.354999987,2118.0
837.355999987,2041.0
837.356999987,1870.0
837.357999987,1850.0
837.358999987,1834.0
837.359999987,1772.0
837.360999987,1820.0
837.361999987,2052.0
837.362999987,2156.0
837.363999987,2056.0
837.364999987,1897.0
837.365999987,1896.0
837.366999987,1931.0
837.367999987,1852.0
837.368999987,1978.0
837.369999987,2172.0
837.370999987,2266.0
837.371999987,2143.0
837.372999987,2009.0
837.373999987,2012.0
837.374999987,2056.0
837.375999987,2021.0
837.376999987,2144.0
837.377999987,2328.0
837.378999987,2370.0
837.379999987,2257.0
837.380999987,2130.0
837.381999987,2104.0
837.382999987,2105.0
837.383999987,2126.0
837.384999987,2275.0
837.385999987,2432.0
837.386999987,2390.0
837.387999987,2275.0
837.388999987,2164.0
837.389999987,2177.0
837.390999987,2152.0
837.391999987,2151.0
837.392999987,2342.0
837.393999987,2465.0
837.394999987,2401.0
837.395999987,2219.0
837.396999987,2159.0
837.397999987,2160.0
837.398999987,2142.0
837.399999987,2193.0
837.400999987,2348.0
837.401999987,2443.0
837.402999987,2387.0
837.403999987,2218.0
837.404999987,2119.0
837.405999987,2130.0
837.406999987,2133.0
837.407999987,2216.0
837.408999987,2344.0
837.409999987,2405.0
837.410999987,2334.0
837.411999987,2183.0
837.412999987,2088.0
837.413999987,2101.0
837.414999987,2122.0
837.415999987,2220.0
837.416999987,2308.0
837.417999987,2327.0
837.418999987,2290.0
837.419999987,2118.0
837.420999987,2054.0
837.421999987,2027.0
837.422999987,2107.0
837.423999987,2233.0
837.424999987,2306.0
837.425999987,2272.0
837.426999987,2194.0
837.427999987,2072.0
837.428999987,2039.0
837.429999987,2000.0
837.430999987,2065.0
837.431999987,2241.0
837.432999987,2280.0
837.433999987,2232.0
837.434999987,2140.0
837.435999987,2046.0
837.436999987,2010.0
837.437999987,1971.0
837.438999987,2092.0
837.439999987,2235.0
837.440999987,2252.0
837.441999987,2206.0
837.442999987,2114.0
837.443999987,1998.0
837.444999987,1995.0
837.445999987,1971.0
837.446999987,2145.0
837.447999987,2267.0
837.448999987,2257.0
837.449999987,2196.0
837.450999987,2090.0
837.451999987,1993.0
837.452999987,1961.0
837.453999987,1998.0
837.454999987,2192.0
837.455999987,2248.0
837.456999987,2212.0
837.457999987,2171.0
837.458999987,2109.0
837.459999987,2007.0
837.460999987,1937.0
837.461999987,2005.0
837.462999987,2212.0
837.463999987,2261.0
837.464999987,2207.0
837.465999987,2100.0
837.466999987,2061.0
837.467999987,1986.0
837.468999987,1937.0
837.469999987,2004.0
837.470999987,2259.0
837.471999987,2278.0
837.472999987,2198.0
837.473999987,2065.0
837.474999987,2053.0
837.475999987,1998.0
837.476999987,1955.0
837.477999987,2068.0
837.478999987,2261.0
837.479999987,2274.0
837.480999987,2181.0
837.481999987,2070.0
837.482999987,2065.0
837.483999987,2006.0
837.484999987,1965.0
837.485999987,2124.0
837.486999987,2289.0
837.487999987,2283.0
837.488999987,2177.0
837.489999987,2071.0
837.490999987,2060.0
837.491999987,1979.0
837.492999987,2003.0
837.493999987,2172.0
837.494999987,2308.0
837.495999987,2255.0
837.496999987,2156.0
837.497999987,2048.0
837.498999987,2043.0
837.499999987,1976.0
837.500999987,2002.0
837.501999987,2204.0
837.502999987,2317.0
837.503999987,2239.0
837.504999987,2072.0
837.505999987,2029.0
837.506999987,2024.0
837.507999987,1967.0
837.508999987,1999.0
837.509999987,2224.0
837.510999987,2324.0
837.511999987,2222.0
837.512999987,2036.0
837.513999987,2018.0
837.514999987,2043.0
837.515999987,1972.0
837.516999987,2035.0
837.517999987,2232.0
837.518999987,2322.0
837.519999987,2193.0
837.520999987,2019.0
837.521999987,2006.0
837.522999987,2028.0
837.523999987,1983.0
837.524999987,2079.0
837.525999987,2245.0
837.526999987,2279.0
837.527999987,2171.0
837.528999987,1987.0
837.529999987,1980.0
837.530999987,1979.0
837.531999987,1996.0
837.532999987,2127.0
837.533999987,2283.0
837.534999987,2224.0
837.535999987,2119.0
837.536999987,1948.0
837.537999987,1964.0
837.538999987,1944.0
837.539999987,1960.0
837.540999987,2127.0
837.541999987,2248.0
837.542999987,2200.0
837.543999987,2055.0
837.544999987,1923.0
837.545999987,1967.0
837.546999987,1951.0
837.547999987,2011.0
837.548999987,2165.0
837.549999987,2258.0
837.550999987,2215.0
837.551999987,2044.0
837.552999987,1927.0
837.553999987,1968.0
837.554999987,1993.0
837.555999987,2080.0
837.556999987,2216.0
837.557999987,2293.0
837.558999987,2228.0
837.559999987,2059.0
837.560999987,1952.0
837.561999987,2008.0
837.562999987,2039.0
837.563999987,2143.0
837.564999987,2250.0
837.565999987,2259.0
837.566999987,2199.0
837.567999987,2037.0
837.568999987,1936.0
837.569999987,1959.0
837.570999987,2059.0
837.571999987,2194.0
837.572999987,2261.0
837.573999987,2233.0
837.574999987,2157.0
837.575999987,2032.0
837.576999987,1949.0
837.577999987,1955.0
837.578999987,2046.0
837.579999987,2218.0
837.580999987,2235.0
837.581999987,2183.0
837.582999987,2064.0
837.583999987,1976.0
837.584999987,1902.0
837.585999987,1902.0
837.586999987,2036.0
837.587999987,2175.0
837.588999987,2188.0
837.589999987,2075.0
837.590999987,1921.0
837.591999987,1723.0
837.592999987,1576.0
837.593999987,1493.0
837.594999987,1616.0
837.595999987,1843.0
837.596999987,2028.0
837.597999987,2159.0
837.598999987,2294.0
837.599999987,2371.0
837.600999987,2453.0
837.601999987,2579.0
837.602999987,2805.0
837.603999987,2909.0
837.604999987,2876.0
837.605999987,2793.0
837.606999987,2644.0
837.607999987,2489.0
837.608999987,2367.0
837.609999987,2371.0
837.610999987,2519.0
837.611999987,2530.0
837.612999987,2386.0
837.613999987,2220.0
837.614999987,2087.0
837.615999987,1928.0
837.616999987,1786.0
837.617999987,1820.0
837.618999987,2006.0
837.619999987,2039.0
837.620999987,1952.0
837.621999987,1816.0
837.622999987,1813.0
837.623999987,1780.0
837.624999987,1734.0
837.625999987,1840.0
837.626999987,2058.0
837.627999987,2111.0
837.628999987,2000.0
837.629999987,1881.0
837.630999987,1855.0
837.631999987,1814.0
837.632999987,1771.0
837.633999987,1920.0
837.634999987,2107.0
837.635999987,2112.0
837.636999987,2001.0
837.637999987,1878.0
837.638999987,1854.0
837.639999987,1810.0
837.640999987,1783.0
837.641999987,1950.0
837.642999987,2109.0
837.643999987,2069.0
837.644999987,1937.0
837.645999987,1849.0
837.646999987,1806.0
837.647999987,1754.0
837.648999987,1759.0
837.649999987,1955.0
837.650999987,2081.0
837.651999987,2022.0
837.652999987,1851.0
837.653999987,1787.0
837.654999987,1792.0
837.655999987,1736.0
837.656999987,1761.0
837.657999987,1963.0
837.658999987,2046.0
837.659999987,1968.0
837.660999987,1777.0
837.661999987,1741.0
837.662999987,1765.0
837.663999987,1708.0
837.664999987,1762.0
837.665999987,1944.0
837.666999987,2029.0
837.667999987,1915.0
837.668999987,1744.0
837.669999987,1683.0
837.670999987,1714.0
837.671999987,1679.0
837.672999987,1785.0
837.673999987,1950.0
837.674999987,1996.0
837.675999987,1891.0
837.676999987,1784.0
837.677999987,1721.0
837.678999987,1744.0
837.679999987,1751.0
837.680999987,1883.0
837.681999987,2029.0
837.682999987,2028.0
837.683999987,1999.0
837.684999987,1799.0
837.685999987,1806.0
837.686999987,1805.0
837.687999987,1858.0
837.688999987,2020.0
837.689999987,2147.0
837.690999987,2142.0
837.691999987,2036.0
837.692999987,1932.0
837.693999987,1960.0
837.694999987,1952.0
837.695999987,2023.0
837.696999987,2190.0
837.697999987,2282.0
837.698999987,2255.0
837.699999987,2131.0
837.700999987,2038.0
837.701999987,2060.0
837.702999987,2065.0
837.703999987,2164.0
837.704999987,2314.0
837.705999987,2372.0
837.706999987,2317.0
837.707999987,2188.0
837.708999987,2088.0
837.709999987,2108.0
837.710999987,2130.0
837.711999987,2259.0
837.712999987,2366.0
837.713999987,2377.0
837.714999987,2337.0
837.715999987,2180.0
837.716999987,2091.0
837.717999987,2075.0
837.718999987,2158.0
837.719999987,2297.0
837.720999987,2353.0
837.721999987,2319.0
837.722999987,2278.0
837.723999987,2144.0
837.724999987,2084.0
837.725999987,2052.0
837.726999987,2114.0
837.727999987,2313.0
837.728999987,2339.0
837.729999987,2289.0
837.730999987,2194.0
837.731999987,2112.0
837.732999987,2046.0
837.733999987,2029.0
837.734999987,2135.0
837.735999987,2313.0
837.736999987,2330.0
837.737999987,2272.0
837.738999987,2193.0
837.739999987,2093.0
837.740999987,2041.0
837.741999987,2024.0
837.742999987,2168.0
837.743999987,2317.0
837.744999987,2305.0
837.745999987,2238.0
837.746999987,2134.0
837.747999987,2064.0
837.748999987,2015.0
837.749999987,2033.0
837.750999987,2209.0
837.751999987,2325.0
837.752999987,2297.0
837.753999987,2221.0
837.754999987,2132.0
837.755999987,2067.0
837.756999987,1983.0
837.757999987,2052.0
837.758999987,2234.0
837.759999987,2333.0
837.760999987,2265.0
837.761999987,2168.0
837.762999987,2094.0
837.763999987,2051.0
837.764999987,1987.0
837.765999987,2039.0
837.766999987,2261.0
837.767999987,2331.0
837.768999987,2249.0
837.769999987,2100.0
837.770999987,2067.0
837.771999987,2051.0
837.772999987,1985.0
837.773999987,2073.0
837.774999987,2270.0
837.775999987,2335.0
837.776999987,2243.0
837.777999987,2101.0
837.778999987,2072.0
837.779999987,2056.0
837.780999987,1999.0
837.781999987,2112.0
837.782999987,2297.0
837.783999987,2334.0
837.784999987,2225.0
837.785999987,2089.0
837.786999987,2048.0
837.787999987,2042.0
837.788999987,1984.0
837.789999987,2150.0
837.790999987,2309.0
837.791999987,2304.0
837.792999987,2188.0
837.793999987,2073.0
837.794999987,2046.0
837.795999987,2012.0
837.796999987,2035.0
837.797999987,2210.0
837.798999987,2328.0
837.799999987,2264.0
837.800999987,2150.0
837.801999987,2058.0
837.802999987,2041.0
837.803999987,2012.0
837.804999987,2033.0
837.805999987,2231.0
837.806999987,2332.0
837.807999987,2273.0
837.808999987,2097.0
837.809999987,2034.0
837.810999987,2077.0
837.811999987,2043.0
837.812999987,2081.0
837.813999987,2262.0
837.814999987,2338.0
837.815999987,2268.0
837.816999987,2083.0
837.817999987,2029.0
837.818999987,2064.0
837.819999987,2043.0
837.820999987,2127.0
837.821999987,2281.0
837.822999987,2336.0
837.823999987,2248.0
837.824999987,2063.0
837.825999987,1999.0
837.826999987,2028.0
837.827999987,2047.0
837.828999987,2163.0
837.829999987,2292.0
837.830999987,2285.0
837.831999987,2232.0
837.832999987,2049.0
837.833999987,2021.0
837.834999987,2010.0
837.835999987,2085.0
837.836999987,2184.0
837.837999987,2283.0
837.838999987,2251.0
837.839999987,2153.0
837.840999987,1991.0
837.841999987,1978.0
837.842999987,1979.0
837.843999987,2053.0
837.844999987,2195.0
837.845999987,2263.0
837.846999987,2228.0
837.847999987,2118.0
837.848999987,1968.0
837.849999987,1977.0
837.850999987,1987.0
837.851999987,2093.0
837.852999987,2210.0
837.853999987,2258.0
837.854999987,2203.0
837.855999987,2078.0
837.856999987,1948.0
837.857999987,1959.0
837.858999987,1985.0
837.859999987,2127.0
837.860999987,2222.0
837.861999987,2262.0
837.862999987,2211.0
837.863999987,2086.0
837.864999987,1966.0
837.865999987,1961.0
837.866999987,2028.0
837.867999987,2190.0
837.868999987,2252.0
837.869999987,2238.0
837.870999987,2203.0
837.871999987,2081.0
837.872999987,1986.0
837.873999987,1965.0
837.874999987,2052.0
837.875999987,2261.0
837.876999987,2278.0
837.877999987,2246.0
837.878999987,2155.0
837.879999987,2092.0
837.880999987,1994.0
837.881999987,1966.0
837.882999987,2085.0
837.883999987,2300.0
837.884999987,2323.0
837.885999987,2265.0
837.886999987,2144.0
837.887999987,2088.0
837.888999987,2018.0
837.889999987,2007.0
837.890999987,2151.0
837.891999987,2339.0
837.892999987,2312.0
837.893999987,2252.0
837.894999987,2146.0
837.895999987,2080.0
837.896999987,2009.0
837.897999987,2014.0
837.898999987,2204.0
837.899999987,2349.0
837.900999987,2309.0
837.901999987,2219.0
837.902999987,2111.0
837.903999987,2051.0
837.904999987,1954.0
837.905999987,1989.0
837.906999987,2152.0
837.907999987,2257.0
837.908999987,2130.0
837.909999987,1973.0
837.910999987,1819.0
837.911999987,1705.0
837.912999987,1534.0
837.913999987,1551.0
837.914999987,1854.0
837.915999987,2080.0
837.916999987,2167.0
837.917999987,2239.0
837.918999987,2402.0
837.919999987,2529.0
837.920999987,2542.0
837.921999987,2632.0
837.922999987,2840.0
837.923999987,2940.0
837.924999987,2832.0
837.925999987,2625.0
837.926999987,2534.0
837.927999987,2454.0
837.928999987,2362.0
837.929999987,2444.0
837.930999987,2595.0
837.931999987,2592.0
837.932999987,2413.0
837.933999987,2222.0
837.934999987,2102.0
837.935999987,2034.0
837.936999987,1912.0
837.937999987,2033.0
837.938999987,2166.0
837.939999987,2150.0
837.940999987,1992.0
837.941999987,1882.0
837.942999987,1837.0
837.943999987,1826.0
837.944999987,1830.0
837.945999987,1992.0
837.946999987,2117.0
837.947999987,2087.0
837.948999987,1947.0
837.949999987,1867.0
837.950999987,1853.0
837.951999987,1819.0
837.952999987,1841.0
837.953999987,2020.0
837.954999987,2119.0
837.955999987,2089.0
837.956999987,1913.0
837.957999987,1870.0
837.958999987,1888.0
837.959999987,1862.0
837.960999987,1896.0
837.961999987,2068.0
837.962999987,2159.0
837.963999987,2106.0
837.964999987,1920.0
837.965999987,1865.0
837.966999987,1897.0
837.967999987,1883.0
837.968999987,1960.0
837.969999987,2117.0
837.970999987,2194.0
837.971999987,2118.0
837.972999987,1941.0
837.973999987,1846.0
837.974999987,1875.0
837.975999987,1901.0
837.976999987,2013.0
837.977999987,2128.0
837.978999987,2139.0
837.979999987,2074.0
837.980999987,1895.0
837.981999987,1852.0
837.982999987,1842.0
837.983999987,1909.0
837.984999987,2040.0
837.985999987,2120.0
837.986999987,2102.0
837.987999987,2014.0
837.988999987,1864.0
837.989999987,1841.0
837.990999987,1829.0
837.991999987,1887.0
837.992999987,2047.0
837.993999987,2119.0
837.994999987,2084.0
837.995999987,1970.0
837.996999987,1857.0
837.997999987,1862.0
837.998999987,1886.0
837.999999987,1993.0
838.000999987,2146.0
838.001999987,2175.0
838.002999987,2147.0
838.003999987,2050.0
838.004999987,1923.0
838.005999987,1953.0
838.006999987,1980.0
838.007999987,2128.0
838.008999987,2257.0
838.009999987,2293.0
838.010999987,2274.0
838.011999987,2160.0
838.012999987,2062.0
838.013999987,2073.0
838.014999987,2126.0
838.015999987,2300.0
838.016999987,2388.0
838.017999987,2389.0
838.018999987,2353.0
838.019999987,2238.0
838.020999987,2167.0
838.021999987,2146.0
838.022999987,2232.0
838.023999987,2429.0
838.024999987,2453.0
838.025999987,2418.0
838.026999987,2346.0
838.027999987,2272.0
838.028999987,2190.0
838.029999987,2175.0
838.030999987,2247.0
838.031999987,2452.0
838.032999987,2483.0
838.033999987,2428.0
838.034999987,2308.0
838.035999987,2249.0
838.036999987,2175.0
838.037999987,2160.0
838.038999987,2273.0
838.039999987,2455.0
838.040999987,2455.0
838.041999987,2379.0
838.042999987,2275.0
838.043999987,2209.0
838.044999987,2142.0
838.045999987,2147.0
838.046999987,2314.0
838.047999987,2436.0
838.048999987,2417.0
838.049999987,2326.0
838.050999987,2212.0
838.051999987,2154.0
838.052999987,2094.0
838.053999987,2133.0
838.054999987,2307.0
838.055999987,2424.0
838.056999987,2355.0
838.057999987,2272.0
838.058999987,2180.0
838.059999987,2145.0
838.060999987,2066.0
838.061999987,2109.0
838.062999987,2297.0
838.063999987,2384.0
838.064999987,2311.0
838.065999987,2172.0
838.066999987,2120.0
838.067999987,2086.0
838.068999987,2042.0
838.069999987,2096.0
838.070999987,2297.0
838.071999987,2356.0
838.072999987,2276.0
838.073999987,2128.0
838.074999987,2102.0
838.075999987,2081.0
838.076999987,2017.0
838.077999987,2150.0
838.078999987,2314.0
838.079999987,2366.0
838.080999987,2248.0
838.081999987,2095.0
838.082999987,2038.0
838.083999987,2031.0
838.084999987,2016.0
838.085999987,2152.0
838.086999987,2300.0
838.087999987,2322.0
838.088999987,2196.0
838.089999987,2062.0
838.090999987,2037.0
838.091999987,2035.0
838.092999987,2040.0
838.093999987,2165.0
838.094999987,2302.0
838.095999987,2270.0
838.096999987,2182.0
838.097999987,2043.0
838.098999987,2013.0
838.099999987,2012.0
838.100999987,2034.0
838.101999987,2200.0
838.102999987,2285.0
838.103999987,2242.0
838.104999987,2086.0
838.105999987,1994.0
838.106999987,2019.0
838.107999987,1994.0
838.108999987,2038.0
838.109999987,2195.0
838.110999987,2296.0
838.111999987,2234.0
838.112999987,2081.0
838.113999987,1981.0
838.114999987,2009.0
838.115999987,2017.0
838.116999987,2086.0
838.117999987,2233.0
838.118999987,2299.0
838.119999987,2241.0
838.120999987,2072.0
838.121999987,1986.0
838.122999987,2033.0
838.123999987,2046.0
838.124999987,2146.0
838.125999987,2256.0
838.126999987,2290.0
838.127999987,2231.0
838.128999987,2046.0
838.129999987,1982.0
838.130999987,1990.0
838.131999987,2075.0
838.132999987,2174.0
838.133999987,2274.0
838.134999987,2265.0
838.135999987,2207.0
838.136999987,2035.0
838.137999987,1987.0
838.138999987,2010.0
838.139999987,2080.0
838.140999987,2220.0
838.141999987,2279.0
838.142999987,2245.0
838.143999987,2132.0
838.144999987,2007.0
838.145999987,1977.0
838.146999987,2000.0
838.147999987,2111.0
838.148999987,2234.0
838.149999987,2274.0
838.150999987,2237.0
838.151999987,2124.0
838.152999987,2001.0
838.153999987,1971.0
838.154999987,2010.0
838.155999987,2146.0
838.156999987,2248.0
838.157999987,2269.0
838.158999987,2220.0
838.159999987,2102.0
838.160999987,1990.0
838.161999987,1973.0
838.162999987,2027.0
838.163999987,2186.0
838.164999987,2262.0
838.165999987,2246.0
838.166999987,2197.0
838.167999987,2088.0
838.168999987,1980.0
838.169999987,1936.0
838.170999987,2023.0
838.171999987,2222.0
838.172999987,2253.0
838.173999987,2212.0
838.174999987,2148.0
838.175999987,2061.0
838.176999987,1970.0
838.177999987,1948.0
838.178999987,2031.0
838.179999987,2230.0
838.180999987,2258.0
838.181999987,2199.0
838.182999987,2074.0
838.183999987,2035.0
838.184999987,1964.0
838.185999987,1942.0
838.186999987,2052.0
838.187999987,2242.0
838.188999987,2249.0
838.189999987,2166.0
838.190999987,2041.0
838.191999987,2000.0
838.192999987,1935.0
838.193999987,1930.0
838.194999987,2116.0
838.195999987,2253.0
838.196999987,2238.0
838.197999987,2146.0
838.198999987,2056.0
838.199999987,1994.0
838.200999987,1931.0
838.201999987,1952.0
838.202999987,2136.0
838.203999987,2274.0
838.204999987,2218.0
838.205999987,2177.0
838.206999987,2047.0
838.207999987,2001.0
838.208999987,1942.0
838.209999987,1996.0
838.210999987,2194.0
838.211999987,2294.0
838.212999987,2230.0
838.213999987,2082.0
838.214999987,2022.0
838.215999987,2011.0
838.216999987,1954.0
838.217999987,2003.0
838.218999987,2236.0
838.219999987,2325.0
838.220999987,2229.0
838.221999987,2082.0
838.222999987,2044.0
838.223999987,2022.0
838.224999987,1968.0
838.225999987,2066.0
838.226999987,2252.0
838.227999987,2307.0
838.228999987,2205.0
838.229999987,2066.0
838.230999987,2023.0
838.231999987,2019.0
838.232999987,1983.0
838.233999987,2094.0
838.234999987,2250.0
838.235999987,2280.0
838.236999987,2148.0
838.237999987,2002.0
838.238999987,1947.0
838.239999987,1917.0
838.240999987,1876.0
838.241999987,1941.0
838.242999987,1986.0
838.243999987,1885.0
838.244999987,1687.0
838.245999987,1561.0
838.246999987,1622.0
838.247999987,1760.0
838.248999987,1963.0
838.249999987,2346.0
838.250999987,2641.0
838.251999987,2741.0
838.252999987,2674.0
838.253999987,2599.0
838.254999987,2626.0
838.255999987,2619.0
838.256999987,2645.0
838.257999987,2745.0
838.258999987,2765.0
838.259999987,2665.0
838.260999987,2454.0
838.261999987,2324.0
838.262999987,2296.0
838.263999987,2230.0
838.264999987,2233.0
838.265999987,2295.0
838.266999987,2300.0
838.267999987,2164.0
838.268999987,1943.0
838.269999987,1803.0
838.270999987,1802.0
838.271999987,1789.0
838.272999987,1897.0
838.273999987,1987.0
838.274999987,2048.0
838.275999987,1982.0
838.276999987,1817.0
838.277999987,1764.0
838.278999987,1762.0
838.279999987,1834.0
838.280999987,1952.0
838.281999987,2035.0
838.282999987,2035.0
838.283999987,1982.0
838.284999987,1826.0
838.285999987,1785.0
838.286999987,1777.0
838.287999987,1859.0
838.288999987,2003.0
838.289999987,2069.0
838.290999987,2060.0
838.291999987,1955.0
838.292999987,1843.0
838.293999987,1807.0
838.294999987,1803.0
838.295999987,1901.0
838.296999987,2056.0
838.297999987,2090.0
838.298999987,2064.0
838.299999987,1952.0
838.300999987,1851.0
838.301999987,1822.0
838.302999987,1822.0
838.303999987,1943.0
838.304999987,2066.0
838.305999987,2070.0
838.306999987,2049.0
838.307999987,1933.0
838.308999987,1819.0
838.309999987,1808.0
838.310999987,1822.0
838.311999987,1968.0
838.312999987,2066.0
838.313999987,2051.0
838.314999987,2003.0
838.315999987,1885.0
838.316999987,1787.0
838.317999987,1757.0
838.318999987,1820.0
838.319999987,1982.0
838.320999987,2051.0
838.321999987,2010.0
838.322999987,1945.0
838.323999987,1851.0
838.324999987,1765.0
838.325999987,1727.0
838.326999987,1820.0
838.327999987,2010.0
838.328999987,2060.0
838.329999987,2017.0
838.330999987,1901.0
838.331999987,1871.0
838.332999987,1822.0
838.333999987,1808.0
838.334999987,1921.0
838.335999987,2119.0
838.336999987,2153.0
838.337999987,2091.0
838.338999987,2001.0
838.339999987,1970.0
838.340999987,1936.0
838.341999987,1931.0
838.342999987,2088.0
838.343999987,2254.0
838.344999987,2278.0
838.345999987,2210.0
838.346999987,2114.0
838.347999987,2078.0
838.348999987,2057.0
838.349999987,2077.0
838.350999987,2239.0
838.351999987,2384.0
838.352999987,2369.0
838.353999987,2276.0
838.354999987,2176.0
838.355999987,2150.0
838.356999987,2099.0
838.357999987,2148.0
838.358999987,2331.0
838.359999987,2438.0
838.360999987,2395.0
838.361999987,2270.0
838.362999987,2198.0
838.363999987,2164.0
838.364999987,2128.0
838.365999987,2160.0
838.366999987,2352.0
838.367999987,2435.0
838.368999987,2367.0
838.369999987,2222.0
838.370999987,2166.0
838.371999987,2137.0
838.372999987,2099.0
838.373999987,2172.0
838.374999987,2350.0
838.375999987,2408.0
838.376999987,2319.0
838.377999987,2153.0
838.378999987,2117.0
838.379999987,2121.0
838.380999987,2082.0
838.381999987,2183.0
838.382999987,2345.0
838.383999987,2400.0
838.384999987,2285.0
838.385999987,2095.0
838.386999987,2073.0
838.387999987,2085.0
838.388999987,2061.0
838.389999987,2179.0
838.390999987,2330.0
838.391999987,2315.0
838.392999987,2237.0
838.393999987,2063.0
838.394999987,2052.0
838.395999987,2049.0
838.396999987,2067.0
838.397999987,2186.0
838.398999987,2294.0
838.399999987,2278.0
838.400999987,2152.0
838.401999987,1995.0
838.402999987,2011.0
838.403999987,2032.0
838.404999987,2075.0
838.405999987,2214.0
838.406999987,2293.0
838.407999987,2232.0
838.408999987,2074.0
838.409999987,1965.0
838.410999987,1993.0
838.411999987,1991.0
838.412999987,2059.0
838.413999987,2203.0
838.414999987,2284.0
838.415999987,2262.0
838.416999987,2063.0
838.417999987,1953.0
838.418999987,2001.0
838.419999987,2005.0
838.420999987,2103.0
838.421999987,2219.0
838.422999987,2259.0
838.423999987,2191.0
838.424999987,2033.0
838.425999987,1937.0
838.426999987,1972.0
838.427999987,2032.0
838.428999987,2152.0
838.429999987,2238.0
838.430999987,2244.0
838.431999987,2196.0
838.432999987,2032.0
838.433999987,1942.0
838.434999987,1958.0
838.435999987,2035.0
838.436999987,2183.0
838.437999987,2241.0
838.438999987,2215.0
838.439999987,2117.0
838.440999987,1993.0
838.441999987,1934.0
838.442999987,1965.0
838.443999987,2064.0
838.444999987,2221.0
838.445999987,2245.0
838.446999987,2212.0
838.447999987,2101.0
838.448999987,1989.0
838.449999987,1938.0
838.450999987,1974.0
838.451999987,2113.0
838.452999987,2243.0
838.453999987,2255.0
838.454999987,2213.0
838.455999987,2109.0
838.456999987,1978.0
838.457999987,1943.0
838.458999987,1987.0
838.459999987,2150.0
838.460999987,2255.0
838.461999987,2261.0
838.462999987,2182.0
838.463999987,2082.0
838.464999987,1969.0
838.465999987,1928.0
838.466999987,2004.0
838.467999987,2184.0
838.468999987,2259.0
838.469999987,2210.0
838.470999987,2144.0
838.471999987,2063.0
838.472999987,1954.0
838.473999987,1934.0
838.474999987,2004.0
838.475999987,2201.0
838.476999987,2254.0
838.477999987,2191.0
838.478999987,2079.0
838.479999987,2013.0
838.480999987,1938.0
838.481999987,1914.0
838.482999987,2003.0
838.483999987,2214.0
838.484999987,2250.0
838.485999987,2170.0
838.486999987,2049.0
838.487999987,1999.0
838.488999987,1939.0
838.489999987,1917.0
838.490999987,2039.0
838.491999987,2225.0
838.492999987,2250.0
838.493999987,2154.0
838.494999987,2058.0
838.495999987,1996.0
838.496999987,1956.0
838.497999987,1937.0
838.498999987,2108.0
838.499999987,2267.0
838.500999987,2245.0
838.501999987,2140.0
838.502999987,2025.0
838.503999987,1982.0
838.504999987,1936.0
838.505999987,1948.0
838.506999987,2129.0
838.507999987,2254.0
838.508999987,2204.0
838.509999987,2086.0
838.510999987,2002.0
838.511999987,1967.0
838.512999987,1922.0
838.513999987,1998.0
838.514999987,2152.0
838.515999987,2251.0
838.516999987,2190.0
838.517999987,2023.0
838.518999987,1970.0
838.519999987,1959.0
838.520999987,1920.0
838.521999987,1982.0
838.522999987,2175.0
838.523999987,2246.0
838.524999987,2156.0
838.525999987,2000.0
838.526999987,1940.0
838.527999987,1951.0
838.528999987,1929.0
838.529999987,2017.0
838.530999987,2189.0
838.531999987,2235.0
838.532999987,2135.0
838.533999987,1991.0
838.534999987,1951.0
838.535999987,1980.0
838.536999987,1949.0
838.537999987,2058.0
838.538999987,2201.0
838.539999987,2223.0
838.540999987,2130.0
838.541999987,1972.0
838.542999987,1934.0
838.543999987,1937.0
838.544999987,1972.0
838.545999987,2096.0
838.546999987,2215.0
838.547999987,2192.0
838.548999987,2088.0
838.549999987,1963.0
838.550999987,1944.0
838.551999987,1933.0
838.552999987,1987.0
838.553999987,2136.0
838.554999987,2221.0
838.555999987,2191.0
838.556999987,2049.0
838.557999987,1950.0
838.558999987,1958.0
838.559999987,1951.0
838.560999987,2017.0
838.561999987,2168.0
838.562999987,2232.0
838.563999987,2183.0
838.564999987,2027.0
838.565999987,1935.0
838.566999987,1956.0
838.567999987,1967.0
838.568999987,2068.0
838.569999987,2191.0
838.570999987,2239.0
838.571999987,2181.0
838.572999987,2021.0
838.573999987,1938.0
838.574999987,1958.0
838.575999987,1992.0
838.576999987,2136.0
838.577999987,2222.0
838.578999987,2204.0
838.579999987,2176.0
838.580999987,2035.0
838.581999987,1952.0
838.582999987,1958.0
838.583999987,2046.0
838.584999987,2188.0
838.585999987,2275.0
838.586999987,2218.0
838.587999987,2134.0
838.588999987,2016.0
838.589999987,1956.0
838.590999987,1963.0
838.591999987,2041.0
838.592999987,2201.0
838.593999987,2245.0
838.594999987,2202.0
838.595999987,2116.0
838.596999987,2026.0
838.597999987,1990.0
838.598999987,1966.0
838.599999987,2083.0
838.600999987,2229.0
838.601999987,2237.0
838.602999987,2214.0
838.603999987,2090.0
838.604999987,2000.0
838.605999987,1970.0
838.606999987,1977.0
838.607999987,2121.0
838.608999987,2226.0
838.609999987,2216.0
838.610999987,2158.0
838.611999987,2072.0
838.612999987,1914.0
838.613999987,1863.0
838.614999987,1802.0
838.615999987,1884.0
838.616999987,1873.0
838.617999987,1767.0
838.618999987,1683.0
838.619999987,1708.0
838.620999987,1800.0
838.621999987,1943.0
838.622999987,2231.0
838.623999987,2589.0
838.624999987,2777.0
838.625999987,2810.0
838.626999987,2691.0
838.627999987,2668.0
838.628999987,2627.0
838.629999987,2567.0
838.630999987,2563.0
838.631999987,2708.0
838.632999987,2693.0
838.633999987,2579.0
838.634999987,2402.0
838.635999987,2289.0
838.636999987,2192.0
838.637999987,2109.0
838.638999987,2128.0
838.639999987,2237.0
838.640999987,2182.0
838.641999987,2044.0
838.642999987,1909.0
838.643999987,1813.0
838.644999987,1772.0
838.645999987,1740.0
838.646999987,1881.0
838.647999987,2052.0
838.648999987,2047.0
838.649999987,1946.0
838.650999987,1844.0
838.651999987,1805.0
838.652999987,1778.0
838.653999987,1788.0
838.654999987,1947.0
838.655999987,2082.0
838.656999987,2059.0
838.657999987,1950.0
838.658999987,1857.0
838.659999987,1845.0
838.660999987,1800.0
838.661999987,1824.0
838.662999987,2016.0
838.663999987,2109.0
838.664999987,2072.0
838.665999987,1915.0
838.666999987,1841.0
838.667999987,1844.0
838.668999987,1831.0
838.669999987,1868.0
838.670999987,2071.0
838.671999987,2142.0
838.672999987,2078.0
838.673999987,1905.0
838.674999987,1852.0
838.675999987,1855.0
838.676999987,1847.0
838.677999987,1905.0
838.678999987,2071.0
838.679999987,2125.0
838.680999987,2061.0
838.681999987,1889.0
838.682999987,1831.0
838.683999987,1865.0
838.684999987,1841.0
838.685999987,1941.0
838.686999987,2087.0
838.687999987,2102.0
838.688999987,2035.0
838.689999987,1855.0
838.690999987,1810.0
838.691999987,1802.0
838.692999987,1848.0
838.693999987,1958.0
838.694999987,2074.0
838.695999987,2055.0
838.696999987,1967.0
838.697999987,1808.0
838.698999987,1800.0
838.699999987,1806.0
838.700999987,1872.0
838.701999987,2011.0
838.702999987,2098.0
838.703999987,2076.0
838.704999987,1954.0
838.705999987,1840.0
838.706999987,1852.0
838.707999987,1875.0
838.708999987,1969.0
838.709999987,2089.0
838.710999987,2219.0
838.711999987,2186.0
838.712999987,2062.0
838.713999987,1965.0
838.714999987,1996.0
838.715999987,2028.0
838.716999987,2159.0
838.717999987,2289.0
838.718999987,2357.0
838.719999987,2322.0
838.720999987,2185.0
838.721999987,2100.0
838.722999987,2131.0
838.723999987,2185.0
838.724999987,2340.0
838.725999987,2427.0
838.726999987,2434.0
838.727999987,2399.0
838.728999987,2257.0
838.729999987,2161.0
838.730999987,2169.0
838.731999987,2273.0
838.732999987,2415.0
838.733999987,2464.0
838.734999987,2447.0
838.735999987,2371.0
838.736999987,2262.0
838.737999987,2186.0
838.738999987,2176.0
838.739999987,2261.0
838.740999987,2447.0
838.741999987,2469.0
838.742999987,2425.0
838.743999987,2306.0
838.744999987,2244.0
838.745999987,2159.0
838.746999987,2160.0
838.747999987,2269.0
838.748999987,2437.0
838.749999987,2445.0
838.750999987,2407.0
838.751999987,2299.0
838.752999987,2206.0
838.753999987,2139.0
838.754999987,2150.0
838.755999987,2300.0
838.756999987,2422.0
838.757999987,2423.0
838.758999987,2343.0
838.759999987,2226.0
838.760999987,2150.0
838.761999987,2103.0
838.762999987,2134.0
838.763999987,2300.0
838.764999987,2419.0
838.765999987,2365.0
838.766999987,2292.0
838.767999987,2185.0
838.768999987,2120.0
838.769999987,2046.0
838.770999987,2120.0
838.771999987,2302.0
838.772999987,2392.0
838.773999987,2320.0
838.774999987,2210.0
838.775999987,2128.0
838.776999987,2100.0
838.777999987,2029.0
838.778999987,2100.0
838.779999987,2307.0
838.780999987,2382.0
838.781999987,2287.0
838.782999987,2142.0
838.783999987,2102.0
838.784999987,2069.0
838.785999987,2004.0
838.786999987,2097.0
838.787999987,2302.0
838.788999987,2364.0
838.789999987,2248.0
838.790999987,2099.0
838.791999987,2046.0
838.792999987,2038.0
838.793999987,1995.0
838.794999987,2123.0
838.795999987,2307.0
838.796999987,2321.0
838.797999987,2198.0
838.798999987,2078.0
838.799999987,2022.0
838.800999987,2008.0
838.801999987,1999.0
838.802999987,2159.0
838.803999987,2290.0
838.804999987,2279.0
838.805999987,2149.0
838.806999987,2032.0
838.807999987,1991.0
838.808999987,1974.0
838.809999987,1984.0
838.810999987,2175.0
838.811999987,2280.0
838.812999987,2238.0
838.813999987,2082.0
838.814999987,2011.0
838.815999987,1983.0
838.816999987,1979.0
838.817999987,2007.0
838.818999987,2212.0
838.819999987,2279.0
838.820999987,2233.0
838.821999987,2053.0
838.822999987,1995.0
838.823999987,1994.0
838.824999987,1991.0
838.825999987,2048.0
838.826999987,2202.0
838.827999987,2277.0
838.828999987,2215.0
838.829999987,2039.0
838.830999987,1988.0
838.831999987,2018.0
838.832999987,2000.0
838.833999987,2086.0
838.834999987,2229.0
838.835999987,2276.0
838.836999987,2213.0
838.837999987,2015.0
838.838999987,1973.0
838.839999987,1963.0
838.840999987,2002.0
838.841999987,2125.0
838.842999987,2237.0
838.843999987,2238.0
838.844999987,2179.0
838.845999987,1989.0
838.846999987,1957.0
838.847999987,1955.0
838.848999987,2003.0
838.849999987,2149.0
838.850999987,2234.0
838.851999987,2201.0
838.852999987,2106.0
838.853999987,1980.0
838.854999987,1956.0
838.855999987,1947.0
838.856999987,2009.0
838.857999987,2182.0
838.858999987,2240.0
838.859999987,2194.0
838.860999987,2057.0
838.861999987,1947.0
838.862999987,1962.0
838.863999987,1960.0
838.864999987,2087.0
838.865999987,2192.0
838.866999987,2226.0
838.867999987,2162.0
838.868999987,2045.0
838.869999987,1926.0
838.870999987,1947.0
838.871999987,1964.0
838.872999987,2101.0
838.873999987,2194.0
838.874999987,2191.0
838.875999987,2166.0
838.876999987,2017.0
838.877999987,1889.0
838.878999987,1880.0
838.879999987,1943.0
838.880999987,2112.0
838.881999987,2169.0
838.882999987,2133.0
838.883999987,2080.0
838.884999987,1987.0
838.885999987,1896.0
838.886999987,1881.0
838.887999987,1965.0
838.888999987,2159.0
838.889999987,2186.0
838.890999987,2139.0
838.891999987,2045.0
838.892999987,1992.0
838.893999987,1886.0
838.894999987,1880.0
838.895999987,1974.0
838.896999987,2173.0
838.897999987,2191.0
838.898999987,2148.0
838.899999987,2033.0
838.900999987,1978.0
838.901999987,1877.0
838.902999987,1862.0
838.903999987,1985.0
838.904999987,2135.0
838.905999987,2133.0
838.906999987,2063.0
838.907999987,1973.0
838.908999987,1945.0
838.909999987,1905.0
838.910999987,1915.0
838.911999987,2066.0
838.912999987,2224.0
838.913999987,2170.0
838.914999987,2085.0
838.915999987,2029.0
838.916999987,1944.0
838.917999987,1880.0
838.918999987,1942.0
838.919999987,2134.0
838.920999987,2244.0
838.921999987,2184.0
838.922999987,2056.0
838.923999987,1995.0
838.924999987,2000.0
838.925999987,1886.0
838.926999987,1941.0
838.927999987,2156.0
838.928999987,2221.0
838.929999987,2136.0
838.930999987,1965.0
838.931999987,1937.0
838.932999987,1932.0
838.933999987,1866.0
838.934999987,1924.0
838.935999987,2122.0
838.936999987,2181.0
838.937999987,2081.0
838.938999987,1946.0
838.939999987,1933.0
838.940999987,1945.0
838.941999987,1890.0
838.942999987,2026.0
838.943999987,2178.0
838.944999987,2220.0
838.945999987,2082.0
838.946999987,1978.0
838.947999987,1956.0
838.948999987,1973.0
838.949999987,1909.0
838.950999987,2079.0
838.951999987,2233.0
838.952999987,2227.0
838.953999987,2094.0
838.954999987,1976.0
838.955999987,1973.0
838.956999987,1957.0
838.957999987,1959.0
838.958999987,2127.0
838.959999987,2235.0
838.960999987,2193.0
838.961999987,2048.0
838.962999987,1953.0
838.963999987,1952.0
838.964999987,1963.0
838.965999987,1984.0
838.966999987,2150.0
838.967999987,2256.0
838.968999987,2198.0
838.969999987,2015.0
838.970999987,1960.0
838.971999987,1972.0
838.972999987,1965.0
838.973999987,2002.0
838.974999987,2172.0
838.975999987,2223.0
838.976999987,2164.0
838.977999987,1981.0
838.978999987,1914.0
838.979999987,2005.0
838.980999987,1990.0
838.981999987,2071.0
838.982999987,2216.0
838.983999987,2241.0
838.984999987,2163.0
838.985999987,1914.0
838.986999987,1769.0
838.987999987,1710.0
838.988999987,1652.0
838.989999987,1670.0
838.990999987,1839.0
838.991999987,1986.0
838.992999987,2137.0
838.993999987,2160.0
838.994999987,2309.0
838.995999987,2490.0
838.996999987,2664.0
838.997999987,2821.0
838.998999987,2927.0
838.999999987,2915.0
839.000999987,2829.0
839.001999987,2616.0
839.002999987,2521.0
839.003999987,2474.0
839.004999987,2496.0
839.005999987,2616.0
839.006999987,2643.0
839.007999987,2540.0
839.008999987,2356.0
839.009999987,2160.0
839.010999987,2098.0
839.011999987,2021.0
839.012999987,2070.0
839.013999987,2151.0
839.014999987,2197.0
839.015999987,2120.0
839.016999987,2023.0
839.017999987,1880.0
839.018999987,1890.0
839.019999987,1918.0
839.020999987,2083.0
839.021999987,2171.0
839.022999987,2184.0
839.023999987,2126.0
839.024999987,2022.0
839.025999987,1908.0
839.026999987,1915.0
839.027999987,2009.0
839.028999987,2181.0
839.029999987,2242.0
839.030999987,2207.0
839.031999987,2170.0
839.032999987,2045.0
839.033999987,1919.0
839.034999987,1884.0
839.035999987,1997.0
839.036999987,2218.0
839.037999987,2277.0
839.038999987,2249.0
839.039999987,2146.0
839.040999987,2077.0
839.041999987,1969.0
839.042999987,1937.0
839.043999987,2041.0
839.044999987,2297.0
839.045999987,2289.0
839.046999987,2219.0
839.047999987,2100.0
839.048999987,2052.0
839.049999987,1993.0
839.050999987,1970.0
839.051999987,2114.0
839.052999987,2267.0
839.053999987,2242.0
839.054999987,2134.0
839.055999987,1989.0
839.056999987,1934.0
839.057999987,1838.0
839.058999987,1823.0
839.059999987,2004.0
839.060999987,2192.0
839.061999987,2179.0
839.062999987,2073.0
839.063999987,1968.0
839.064999987,1923.0
839.065999987,1835.0
839.066999987,1873.0
839.067999987,2071.0
839.068999987,2225.0
839.069999987,2147.0
839.070999987,2054.0
839.071999987,1969.0
839.072999987,1940.0
839.073999987,1850.0
839.074999987,1899.0
839.075999987,2135.0
839.076999987,2272.0
839.077999987,2160.0
839.078999987,2015.0
839.079999987,1999.0
839.080999987,1993.0
839.081999987,1950.0
839.082999987,2012.0
839.083999987,2279.0
839.084999987,2398.0
839.085999987,2299.0
839.086999987,2140.0
839.087999987,2120.0
839.088999987,2133.0
839.089999987,2084.0
839.090999987,2223.0
839.091999987,2409.0
839.092999987,2504.0
839.093999987,2352.0
839.094999987,2219.0
839.095999987,2179.0
839.096999987,2192.0
839.097999987,2139.0
839.098999987,2313.0
839.099999987,2490.0
839.100999987,2515.0
839.101999987,2379.0
839.102999987,2245.0
839.103999987,2226.0
839.104999987,2206.0
839.105999987,2206.0
839.106999987,2374.0
839.107999987,2516.0
839.108999987,2487.0
839.109999987,2337.0
839.110999987,2246.0
839.111999987,2237.0
839.112999987,2212.0
839.113999987,2208.0
839.114999987,2386.0
839.115999987,2510.0
839.116999987,2449.0
839.117999987,2265.0
839.118999987,2201.0
839.119999987,2181.0
839.120999987,2171.0
839.121999987,2207.0
839.122999987,2378.0
839.123999987,2472.0
839.124999987,2407.0
839.125999987,2198.0
839.126999987,2115.0
839.127999987,2127.0
839.128999987,2134.0
839.129999987,2190.0
839.130999987,2335.0
839.131999987,2408.0
839.132999987,2351.0
839.133999987,2160.0
839.134999987,2070.0
839.135999987,2100.0
839.136999987,2098.0
839.137999987,2194.0
839.138999987,2318.0
839.139999987,2317.0
839.140999987,2257.0
839.141999987,2069.0
839.142999987,2003.0
839.143999987,1990.0
839.144999987,2059.0
839.145999987,2193.0
839.146999987,2280.0
839.147999987,2269.0
839.148999987,2202.0
839.149999987,2056.0
839.150999987,2027.0
839.151999987,2004.0
839.152999987,2073.0
839.153999987,2254.0
839.154999987,2305.0
839.155999987,2277.0
839.156999987,2137.0
839.157999987,2044.0
839.158999987,2021.0
839.159999987,1976.0
839.160999987,2081.0
839.161999987,2230.0
839.162999987,2255.0
839.163999987,2234.0
839.164999987,2147.0
839.165999987,1979.0
839.166999987,1984.0
839.167999987,1991.0
839.168999987,2140.0
839.169999987,2259.0
839.170999987,2248.0
839.171999987,2191.0
839.172999987,2098.0
839.173999987,1978.0
839.174999987,1969.0
839.175999987,1988.0
839.176999987,2152.0
839.177999987,2238.0
839.178999987,2211.0
839.179999987,2173.0
839.180999987,2041.0
839.181999987,1920.0
839.182999987,1886.0
839.183999987,1971.0
839.184999987,2177.0
839.185999987,2215.0
839.186999987,2175.0
839.187999987,2078.0
839.188999987,2032.0
839.189999987,1969.0
839.190999987,1937.0
839.191999987,2030.0
839.192999987,2267.0
839.193999987,2291.0
839.194999987,2237.0
839.195999987,2125.0
839.196999987,2093.0
839.197999987,2006.0
839.198999987,2002.0
839.199999987,2127.0
839.200999987,2347.0
839.201999987,2355.0
839.202999987,2280.0
839.203999987,2163.0
839.204999987,2113.0
839.205999987,2040.0
839.206999987,2019.0
839.207999987,2165.0
839.208999987,2355.0
839.209999987,2327.0
839.210999987,2213.0
839.211999987,2091.0
839.212999987,2049.0
839.213999987,1981.0
839.214999987,2007.0
839.215999987,2186.0
839.216999987,2331.0
839.217999987,2257.0
839.218999987,2150.0
839.219999987,2050.0
839.220999987,2016.0
839.221999987,1943.0
839.222999987,1972.0
839.223999987,2179.0
839.224999987,2309.0
839.225999987,2253.0
839.226999987,2041.0
839.227999987,2028.0
839.228999987,1997.0
839.229999987,1936.0
839.230999987,2003.0
839.231999987,2255.0
839.232999987,2332.0
839.233999987,2253.0
839.234999987,2080.0
839.235999987,2049.0
839.236999987,2044.0
839.237999987,1985.0
839.238999987,2078.0
839.239999987,2260.0
839.240999987,2327.0
839.241999987,2199.0
839.242999987,2044.0
839.243999987,2053.0
839.244999987,2071.0
839.245999987,2014.0
839.246999987,2151.0
839.247999987,2332.0
839.248999987,2363.0
839.249999987,2241.0
839.250999987,2047.0
839.251999987,2046.0
839.252999987,2038.0
839.253999987,2041.0
839.254999987,2184.0
839.255999987,2346.0
839.256999987,2323.0
839.257999987,2191.0
839.258999987,2001.0
839.259999987,2036.0
839.260999987,2042.0
839.261999987,2046.0
839.262999987,2226.0
839.263999987,2357.0
839.264999987,2303.0
839.265999987,2127.0
839.266999987,2032.0
839.267999987,2042.0
839.268999987,2031.0
839.269999987,2055.0
839.270999987,2251.0
839.271999987,2358.0
839.272999987,2312.0
839.273999987,2122.0
839.274999987,1982.0
839.275999987,2023.0
839.276999987,2038.0
839.277999987,2105.0
839.278999987,2243.0
839.279999987,2333.0
839.280999987,2251.0
839.281999987,2043.0
839.282999987,1932.0
839.283999987,2011.0
839.284999987,2035.0
839.285999987,2142.0
839.286999987,2268.0
839.287999987,2301.0
839.288999987,2231.0
839.289999987,2030.0
839.290999987,1935.0
839.291999987,1961.0
839.292999987,2051.0
839.293999987,2183.0
839.294999987,2277.0
839.295999987,2269.0
839.296999987,2208.0
839.297999987,2026.0
839.298999987,1945.0
839.299999987,1941.0
839.300999987,1983.0
839.301999987,2125.0
839.302999987,2152.0
839.303999987,2058.0
839.304999987,1857.0
839.305999987,1658.0
839.306999987,1508.0
839.307999987,1533.0
839.308999987,1771.0
839.309999987,2106.0
839.310999987,2346.0
839.311999987,2547.0
839.312999987,2607.0
839.313999987,2598.0
839.314999987,2604.0
839.315999987,2649.0
839.316999987,2819.0
839.317999987,2945.0
839.318999987,2919.0
839.319999987,2785.0
839.320999987,2597.0
839.321999987,2428.0
839.322999987,2328.0
839.323999987,2335.0
839.324999987,2470.0
839.325999987,2503.0
839.326999987,2408.0
839.327999987,2271.0
839.328999987,2040.0
839.329999987,1886.0
839.330999987,1783.0
839.331999987,1851.0
839.332999987,2021.0
839.333999987,2071.0
839.334999987,2025.0
839.335999987,1948.0
839.336999987,1878.0
839.337999987,1801.0
839.338999987,1749.0
839.339999987,1836.0
839.340999987,2097.0
839.341999987,2117.0
839.342999987,2023.0
839.343999987,1897.0
839.344999987,1868.0
839.345999987,1786.0
839.346999987,1752.0
839.347999987,1873.0
839.348999987,2107.0
839.349999987,2130.0
839.350999987,2029.0
839.351999987,1923.0
839.352999987,1887.0
839.353999987,1827.0
839.354999987,1782.0
839.355999987,1958.0
839.356999987,2146.0
839.357999987,2149.0
839.358999987,2024.0
839.359999987,1918.0
839.360999987,1889.0
839.361999987,1824.0
839.362999987,1806.0
839.363999987,2016.0
839.364999987,2171.0
839.365999987,2131.0
839.366999987,2018.0
839.367999987,1915.0
839.368999987,1877.0
839.369999987,1830.0
839.370999987,1842.0
839.371999987,2064.0
839.372999987,2178.0
839.373999987,2096.0
839.374999987,1939.0
839.375999987,1875.0
839.376999987,1868.0
839.377999987,1801.0
839.378999987,1823.0
839.379999987,2066.0
839.380999987,2164.0
839.381999987,2064.0
839.382999987,1864.0
839.383999987,1844.0
839.384999987,1844.0
839.385999987,1782.0
839.386999987,1872.0
839.387999987,2070.0
839.388999987,2156.0
839.389999987,2047.0
839.390999987,1884.0
839.391999987,1877.0
839.392999987,1876.0
839.393999987,1818.0
839.394999987,1953.0
839.395999987,2152.0
839.396999987,2228.0
839.397999987,2113.0
839.398999987,1970.0
839.399999987,1948.0
839.400999987,1973.0
839.401999987,1968.0
839.402999987,2122.0
839.403999987,2291.0
839.404999987,2316.0
839.405999987,2228.0
839.406999987,2107.0
839.407999987,2077.0
839.408999987,2097.0
839.409999987,2136.0
839.410999987,2301.0
839.411999987,2451.0
839.412999987,2419.0
839.413999987,2275.0
839.414999987,2204.0
839.415999987,2198.0
839.416999987,2175.0
839.417999987,2208.0
839.418999987,2389.0
839.419999987,2496.0
839.420999987,2473.0
839.421999987,2288.0
839.422999987,2193.0
839.423999987,2190.0
839.424999987,2190.0
839.425999987,2280.0
839.426999987,2429.0
839.427999987,2536.0
839.428999987,2429.0
839.429999987,2267.0
839.430999987,2158.0
839.431999987,2195.0
839.432999987,2172.0
839.433999987,2280.0
839.434999987,2360.0
839.435999987,2451.0
839.436999987,2380.0
839.437999987,2225.0
839.438999987,2094.0
839.439999987,2121.0
839.440999987,2173.0
839.441999987,2300.0
839.442999987,2401.0
839.443999987,2393.0
839.444999987,2332.0
839.445999987,2157.0
839.446999987,2104.0
839.447999987,2078.0
839.448999987,2148.0
839.449999987,2309.0
839.450999987,2367.0
839.451999987,2325.0
839.452999987,2217.0
839.453999987,2113.0
839.454999987,2059.0
839.455999987,2048.0
839.456999987,2152.0
839.457999987,2320.0
839.458999987,2345.0
839.459999987,2303.0
839.460999987,2215.0
839.461999987,2080.0
839.462999987,2047.0
839.463999987,2029.0
839.464999987,2179.0
839.465999987,2340.0
839.466999987,2344.0
839.467999987,2294.0
839.468999987,2207.0
839.469999987,2095.0
839.470999987,2076.0
839.471999987,2086.0
839.472999987,2263.0
839.473999987,2361.0
839.474999987,2333.0
839.475999987,2265.0
839.476999987,2142.0
839.477999987,2053.0
839.478999987,2017.0
839.479999987,2073.0
839.480999987,2264.0
839.481999987,2329.0
839.482999987,2278.0
839.483999987,2201.0
839.484999987,2121.0
839.485999987,2031.0
839.486999987,1978.0
839.487999987,2047.0
839.488999987,2283.0
839.489999987,2324.0
839.490999987,2250.0
839.491999987,2124.0
839.492999987,2084.0
839.493999987,2005.0
839.494999987,1942.0
839.495999987,2009.0
839.496999987,2241.0
839.497999987,2268.0
839.498999987,2191.0
839.499999987,2050.0
839.500999987,2022.0
839.501999987,1977.0
839.502999987,1943.0
839.503999987,2077.0
839.504999987,2263.0
839.505999987,2270.0
839.506999987,2140.0
839.507999987,2033.0
839.508999987,2004.0
839.509999987,1986.0
839.510999987,1965.0
839.511999987,2143.0
839.512999987,2292.0
839.513999987,2265.0
839.514999987,2148.0
839.515999987,2032.0
839.516999987,2011.0
839.517999987,1931.0
839.518999987,1959.0
839.519999987,2157.0
839.520999987,2299.0
839.521999987,2243.0
839.522999987,2096.0
839.523999987,2016.0
839.524999987,2047.0
839.525999987,1958.0
839.526999987,1965.0
839.527999987,2193.0
839.528999987,2310.0
839.529999987,2231.0
839.530999987,2045.0
839.531999987,1984.0
839.532999987,2001.0
839.533999987,1949.0
839.534999987,2005.0
839.535999987,2239.0
839.536999987,2303.0
839.537999987,2195.0
839.538999987,2018.0
839.539999987,1982.0
839.540999987,2006.0
839.541999987,1948.0
839.542999987,2053.0
839.543999987,2238.0
839.544999987,2308.0
839.545999987,2185.0
839.546999987,1999.0
839.547999987,1966.0
839.548999987,1985.0
839.549999987,1979.0
839.550999987,2097.0
839.551999987,2240.0
839.552999987,2261.0
839.553999987,2166.0
839.554999987,1955.0
839.555999987,1933.0
839.556999987,1940.0
839.557999987,1954.0
839.558999987,2105.0
839.559999987,2231.0
839.560999987,2207.0
839.561999987,2109.0
839.562999987,1949.0
839.563999987,1952.0
839.564999987,1948.0
839.565999987,2010.0
839.566999987,2172.0
839.567999987,2271.0
839.568999987,2221.0
839.569999987,2063.0
839.570999987,1942.0
839.571999987,1947.0
839.572999987,1953.0
839.573999987,2035.0
839.574999987,2190.0
839.575999987,2288.0
839.576999987,2224.0
839.577999987,2052.0
839.578999987,1925.0
839.579999987,1975.0
839.580999987,1987.0
839.581999987,2101.0
839.582999987,2244.0
839.583999987,2288.0
839.584999987,2218.0
839.585999987,2076.0
839.586999987,1967.0
839.587999987,1987.0
839.588999987,2051.0
839.589999987,2215.0
839.590999987,2296.0
839.591999987,2297.0
839.592999987,2251.0
839.593999987,2097.0
839.594999987,2002.0
839.595999987,2003.0
839.596999987,2082.0
839.597999987,2266.0
839.598999987,2305.0
839.599999987,2259.0
839.600999987,2159.0
839.601999987,2047.0
839.602999987,1955.0
839.603999987,1941.0
839.604999987,2032.0
839.605999987,2205.0
839.606999987,2197.0
839.607999987,2107.0
839.608999987,1917.0
839.609999987,1743.0
839.610999987,1571.0
839.611999987,1507.0
839.612999987,1647.0
839.613999987,1970.0
839.614999987,2165.0
839.615999987,2334.0
839.616999987,2457.0
839.617999987,2515.0
839.618999987,2593.0
839.619999987,2657.0
839.620999987,2885.0
839.621999987,3012.0
839.622999987,3003.0
839.623999987,2894.0
839.624999987,2694.0
839.625999987,2512.0
839.626999987,2380.0
839.627999987,2389.0
839.628999987,2508.0
839.629999987,2528.0
839.630999987,2392.0
839.631999987,2241.0
839.632999987,2044.0
839.633999987,1884.0
839.634999987,1764.0
839.635999987,1794.0
839.636999987,1987.0
839.637999987,2050.0
839.638999987,1971.0
839.639999987,1835.0
839.640999987,1804.0
839.641999987,1735.0
839.642999987,1673.0
839.643999987,1753.0
839.644999987,2007.0
839.645999987,2057.0
839.646999987,1971.0
839.647999987,1826.0
839.648999987,1803.0
839.649999987,1770.0
839.650999987,1703.0
839.651999987,1825.0
839.652999987,2045.0
839.653999987,2079.0
839.654999987,1957.0
839.655999987,1825.0
839.656999987,1802.0
839.657999987,1780.0
839.658999987,1737.0
839.659999987,1902.0
839.660999987,2089.0
839.661999987,2086.0
839.662999987,1937.0
839.663999987,1826.0
839.664999987,1789.0
839.665999987,1753.0
839.666999987,1741.0
839.667999987,1952.0
839.668999987,2093.0
839.669999987,2043.0
839.670999987,1895.0
839.671999987,1821.0
839.672999987,1810.0
839.673999987,1751.0
839.674999987,1759.0
839.675999987,1975.0
839.676999987,2100.0
839.677999987,2051.0
839.678999987,1855.0
839.679999987,1804.0
839.680999987,1820.0
839.681999987,1770.0
839.682999987,1820.0
839.683999987,2029.0
839.684999987,2124.0
839.685999987,2046.0
839.686999987,1856.0
839.687999987,1792.0
839.688999987,1817.0
839.689999987,1767.0
839.690999987,1862.0
839.691999987,2050.0
839.692999987,2133.0
839.693999987,2032.0
839.694999987,1864.0
839.695999987,1797.0
839.696999987,1829.0
839.697999987,1810.0
839.698999987,1924.0
839.699999987,2098.0
839.700999987,2139.0
839.701999987,2066.0
839.702999987,1903.0
839.703999987,1865.0
839.704999987,1897.0
839.705999987,1976.0
839.706999987,2113.0
839.707999987,2245.0
839.708999987,2237.0
839.709999987,2141.0
839.710999987,2012.0
839.711999987,1984.0
839.712999987,1976.0
839.713999987,2051.0
839.714999987,2222.0
839.715999987,2344.0
839.716999987,2329.0
839.717999987,2181.0
839.718999987,2071.0
839.719999987,2079.0
839.720999987,2094.0
839.721999987,2189.0
839.722999987,2359.0
839.723999987,2448.0
839.724999987,2404.0
839.725999987,2241.0
839.726999987,2114.0
839.727999987,2135.0
839.728999987,2137.0
839.729999987,2272.0
839.730999987,2417.0
839.731999987,2460.0
839.732999987,2393.0
839.733999987,2253.0
839.734999987,2113.0
839.735999987,2152.0
839.736999987,2170.0
839.737999987,2305.0
839.738999987,2406.0
839.739999987,2394.0
839.740999987,2357.0
839.741999987,2238.0
839.742999987,2149.0
839.743999987,2083.0
839.744999987,2168.0
839.745999987,2360.0
839.746999987,2385.0
839.747999987,2357.0
839.748999987,2259.0
839.749999987,2171.0
839.750999987,2078.0
839.751999987,2041.0
839.752999987,2116.0
839.753999987,2336.0
839.754999987,2377.0
839.755999987,2316.0
839.756999987,2201.0
839.757999987,2138.0
839.758999987,2043.0
839.759999987,2013.0
839.760999987,2152.0
839.761999987,2340.0
839.762999987,2344.0
839.763999987,2255.0
839.764999987,2145.0
839.765999987,2079.0
839.766999987,2000.0
839.767999987,2000.0
839.768999987,2183.0
839.769999987,2317.0
839.770999987,2289.0
839.771999987,2220.0
839.772999987,2094.0
839.773999987,2048.0
839.774999987,1964.0
839.775999987,1994.0
839.776999987,2184.0
839.777999987,2320.0
839.778999987,2249.0
839.779999987,2171.0
839.780999987,2083.0
839.781999987,2028.0
839.782999987,1946.0
839.783999987,2005.0
839.784999987,2226.0
839.785999987,2324.0
839.786999987,2234.0
839.787999987,2098.0
839.788999987,2053.0
839.789999987,2019.0
839.790999987,1948.0
839.791999987,1998.0
839.792999987,2228.0
839.793999987,2311.0
839.794999987,2221.0
839.795999987,2054.0
839.796999987,2026.0
839.797999987,2046.0
839.798999987,1953.0
839.799999987,2054.0
839.800999987,2261.0
839.801999987,2309.0
839.802999987,2208.0
839.803999987,2064.0
839.804999987,2018.0
839.805999987,2025.0
839.806999987,1943.0
839.807999987,2092.0
839.808999987,2278.0
839.809999987,2314.0
839.810999987,2177.0
839.811999987,2056.0
839.812999987,2023.0
839.813999987,2010.0
839.814999987,1990.0
839.815999987,2159.0
839.816999987,2319.0
839.817999987,2255.0
839.818999987,2131.0
839.819999987,1993.0
839.820999987,2000.0
839.821999987,1993.0
839.822999987,1989.0
839.823999987,2195.0
839.824999987,2313.0
839.825999987,2268.0
839.826999987,2071.0
839.827999987,2004.0
839.828999987,2013.0
839.829999987,1995.0
839.830999987,2001.0
839.831999987,2210.0
839.832999987,2330.0
839.833999987,2262.0
839.834999987,2079.0
839.835999987,2002.0
839.836999987,2015.0
839.837999987,2004.0
839.838999987,2077.0
839.839999987,2270.0
839.840999987,2351.0
839.841999987,2269.0
839.842999987,2088.0
839.843999987,2028.0
839.844999987,2057.0
839.845999987,2058.0
839.846999987,2146.0
839.847999987,2298.0
839.848999987,2336.0
839.849999987,2284.0
839.850999987,2071.0
839.851999987,1996.0
839.852999987,2012.0
839.853999987,2079.0
839.854999987,2174.0
839.855999987,2279.0
839.856999987,2269.0
839.857999987,2176.0
839.858999987,1979.0
839.859999987,1965.0
839.860999987,1956.0
839.861999987,2023.0
839.862999987,2164.0
839.863999987,2305.0
839.864999987,2232.0
839.865999987,2100.0
839.866999987,1966.0
839.867999987,1940.0
839.868999987,1967.0
839.869999987,2065.0
839.870999987,2218.0
839.871999987,2318.0
839.872999987,2254.0
839.873999987,2104.0
839.874999987,1972.0
839.875999987,1982.0
839.876999987,2015.0
839.877999987,2168.0
839.878999987,2295.0
839.879999987,2342.0
839.880999987,2289.0
839.881999987,2144.0
839.882999987,2009.0
839.883999987,2021.0
839.884999987,2062.0
839.885999987,2250.0
839.886999987,2321.0
839.887999987,2325.0
839.888999987,2279.0
839.889999987,2162.0
839.890999987,2027.0
839.891999987,1994.0
839.892999987,2093.0
839.893999987,2277.0
839.894999987,2340.0
839.895999987,2308.0
839.896999987,2253.0
839.897999987,2157.0
839.898999987,2061.0
839.899999987,2033.0
839.900999987,2130.0
839.901999987,2376.0
839.902999987,2393.0
839.903999987,2336.0
839.904999987,2204.0
839.905999987,2142.0
839.906999987,2045.0
839.907999987,2019.0
839.908999987,2131.0
839.909999987,2301.0
839.910999987,2271.0
839.911999987,2104.0
839.912999987,1904.0
839.913999987,1737.0
839.914999987,1592.0
839.915999987,1596.0
839.916999987,1923.0
839.917999987,2306.0
839.918999987,2547.0
839.919999987,2684.0
839.920999987,2718.0
839.921999987,2775.0
839.922999987,2752.0
839.923999987,2801.0
839.924999987,2978.0
839.925999987,3141.0
839.926999987,3009.0
839.927999987,2833.0
839.928999987,2654.0
839.929999987,2517.0
839.930999987,2335.0
839.931999987,2286.0
839.932999987,2415.0
839.933999987,2451.0
839.934999987,2285.0
839.935999987,2026.0
839.936999987,1888.0
839.937999987,1792.0
839.938999987,1679.0
839.939999987,1696.0
839.940999987,1948.0
839.941999987,2047.0
839.942999987,1954.0
839.943999987,1769.0
839.944999987,1743.0
839.945999987,1761.0
839.946999987,1658.0
839.947999987,1740.0
839.948999987,1962.0
839.949999987,2064.0
839.950999987,1919.0
839.951999987,1783.0
839.952999987,1752.0
839.953999987,1769.0
839.954999987,1688.0
839.955999987,1839.0
839.956999987,2034.0
839.957999987,2094.0
839.958999987,1923.0
839.959999987,1802.0
839.960999987,1752.0
839.961999987,1759.0
839.962999987,1728.0
839.963999987,1904.0
839.964999987,2095.0
839.965999987,2067.0
839.966999987,1938.0
839.967999987,1823.0
839.968999987,1801.0
839.969999987,1760.0
839.970999987,1762.0
839.971999987,1980.0
839.972999987,2113.0
839.973999987,2068.0
839.974999987,1889.0
839.975999987,1812.0
839.976999987,1806.0
839.977999987,1752.0
839.978999987,1768.0
839.979999987,1972.0
839.980999987,2077.0
839.981999987,2023.0
839.982999987,1832.0
839.983999987,1736.0
839.984999987,1752.0
839.985999987,1722.0
839.986999987,1789.0
839.987999987,1974.0
839.988999987,2052.0
839.989999987,1990.0
839.990999987,1795.0
839.991999987,1715.0
839.992999987,1742.0
839.993999987,1738.0
839.994999987,1845.0
839.995999987,1996.0
839.996999987,2060.0
839.997999987,1982.0
839.998999987,1792.0
839.999999987,1730.0
840.000999987,1732.0
840.001999987,1792.0
840.002999987,1912.0
840.003999987,2055.0
840.004999987,2054.0
840.005999987,2028.0
840.006999987,1856.0
840.007999987,1831.0
840.008999987,1839.0
840.009999987,1928.0
840.010999987,2114.0
840.011999987,2204.0
840.012999987,2193.0
840.013999987,2111.0
840.014999987,2000.0
840.015999987,1997.0
840.016999987,2004.0
840.017999987,2096.0
840.018999987,2285.0
840.019999987,2382.0
840.020999987,2334.0
840.021999987,2227.0
840.022999987,2106.0
840.023999987,2089.0
840.024999987,2122.0
840.025999987,2235.0
840.026999987,2394.0
840.027999987,2430.0
840.028999987,2389.0
840.029999987,2256.0
840.030999987,2116.0
840.031999987,2144.0
840.032999987,2157.0
840.033999987,2360.0
840.034999987,2442.0
840.035999987,2433.0
840.036999987,2373.0
840.037999987,2258.0
840.038999987,2132.0
840.039999987,2099.0
840.040999987,2172.0
840.041999987,2350.0
840.042999987,2419.0
840.043999987,2368.0
840.044999987,2309.0
840.045999987,2206.0
840.046999987,2108.0
840.047999987,2054.0
840.048999987,2137.0
840.049999987,2346.0
840.050999987,2381.0
840.051999987,2321.0
840.052999987,2190.0
840.053999987,2142.0
840.054999987,2059.0
840.055999987,2043.0
840.056999987,2152.0
840.057999987,2355.0
840.058999987,2352.0
840.059999987,2292.0
840.060999987,2163.0
840.061999987,2128.0
840.062999987,2050.0
840.063999987,2017.0
840.064999987,2175.0
840.065999987,2361.0
840.066999987,2342.0
840.067999987,2262.0
840.068999987,2132.0
840.069999987,2082.0
840.070999987,2029.0
840.071999987,2019.0
840.072999987,2197.0
840.073999987,2341.0
840.074999987,2306.0
840.075999987,2215.0
840.076999987,2110.0
840.077999987,2084.0
840.078999987,1980.0
840.079999987,2033.0
840.080999987,2225.0
840.081999987,2363.0
840.082999987,2273.0
840.083999987,2141.0
840.084999987,2079.0
840.085999987,2030.0
840.086999987,1957.0
840.087999987,1996.0
840.088999987,2221.0
840.089999987,2334.0
840.090999987,2264.0
840.091999987,2069.0
840.092999987,2051.0
840.093999987,2037.0
840.094999987,1951.0
840.095999987,2025.0
840.096999987,2234.0
840.097999987,2327.0
840.098999987,2221.0
840.099999987,2053.0
840.100999987,2023.0
840.101999987,2037.0
840.102999987,1961.0
840.103999987,2079.0
840.104999987,2281.0
840.105999987,2333.0
840.106999987,2191.0
840.107999987,2044.0
840.108999987,2014.0
840.109999987,2036.0
840.110999987,1985.0
840.111999987,2144.0
840.112999987,2289.0
840.113999987,2302.0
840.114999987,2188.0
840.115999987,2028.0
840.116999987,2011.0
840.117999987,2005.0
840.118999987,1964.0
840.119999987,2183.0
840.120999987,2311.0
840.121999987,2269.0
840.122999987,2123.0
840.123999987,1979.0
840.124999987,2007.0
840.125999987,1998.0
840.126999987,2017.0
840.127999987,2205.0
840.128999987,2307.0
840.129999987,2253.0
840.130999987,2054.0
840.131999987,1961.0
840.132999987,2003.0
840.133999987,1994.0
840.134999987,2043.0
840.135999987,2244.0
840.136999987,2306.0
840.137999987,2240.0
840.138999987,2054.0
840.139999987,1940.0
840.140999987,1974.0
840.141999987,2016.0
840.142999987,2083.0
840.143999987,2215.0
840.144999987,2284.0
840.145999987,2213.0
840.146999987,2026.0
840.147999987,1911.0
840.148999987,1976.0
840.149999987,1994.0
840.150999987,2101.0
840.151999987,2214.0
840.152999987,2223.0
840.153999987,2170.0
840.154999987,1979.0
840.155999987,1906.0
840.156999987,1943.0
840.157999987,2017.0
840.158999987,2169.0
840.159999987,2255.0
840.160999987,2217.0
840.161999987,2115.0
840.162999987,1997.0
840.163999987,1929.0
840.164999987,1951.0
840.165999987,2036.0
840.166999987,2217.0
840.167999987,2292.0
840.168999987,2239.0
840.169999987,2114.0
840.170999987,1994.0
840.171999987,1959.0
840.172999987,1981.0
840.173999987,2122.0
840.174999987,2273.0
840.175999987,2312.0
840.176999987,2269.0
840.177999987,2134.0
840.178999987,2012.0
840.179999987,1970.0
840.180999987,2029.0
840.181999987,2217.0
840.182999987,2312.0
840.183999987,2339.0
840.184999987,2247.0
840.185999987,2150.0
840.186999987,2010.0
840.187999987,1968.0
840.188999987,2059.0
840.189999987,2263.0
840.190999987,2324.0
840.191999987,2277.0
840.192999987,2219.0
840.193999987,2109.0
840.194999987,1998.0
840.195999987,1947.0
840.196999987,2050.0
840.197999987,2264.0
840.198999987,2290.0
840.199999987,2213.0
840.200999987,2056.0
840.201999987,1963.0
840.202999987,1793.0
840.203999987,1675.0
840.204999987,1676.0
840.205999987,1842.0
840.206999987,1858.0
840.207999987,1894.0
840.208999987,1944.0
840.209999987,2111.0
840.210999987,2253.0
840.211999987,2404.0
840.212999987,2684.0
840.213999987,2950.0
840.214999987,2973.0
840.215999987,2885.0
840.216999987,2774.0
840.217999987,2683.0
840.218999987,2530.0
840.219999987,2434.0
840.220999987,2559.0
840.221999987,2679.0
840.222999987,2611.0
840.223999987,2408.0
840.224999987,2227.0
840.225999987,2131.0
840.226999987,1984.0
840.227999987,1915.0
840.228999987,2056.0
840.229999987,2173.0
840.230999987,2070.0
840.231999987,1923.0
840.232999987,1887.0
840.233999987,1806.0
840.234999987,1740.0
840.235999987,1770.0
840.236999987,2016.0
840.237999987,2144.0
840.238999987,2073.0
840.239999987,1879.0
840.240999987,1823.0
840.241999987,1820.0
840.242999987,1742.0
840.243999987,1797.0
840.244999987,2059.0
840.245999987,2167.0
840.246999987,2060.0
840.247999987,1894.0
840.248999987,1860.0
840.249999987,1882.0
840.250999987,1811.0
840.251999987,1912.0
840.252999987,2121.0
