840.533999987,2143.0
840.534999987,2120.0
840.535999987,1930.0
840.536999987,1848.0
840.537999987,1870.0
840.538999987,1793.0
840.539999987,1826.0
840.540999987,2050.0
840.541999987,2154.0
840.542999987,2071.0
840.543999987,1877.0
840.544999987,1837.0
840.545999987,1831.0
840.546999987,1776.0
840.547999987,1843.0
840.548999987,2056.0
840.549999987,2132.0
840.550999987,2028.0
840.551999987,1858.0
840.552999987,1789.0
840.553999987,1821.0
840.554999987,1765.0
840.555999987,1852.0
840.556999987,2050.0
840.557999987,2087.0
840.558999987,1995.0
840.559999987,1825.0
840.560999987,1774.0
840.561999987,1790.0
840.562999987,1809.0
840.563999987,1923.0
840.564999987,2081.0
840.565999987,2079.0
840.566999987,2016.0
840.567999987,1867.0
840.568999987,1835.0
840.569999987,1840.0
840.570999987,1902.0
840.571999987,2071.0
840.572999987,2203.0
840.573999987,2185.0
840.574999987,2081.0
840.575999987,1961.0
840.576999987,1972.0
840.577999987,1976.0
840.578999987,2057.0
840.579999987,2260.0
840.580999987,2351.0
840.581999987,2314.0
840.582999987,2190.0
840.583999987,2073.0
840.584999987,2094.0
840.585999987,2104.0
840.586999987,2205.0
840.587999987,2365.0
840.588999987,2432.0
840.589999987,2392.0
840.590999987,2254.0
840.591999987,2146.0
840.592999987,2184.0
840.593999987,2182.0
840.594999987,2316.0
840.595999987,2422.0
840.596999987,2452.0
840.597999987,2400.0
840.598999987,2253.0
840.599999987,2144.0
840.600999987,2123.0
840.601999987,2199.0
840.602999987,2394.0
840.603999987,2425.0
840.604999987,2387.0
840.605999987,2342.0
840.606999987,2182.0
840.607999987,2089.0
840.608999987,2073.0
840.609999987,2156.0
840.610999987,2358.0
840.611999987,2393.0
840.612999987,2343.0
840.613999987,2243.0
840.614999987,2166.0
840.615999987,2090.0
840.616999987,2046.0
840.617999987,2139.0
840.618999987,2349.0
840.619999987,2358.0
840.620999987,2312.0
840.621999987,2194.0
840.622999987,2112.0
840.623999987,2037.0
840.624999987,2012.0
840.625999987,2203.0
840.626999987,2339.0
840.627999987,2333.0
840.628999987,2264.0
840.629999987,2163.0
840.630999987,2075.0
840.631999987,2008.0
840.632999987,2018.0
840.633999987,2197.0
840.634999987,2333.0
840.635999987,2295.0
840.636999987,2246.0
840.637999987,2104.0
840.638999987,2019.0
840.639999987,1936.0
840.640999987,2012.0
840.641999987,2217.0
840.642999987,2342.0
840.643999987,2265.0
840.644999987,2152.0
840.645999987,2072.0
840.646999987,2031.0
840.647999987,1956.0
840.648999987,2012.0
840.649999987,2236.0
840.650999987,2318.0
840.651999987,2233.0
840.652999987,2069.0
840.653999987,2071.0
840.654999987,2008.0
840.655999987,1943.0
840.656999987,2026.0
840.657999987,2252.0
840.658999987,2326.0
840.659999987,2237.0
840.660999987,2091.0
840.661999987,2040.0
840.662999987,1999.0
840.663999987,1944.0
840.664999987,2083.0
840.665999987,2286.0
840.666999987,2333.0
840.667999987,2188.0
840.668999987,2063.0
840.669999987,2010.0
840.670999987,2013.0
840.671999987,1946.0
840.672999987,2137.0
840.673999987,2297.0
840.674999987,2307.0
840.675999987,2170.0
840.676999987,2067.0
840.677999987,2002.0
840.678999987,1986.0
840.679999987,1981.0
840.680999987,2159.0
840.681999987,2296.0
840.682999987,2254.0
840.683999987,2095.0
840.684999987,2010.0
840.685999987,2015.0
840.686999987,1977.0
840.687999987,1970.0
840.688999987,2166.0
840.689999987,2278.0
840.690999987,2222.0
840.691999987,2036.0
840.692999987,1966.0
840.693999987,1961.0
840.694999987,1937.0
840.695999987,2011.0
840.696999987,2169.0
840.697999987,2239.0
840.698999987,2192.0
840.699999987,2009.0
840.700999987,1936.0
840.701999987,1974.0
840.702999987,1987.0
840.703999987,2047.0
840.704999987,2211.0
840.705999987,2278.0
840.706999987,2213.0
840.707999987,1999.0
840.708999987,1941.0
840.709999987,1971.0
840.710999987,2017.0
840.711999987,2104.0
840.712999987,2252.0
840.713999987,2262.0
840.714999987,2204.0
840.715999987,2011.0
840.716999987,1945.0
840.717999987,1962.0
840.718999987,2028.0
840.719999987,2153.0
840.720999987,2274.0
840.721999987,2242.0
840.722999987,2140.0
840.723999987,1977.0
840.724999987,1965.0
840.725999987,1973.0
840.726999987,2058.0
840.727999987,2226.0
840.728999987,2298.0
840.729999987,2250.0
840.730999987,2102.0
840.731999987,1969.0
840.732999987,1975.0
840.733999987,1986.0
840.734999987,2087.0
840.735999987,2230.0
840.736999987,2293.0
840.737999987,2235.0
840.738999987,2108.0
840.739999987,1958.0
840.740999987,1983.0
840.741999987,1982.0
840.742999987,2126.0
840.743999987,2202.0
840.744999987,2206.0
840.745999987,2092.0
840.746999987,1861.0
840.747999987,1651.0
840.748999987,1530.0
840.749999987,1544.0
840.750999987,1790.0
840.751999987,1992.0
840.752999987,2168.0
840.753999987,2358.0
840.754999987,2482.0
840.755999987,2515.0
840.756999987,2613.0
840.757999987,2742.0
840.758999987,2971.0
840.759999987,3028.0
840.760999987,2971.0
840.761999987,2786.0
840.762999987,2638.0
840.763999987,2459.0
840.764999987,2346.0
840.765999987,2363.0
840.766999987,2522.0
840.767999987,2468.0
840.768999987,2332.0
840.769999987,2136.0
840.770999987,1982.0
840.771999987,1819.0
840.772999987,1750.0
840.773999987,1884.0
840.774999987,2030.0
840.775999987,2018.0
840.776999987,1946.0
840.777999987,1827.0
840.778999987,1802.0
840.779999987,1716.0
840.780999987,1718.0
840.781999987,1912.0
840.782999987,2070.0
840.783999987,2047.0
840.784999987,1969.0
840.785999987,1861.0
840.786999987,1800.0
840.787999987,1725.0
840.788999987,1777.0
840.789999987,1997.0
840.790999987,2130.0
840.791999987,2056.0
840.792999987,1965.0
840.793999987,1876.0
840.794999987,1841.0
840.795999987,1751.0
840.796999987,1804.0
840.797999987,2048.0
840.798999987,2162.0
840.799999987,2070.0
840.800999987,1910.0
840.801999987,1900.0
840.802999987,1849.0
840.803999987,1761.0
840.804999987,1820.0
840.805999987,2075.0
840.806999987,2175.0
840.807999987,2077.0
840.808999987,1900.0
840.809999987,1858.0
840.810999987,1855.0
840.811999987,1773.0
840.812999987,1886.0
840.813999987,2083.0
840.814999987,2161.0
840.815999987,2016.0
840.816999987,1878.0
840.817999987,1826.0
840.818999987,1838.0
840.819999987,1771.0
840.820999987,1933.0
840.821999987,2108.0
840.822999987,2128.0
840.823999987,1970.0
840.824999987,1870.0
840.825999987,1803.0
840.826999987,1793.0
840.827999987,1778.0
840.828999987,1955.0
840.829999987,2096.0
840.830999987,2089.0
840.831999987,1932.0
840.832999987,1834.0
840.833999987,1846.0
840.834999987,1801.0
840.835999987,1809.0
840.836999987,2027.0
840.837999987,2164.0
840.838999987,2123.0
840.839999987,1948.0
840.840999987,1894.0
840.841999987,1905.0
840.842999987,1910.0
840.843999987,1961.0
840.844999987,2182.0
840.845999987,2303.0
840.846999987,2235.0
840.847999987,2083.0
840.848999987,2004.0
840.849999987,2044.0
840.850999987,2051.0
840.851999987,2154.0
840.852999987,2339.0
840.853999987,2423.0
840.854999987,2369.0
840.855999987,2183.0
840.856999987,2107.0
840.857999987,2149.0
840.858999987,2172.0
840.859999987,2278.0
840.860999987,2428.0
840.861999987,2459.0
840.862999987,2420.0
840.863999987,2221.0
840.864999987,2162.0
840.865999987,2167.0
840.866999987,2242.0
840.867999987,2354.0
840.868999987,2466.0
840.869999987,2446.0
840.870999987,2366.0
840.871999987,2195.0
840.872999987,2148.0
840.873999987,2140.0
840.874999987,2211.0
840.875999987,2380.0
840.876999987,2425.0
840.877999987,2374.0
840.878999987,2248.0
840.879999987,2135.0
840.880999987,2129.0
840.881999987,2118.0
840.882999987,2228.0
840.883999987,2376.0
840.884999987,2407.0
840.885999987,2362.0
840.886999987,2233.0
840.887999987,2081.0
840.888999987,2106.0
840.889999987,2086.0
840.890999987,2223.0
840.891999987,2355.0
840.892999987,2370.0
840.893999987,2314.0
840.894999987,2184.0
840.895999987,2064.0
840.896999987,2056.0
840.897999987,2087.0
840.898999987,2286.0
840.899999987,2347.0
840.900999987,2310.0
840.901999987,2278.0
840.902999987,2148.0
840.903999987,2018.0
840.904999987,2008.0
840.905999987,2063.0
840.906999987,2271.0
840.907999987,2334.0
840.908999987,2265.0
840.909999987,2160.0
840.910999987,2081.0
840.911999987,2000.0
840.912999987,1960.0
840.913999987,2045.0
840.914999987,2276.0
840.915999987,2293.0
840.916999987,2240.0
840.917999987,2096.0
840.918999987,2082.0
840.919999987,1981.0
840.920999987,1948.0
840.921999987,2097.0
840.922999987,2272.0
840.923999987,2280.0
840.924999987,2205.0
840.925999987,2093.0
840.926999987,2065.0
840.927999987,1977.0
840.928999987,1968.0
840.929999987,2123.0
840.930999987,2310.0
840.931999987,2284.0
840.932999987,2200.0
840.933999987,2072.0
840.934999987,2031.0
840.935999987,1953.0
840.936999987,1981.0
840.937999987,2164.0
840.938999987,2316.0
840.939999987,2251.0
840.940999987,2163.0
840.941999987,2050.0
840.942999987,2022.0
840.943999987,1942.0
840.944999987,1979.0
840.945999987,2208.0
840.946999987,2326.0
840.947999987,2258.0
840.948999987,2098.0
840.949999987,2057.0
840.950999987,2018.0
840.951999987,1942.0
840.952999987,1989.0
840.953999987,2231.0
840.954999987,2323.0
840.955999987,2246.0
840.956999987,2073.0
840.957999987,2029.0
840.958999987,2002.0
840.959999987,1939.0
840.960999987,2029.0
840.961999987,2233.0
840.962999987,2310.0
840.963999987,2169.0
840.964999987,1985.0
840.965999987,1943.0
840.966999987,1953.0
840.967999987,1904.0
840.968999987,2040.0
840.969999987,2254.0
840.970999987,2284.0
840.971999987,2138.0
840.972999987,2000.0
840.973999987,1936.0
840.974999987,1955.0
840.975999987,1936.0
840.976999987,2102.0
840.977999987,2254.0
840.978999987,2230.0
840.979999987,2110.0
840.980999987,1964.0
840.981999987,1977.0
840.982999987,1967.0
840.983999987,1979.0
840.984999987,2173.0
840.985999987,2298.0
840.986999987,2245.0
840.987999987,2067.0
840.988999987,1950.0
840.989999987,1984.0
840.990999987,1959.0
840.991999987,1993.0
840.992999987,2188.0
840.993999987,2299.0
840.994999987,2232.0
840.995999987,2048.0
840.996999987,1927.0
840.997999987,1971.0
840.998999987,1986.0
840.999999987,2039.0
841.000999987,2221.0
841.001999987,2291.0
841.002999987,2260.0
841.003999987,2015.0
841.004999987,1907.0
841.005999987,1958.0
841.006999987,1986.0
841.007999987,2063.0
841.008999987,2214.0
841.009999987,2243.0
841.010999987,2165.0
841.011999987,1955.0
841.012999987,1858.0
841.013999987,1900.0
841.014999987,1959.0
841.015999987,2047.0
841.016999987,2101.0
841.017999987,2004.0
841.018999987,1826.0
841.019999987,1563.0
841.020999987,1459.0
841.021999987,1543.0
841.022999987,1820.0
841.023999987,2211.0
841.024999987,2543.0
841.025999987,2724.0
841.026999987,2751.0
841.027999987,2741.0
841.028999987,2741.0
841.029999987,2787.0
841.030999987,2869.0
841.031999987,3020.0
841.032999987,2981.0
841.033999987,2855.0
841.034999987,2657.0
841.035999987,2437.0
841.036999987,2297.0
841.037999987,2216.0
841.038999987,2288.0
841.039999987,2335.0
841.040999987,2253.0
841.041999987,2105.0
841.042999987,1881.0
841.043999987,1705.0
841.044999987,1655.0
841.045999987,1709.0
841.046999987,1903.0
841.047999987,1991.0
841.048999987,1976.0
841.049999987,1924.0
841.050999987,1798.0
841.051999987,1690.0
841.052999987,1649.0
841.053999987,1753.0
841.054999987,1972.0
841.055999987,2048.0
841.056999987,1990.0
841.057999987,1915.0
841.058999987,1823.0
841.059999987,1723.0
841.060999987,1681.0
841.061999987,1781.0
841.062999987,2022.0
841.063999987,2075.0
841.064999987,2000.0
841.065999987,1876.0
841.066999987,1847.0
841.067999987,1769.0
841.068999987,1736.0
841.069999987,1892.0
841.070999987,2083.0
841.071999987,2085.0
841.072999987,2003.0
841.073999987,1890.0
841.074999987,1861.0
841.075999987,1777.0
841.076999987,1751.0
841.077999987,1921.0
841.078999987,2084.0
841.079999987,2073.0
841.080999987,1980.0
841.081999987,1845.0
841.082999987,1789.0
841.083999987,1715.0
841.084999987,1714.0
841.085999987,1917.0
841.086999987,2075.0
841.087999987,2029.0
841.088999987,1919.0
841.089999987,1806.0
841.090999987,1776.0
841.091999987,1673.0
841.092999987,1729.0
841.093999987,1958.0
841.094999987,2095.0
841.095999987,2011.0
841.096999987,1841.0
841.097999987,1790.0
841.098999987,1759.0
841.099999987,1705.0
841.100999987,1757.0
841.101999987,1995.0
841.102999987,2099.0
841.103999987,2028.0
841.104999987,1850.0
841.105999987,1803.0
841.106999987,1809.0
841.107999987,1751.0
841.108999987,1855.0
841.109999987,2090.0
841.110999987,2194.0
841.111999987,2078.0
841.112999987,1949.0
841.113999987,1917.0
841.114999987,1949.0
841.115999987,1913.0
841.116999987,2046.0
841.117999987,2252.0
841.118999987,2341.0
841.119999987,2229.0
841.120999987,2121.0
841.121999987,2071.0
841.122999987,2109.0
841.123999987,2093.0
841.124999987,2242.0
841.125999987,2420.0
841.126999987,2438.0
841.127999987,2327.0
841.128999987,2196.0
841.129999987,2189.0
841.130999987,2187.0
841.131999987,2209.0
841.132999987,2383.0
841.133999987,2542.0
841.134999987,2504.0
841.135999987,2357.0
841.136999987,2258.0
841.137999987,2260.0
841.138999987,2247.0
841.139999987,2267.0
841.140999987,2454.0
841.141999987,2575.0
841.142999987,2527.0
841.143999987,2344.0
841.144999987,2250.0
841.145999987,2259.0
841.146999987,2257.0
841.147999987,2313.0
841.148999987,2470.0
841.149999987,2564.0
841.150999987,2492.0
841.151999987,2340.0
841.152999987,2222.0
841.153999987,2243.0
841.154999987,2266.0
841.155999987,2367.0
841.156999987,2491.0
841.157999987,2557.0
841.158999987,2492.0
841.159999987,2303.0
841.160999987,2223.0
841.161999987,2214.0
841.162999987,2272.0
841.163999987,2384.0
841.164999987,2466.0
841.165999987,2467.0
841.166999987,2405.0
841.167999987,2223.0
841.168999987,2171.0
841.169999987,2159.0
841.170999987,2224.0
841.171999987,2395.0
841.172999987,2429.0
841.173999987,2400.0
841.174999987,2307.0
841.175999987,2186.0
841.176999987,2125.0
841.177999987,2107.0
841.178999987,2187.0
841.179999987,2377.0
841.180999987,2396.0
841.181999987,2358.0
841.182999987,2241.0
841.183999987,2115.0
841.184999987,2101.0
841.185999987,2078.0
841.186999987,2224.0
841.187999987,2374.0
841.188999987,2392.0
841.189999987,2341.0
841.190999987,2230.0
841.191999987,2112.0
841.192999987,2098.0
841.193999987,2095.0
841.194999987,2303.0
841.195999987,2384.0
841.196999987,2378.0
841.197999987,2315.0
841.198999987,2206.0
841.199999987,2083.0
841.200999987,2030.0
841.201999987,2105.0
841.202999987,2288.0
841.203999987,2373.0
841.204999987,2325.0
841.205999987,2251.0
841.206999987,2157.0
841.207999987,2073.0
841.208999987,2027.0
841.209999987,2104.0
841.210999987,2333.0
841.211999987,2378.0
841.212999987,2328.0
841.213999987,2197.0
841.214999987,2146.0
841.215999987,2070.0
841.216999987,2023.0
841.217999987,2105.0
841.218999987,2350.0
841.219999987,2380.0
841.220999987,2296.0
841.221999987,2160.0
841.222999987,2140.0
841.223999987,2081.0
841.224999987,2043.0
841.225999987,2153.0
841.226999987,2330.0
841.227999987,2321.0
841.228999987,2248.0
841.229999987,2112.0
841.230999987,2054.0
841.231999987,2008.0
841.232999987,1989.0
841.233999987,2158.0
841.234999987,2310.0
841.235999987,2279.0
841.236999987,2138.0
841.237999987,2015.0
841.238999987,1976.0
841.239999987,1906.0
841.240999987,1956.0
841.241999987,2155.0
841.242999987,2292.0
841.243999987,2225.0
841.244999987,2091.0
841.245999987,2024.0
841.246999987,1994.0
841.247999987,1951.0
841.248999987,1970.0
841.249999987,2196.0
841.250999987,2319.0
841.251999987,2239.0
841.252999987,2029.0
841.253999987,1994.0
841.254999987,1977.0
841.255999987,1930.0
841.256999987,1983.0
841.257999987,2190.0
841.258999987,2273.0
841.259999987,2171.0
841.260999987,2004.0
841.261999987,1964.0
841.262999987,2002.0
841.263999987,1947.0
841.264999987,2043.0
841.265999987,2222.0
841.266999987,2290.0
841.267999987,2150.0
841.268999987,1962.0
841.269999987,1917.0
841.270999987,1942.0
841.271999987,1903.0
841.272999987,2034.0
841.273999987,2176.0
841.274999987,2187.0
841.275999987,2078.0
841.276999987,1891.0
841.277999987,1894.0
841.278999987,1901.0
841.279999987,1922.0
841.280999987,2069.0
841.281999987,2187.0
841.282999987,2134.0
841.283999987,2007.0
841.284999987,1816.0
841.285999987,1794.0
841.286999987,1750.0
841.287999987,1707.0
841.288999987,1787.0
841.289999987,1795.0
841.290999987,1694.0
841.291999987,1522.0
841.292999987,1512.0
841.293999987,1737.0
841.294999987,1966.0
841.295999987,2283.0
841.296999987,2614.0
841.297999987,2848.0
841.298999987,2838.0
841.299999987,2677.0
841.300999987,2532.0
841.301999987,2582.0
841.302999987,2559.0
841.303999987,2583.0
841.304999987,2635.0
841.305999987,2614.0
841.306999987,2480.0
841.307999987,2235.0
841.308999987,2045.0
841.309999987,2007.0
841.310999987,1988.0
841.311999987,2029.0
841.312999987,2045.0
841.313999987,1978.0
841.314999987,1889.0
841.315999987,1677.0
841.316999987,1572.0
841.317999987,1593.0
841.318999987,1688.0
841.319999987,1874.0
841.320999987,1930.0
841.321999987,1886.0
841.322999987,1801.0
841.323999987,1690.0
841.324999987,1611.0
841.325999987,1632.0
841.326999987,1743.0
841.327999987,1945.0
841.328999987,1992.0
841.329999987,1950.0
841.330999987,1831.0
841.331999987,1734.0
841.332999987,1681.0
841.333999987,1675.0
841.334999987,1824.0
841.335999987,1987.0
841.336999987,2007.0
841.337999987,1947.0
841.338999987,1812.0
841.339999987,1716.0
841.340999987,1672.0
841.341999987,1689.0
841.342999987,1917.0
841.343999987,2030.0
841.344999987,2017.0
841.345999987,1911.0
841.346999987,1798.0
841.347999987,1693.0
841.348999987,1633.0
841.349999987,1693.0
841.350999987,1903.0
841.351999987,2020.0
841.352999987,1970.0
841.353999987,1909.0
841.354999987,1856.0
841.355999987,1755.0
841.356999987,1699.0
841.357999987,1773.0
841.358999987,2020.0
841.359999987,2075.0
841.360999987,1994.0
841.361999987,1874.0
841.362999987,1834.0
841.363999987,1767.0
841.364999987,1726.0
841.365999987,1788.0
841.366999987,2058.0
841.367999987,2124.0
841.368999987,2040.0
841.369999987,1884.0
841.370999987,1877.0
841.371999987,1803.0
841.372999987,1771.0
841.373999987,1905.0
841.374999987,2142.0
841.375999987,2174.0
841.376999987,2085.0
841.377999987,1966.0
841.378999987,1942.0
841.379999987,1905.0
841.380999987,1864.0
841.381999987,2071.0
841.382999987,2283.0
841.383999987,2297.0
841.384999987,2165.0
841.385999987,2057.0
841.386999987,2042.0
841.387999987,2009.0
841.388999987,2024.0
841.389999987,2224.0
841.390999987,2388.0
841.391999987,2363.0
841.392999987,2222.0
841.393999987,2173.0
841.394999987,2140.0
841.395999987,2087.0
841.396999987,2136.0
841.397999987,2369.0
841.398999987,2502.0
841.399999987,2432.0
841.400999987,2235.0
841.401999987,2189.0
841.402999987,2184.0
841.403999987,2169.0
841.404999987,2210.0
841.405999987,2434.0
841.406999987,2531.0
841.407999987,2440.0
841.408999987,2258.0
841.409999987,2196.0
841.410999987,2209.0
841.411999987,2153.0
841.412999987,2245.0
841.413999987,2427.0
841.414999987,2512.0
841.415999987,2356.0
841.416999987,2221.0
841.417999987,2126.0
841.418999987,2172.0
841.419999987,2107.0
841.420999987,2228.0
841.421999987,2383.0
841.422999987,2410.0
841.423999987,2316.0
841.424999987,2142.0
841.425999987,2100.0
841.426999987,2091.0
841.427999987,2135.0
841.428999987,2266.0
841.429999987,2402.0
841.430999987,2375.0
841.431999987,2274.0
841.432999987,2108.0
841.433999987,2075.0
841.434999987,2074.0
841.435999987,2139.0
841.436999987,2293.0
841.437999987,2381.0
841.438999987,2343.0
841.439999987,2179.0
841.440999987,2060.0
841.441999987,2054.0
841.442999987,2047.0
841.443999987,2128.0
841.444999987,2295.0
841.445999987,2358.0
841.446999987,2304.0
841.447999987,2164.0
841.448999987,2032.0
841.449999987,2048.0
841.450999987,2045.0
841.451999987,2166.0
841.452999987,2296.0
841.453999987,2350.0
841.454999987,2292.0
841.455999987,2146.0
841.456999987,2020.0
841.457999987,2034.0
841.458999987,2073.0
841.459999987,2219.0
841.460999987,2310.0
841.461999987,2320.0
841.462999987,2269.0
841.463999987,2098.0
841.464999987,1988.0
841.465999987,1966.0
841.466999987,2051.0
841.467999987,2233.0
841.468999987,2290.0
841.469999987,2265.0
841.470999987,2187.0
841.471999987,2092.0
841.472999987,1999.0
841.473999987,1976.0
841.474999987,2072.0
841.475999987,2290.0
841.476999987,2317.0
841.477999987,2260.0
841.478999987,2135.0
841.479999987,2067.0
841.480999987,2006.0
841.481999987,1987.0
841.482999987,2115.0
841.483999987,2295.0
841.484999987,2305.0
841.485999987,2246.0
841.486999987,2110.0
841.487999987,2061.0
841.488999987,2007.0
841.489999987,1995.0
841.490999987,2186.0
841.491999987,2328.0
841.492999987,2311.0
841.493999987,2232.0
841.494999987,2126.0
841.495999987,2035.0
841.496999987,1974.0
841.497999987,2009.0
841.498999987,2203.0
841.499999987,2330.0
841.500999987,2275.0
841.501999987,2201.0
841.502999987,2091.0
841.503999987,2047.0
841.504999987,1963.0
841.505999987,2028.0
841.506999987,2243.0
841.507999987,2351.0
841.508999987,2279.0
841.509999987,2137.0
841.510999987,2084.0
841.511999987,2037.0
841.512999987,1960.0
841.513999987,2049.0
841.514999987,2285.0
841.515999987,2370.0
841.516999987,2288.0
841.517999987,2122.0
841.518999987,2098.0
841.519999987,2097.0
841.520999987,2031.0
841.521999987,2143.0
841.522999987,2344.0
841.523999987,2400.0
841.524999987,2281.0
841.525999987,2139.0
841.526999987,2083.0
841.527999987,2092.0
841.528999987,2046.0
841.529999987,2195.0
841.530999987,2377.0
841.531999987,2404.0
841.532999987,2271.0
841.533999987,2129.0
841.534999987,2087.0
841.535999987,2078.0
841.536999987,2055.0
841.537999987,2225.0
841.538999987,2379.0
841.539999987,2364.0
841.540999987,2239.0
841.541999987,2104.0
841.542999987,2094.0
841.543999987,2053.0
841.544999987,2053.0
841.545999987,2249.0
841.546999987,2358.0
841.547999987,2283.0
841.548999987,2066.0
841.549999987,1955.0
841.550999987,1900.0
841.551999987,1803.0
841.552999987,1730.0
841.553999987,1848.0
841.554999987,1886.0
841.555999987,1850.0
841.556999987,1783.0
841.557999987,1907.0
841.558999987,2171.0
841.559999987,2380.0
841.560999987,2621.0
841.561999987,2910.0
841.562999987,3020.0
841.563999987,2959.0
841.564999987,2772.0
841.565999987,2690.0
841.566999987,2668.0
841.567999987,2576.0
841.568999987,2599.0
841.569999987,2701.0
841.570999987,2692.0
841.571999987,2574.0
841.572999987,2305.0
841.573999987,2198.0
841.574999987,2134.0
841.575999987,2129.0
841.576999987,2155.0
841.577999987,2225.0
841.578999987,2185.0
841.579999987,2082.0
841.580999987,1871.0
841.581999987,1837.0
841.582999987,1845.0
841.583999987,1913.0
841.584999987,2052.0
841.585999987,2156.0
841.586999987,2109.0
841.587999987,1972.0
841.588999987,1838.0
841.589999987,1848.0
841.590999987,1849.0
841.591999987,1945.0
841.592999987,2095.0
841.593999987,2180.0
841.594999987,2137.0
841.595999987,1993.0
841.596999987,1855.0
841.597999987,1853.0
841.598999987,1876.0
841.599999987,2005.0
841.600999987,2129.0
841.601999987,2188.0
841.602999987,2137.0
841.603999987,1995.0
841.604999987,1863.0
841.605999987,1867.0
841.606999987,1902.0
841.607999987,2070.0
841.608999987,2157.0
841.609999987,2167.0
841.610999987,2115.0
841.611999987,1981.0
841.612999987,1852.0
841.613999987,1834.0
841.614999987,1944.0
841.615999987,2123.0
841.616999987,2169.0
841.617999987,2135.0
841.618999987,2054.0
841.619999987,1954.0
841.620999987,1855.0
841.621999987,1806.0
841.622999987,1909.0
841.623999987,2157.0
841.624999987,2186.0
841.625999987,2148.0
841.626999987,2029.0
841.627999987,1962.0
841.628999987,1866.0
841.629999987,1834.0
841.630999987,1962.0
841.631999987,2180.0
841.632999987,2175.0
841.633999987,2099.0
841.634999987,1982.0
841.635999987,1915.0
841.636999987,1843.0
841.637999987,1840.0
841.638999987,2022.0
841.639999987,2202.0
841.640999987,2203.0
841.641999987,2126.0
841.642999987,2032.0
841.643999987,1980.0
841.644999987,1936.0
841.645999987,1963.0
841.646999987,2182.0
841.647999987,2332.0
841.648999987,2296.0
841.649999987,2222.0
841.650999987,2129.0
841.651999987,2124.0
841.652999987,2039.0
841.653999987,2107.0
841.654999987,2325.0
841.655999987,2454.0
841.656999987,2389.0
841.657999987,2280.0
841.658999987,2206.0
841.659999987,2199.0
841.660999987,2111.0
841.661999987,2162.0
841.662999987,2425.0
841.663999987,2534.0
841.664999987,2428.0
841.665999987,2260.0
841.666999987,2235.0
841.667999987,2224.0
841.668999987,2148.0
841.669999987,2236.0
841.670999987,2476.0
841.671999987,2551.0
841.672999987,2424.0
841.673999987,2268.0
841.674999987,2207.0
841.675999987,2213.0
841.676999987,2139.0
841.677999987,2271.0
841.678999987,2471.0
841.679999987,2524.0
841.680999987,2366.0
841.681999987,2219.0
841.682999987,2179.0
841.683999987,2168.0
841.684999987,2128.0
841.685999987,2330.0
841.686999987,2481.0
841.687999987,2452.0
841.688999987,2293.0
841.689999987,2152.0
841.690999987,2125.0
841.691999987,2097.0
841.692999987,2103.0
841.693999987,2302.0
841.694999987,2422.0
841.695999987,2378.0
841.696999987,2208.0
841.697999987,2115.0
841.698999987,2092.0
841.699999987,2077.0
841.700999987,2080.0
841.701999987,2280.0
841.702999987,2403.0
841.703999987,2340.0
841.704999987,2137.0
841.705999987,2062.0
841.706999987,2067.0
841.707999987,2042.0
841.708999987,2105.0
841.709999987,2287.0
841.710999987,2380.0
841.711999987,2316.0
841.712999987,2118.0
841.713999987,2040.0
841.714999987,2072.0
841.715999987,2066.0
841.716999987,2169.0
841.717999987,2303.0
841.718999987,2345.0
841.719999987,2288.0
841.720999987,2089.0
841.721999987,2027.0
841.722999987,2020.0
841.723999987,2069.0
841.724999987,2187.0
841.725999987,2311.0
841.726999987,2309.0
841.727999987,2258.0
841.728999987,2042.0
841.729999987,2002.0
841.730999987,1989.0
841.731999987,2058.0
841.732999987,2214.0
841.733999987,2302.0
841.734999987,2255.0
841.735999987,2164.0
841.736999987,2014.0
841.737999987,2001.0
841.738999987,1990.0
841.739999987,2074.0
841.740999987,2252.0
841.741999987,2307.0
841.742999987,2256.0
841.743999987,2134.0
841.744999987,1994.0
841.745999987,1995.0
841.746999987,1979.0
841.747999987,2115.0
841.748999987,2264.0
841.749999987,2288.0
841.750999987,2252.0
841.751999987,2102.0
841.752999987,1978.0
841.753999987,1995.0
841.754999987,1985.0
841.755999987,2154.0
841.756999987,2257.0
841.757999987,2260.0
841.758999987,2194.0
841.759999987,2058.0
841.760999987,1936.0
841.761999987,1930.0
841.762999987,2009.0
841.763999987,2174.0
841.764999987,2254.0
841.765999987,2227.0
841.766999987,2185.0
841.767999987,2066.0
841.768999987,1951.0
841.769999987,1927.0
841.770999987,2010.0
841.771999987,2220.0
841.772999987,2267.0
841.773999987,2210.0
841.774999987,2100.0
841.775999987,2054.0
841.776999987,1975.0
841.777999987,1950.0
841.778999987,2054.0
841.779999987,2290.0
841.780999987,2291.0
841.781999987,2228.0
841.782999987,2101.0
841.783999987,2040.0
841.784999987,1976.0
841.785999987,1963.0
841.786999987,2110.0
841.787999987,2308.0
841.788999987,2301.0
841.789999987,2217.0
841.790999987,2111.0
841.791999987,2051.0
841.792999987,1995.0
841.793999987,1987.0
841.794999987,2153.0
841.795999987,2326.0
841.796999987,2294.0
841.797999987,2199.0
841.798999987,2071.0
841.799999987,2025.0
841.800999987,1929.0
841.801999987,1986.0
841.802999987,2173.0
841.803999987,2292.0
841.804999987,2219.0
841.805999987,2083.0
841.806999987,1977.0
841.807999987,1912.0
841.808999987,1798.0
841.809999987,1755.0
841.810999987,1902.0
841.811999987,1906.0
841.812999987,1750.0
841.813999987,1554.0
841.814999987,1653.0
841.815999987,1816.0
841.816999987,1977.0
841.817999987,2302.0
841.818999987,2714.0
841.819999987,2944.0
841.820999987,2903.0
841.821999987,2737.0
841.822999987,2693.0
841.823999987,2717.0
841.824999987,2596.0
841.825999987,2623.0
841.826999987,2700.0
841.827999987,2712.0
841.828999987,2516.0
841.829999987,2282.0
841.830999987,2174.0
841.831999987,2137.0
841.832999987,1990.0
841.833999987,2064.0
841.834999987,2155.0
841.835999987,2112.0
841.836999987,1947.0
841.837999987,1743.0
841.838999987,1727.0
841.839999987,1731.0
841.840999987,1739.0
841.841999987,1910.0
841.842999987,2049.0
841.843999987,2026.0
841.844999987,1876.0
841.845999987,1739.0
841.846999987,1748.0
841.847999987,1739.0
841.848999987,1764.0
841.849999987,1957.0
841.850999987,2081.0
841.851999987,2034.0
841.852999987,1850.0
841.853999987,1756.0
841.854999987,1801.0
841.855999987,1785.0
841.856999987,1829.0
841.857999987,2036.0
841.858999987,2135.0
841.859999987,2071.0
841.860999987,1886.0
841.861999987,1767.0
841.862999987,1820.0
841.863999987,1815.0
841.864999987,1896.0
841.865999987,2060.0
841.866999987,2147.0
841.867999987,2068.0
841.868999987,1878.0
841.869999987,1780.0
841.870999987,1816.0
841.871999987,1862.0
841.872999987,1981.0
841.873999987,2099.0
841.874999987,2108.0
841.875999987,2055.0
841.876999987,1837.0
841.877999987,1746.0
841.878999987,1778.0
841.879999987,1858.0
841.880999987,2001.0
841.881999987,2100.0
841.882999987,2070.0
841.883999987,1973.0
841.884999987,1804.0
841.885999987,1738.0
841.886999987,1768.0
841.887999987,1852.0
841.888999987,2029.0
841.889999987,2101.0
841.890999987,2062.0
841.891999987,1938.0
841.892999987,1806.0
841.893999987,1754.0
841.894999987,1791.0
841.895999987,1931.0
841.896999987,2079.0
841.897999987,2127.0
841.898999987,2112.0
841.899999987,1990.0
841.900999987,1870.0
841.901999987,1876.0
841.902999987,1900.0
841.903999987,2071.0
841.904999987,2210.0
841.905999987,2257.0
841.906999987,2205.0
841.907999987,2092.0
841.908999987,1996.0
841.909999987,1959.0
841.910999987,2059.0
841.911999987,2250.0
841.912999987,2356.0
841.913999987,2339.0
841.914999987,2317.0
841.915999987,2218.0
841.916999987,2093.0
841.917999987,2053.0
841.918999987,2157.0
841.919999987,2398.0
841.920999987,2457.0
841.921999987,2396.0
841.922999987,2297.0
841.923999987,2255.0
841.924999987,2150.0
841.925999987,2107.0
841.926999987,2208.0
841.927999987,2458.0
841.928999987,2488.0
841.929999987,2374.0
841.930999987,2268.0
841.931999987,2236.0
841.932999987,2146.0
841.933999987,2105.0
841.934999987,2256.0
841.935999987,2462.0
841.936999987,2470.0
841.937999987,2366.0
841.938999987,2238.0
841.939999987,2185.0
841.940999987,2138.0
841.941999987,2092.0
841.942999987,2287.0
841.943999987,2479.0
841.944999987,2448.0
841.945999987,2318.0
841.946999987,2201.0
841.947999987,2153.0
841.948999987,2067.0
841.949999987,2082.0
841.950999987,2293.0
841.951999987,2448.0
841.952999987,2376.0
841.953999987,2243.0
841.954999987,2130.0
841.955999987,2101.0
841.956999987,2018.0
841.957999987,2060.0
841.958999987,2306.0
841.959999987,2413.0
841.960999987,2321.0
841.961999987,2139.0
841.962999987,2085.0
841.963999987,2081.0
841.964999987,2011.0
841.965999987,2054.0
841.966999987,2314.0
841.967999987,2385.0
841.968999987,2276.0
841.969999987,2090.0
841.970999987,2043.0
841.971999987,2046.0
841.972999987,1985.0
841.973999987,2082.0
841.974999987,2294.0
841.975999987,2374.0
841.976999987,2230.0
841.977999987,2075.0
841.978999987,2044.0
841.979999987,2070.0
841.980999987,1994.0
841.981999987,2121.0
841.982999987,2308.0
841.983999987,2343.0
841.984999987,2199.0
841.985999987,2046.0
841.986999987,2004.0
841.987999987,2003.0
841.988999987,2000.0
841.989999987,2158.0
841.990999987,2310.0
841.991999987,2290.0
841.992999987,2155.0
841.993999987,2027.0
841.994999987,2010.0
841.995999987,1993.0
841.996999987,2006.0
841.997999987,2176.0
841.998999987,2286.0
841.999999987,2264.0
842.000999987,2099.0
842.001999987,2003.0
842.002999987,2013.0
842.003999987,1990.0
842.004999987,2057.0
842.005999987,2221.0
842.006999987,2330.0
842.007999987,2265.0
842.008999987,2089.0
842.009999987,1974.0
842.010999987,1996.0
842.011999987,1998.0
842.012999987,2099.0
842.013999987,2214.0
842.014999987,2308.0
842.015999987,2234.0
842.016999987,2054.0
842.017999987,1959.0
842.018999987,1972.0
842.019999987,1987.0
842.020999987,2100.0
842.021999987,2211.0
842.022999987,2241.0
842.023999987,2217.0
842.024999987,2020.0
842.025999987,1939.0
842.026999987,1920.0
842.027999987,2002.0
842.028999987,2150.0
842.029999987,2235.0
842.030999987,2198.0
842.031999987,2153.0
842.032999987,1991.0
842.033999987,1972.0
842.034999987,1948.0
842.035999987,2026.0
842.036999987,2209.0
842.037999987,2273.0
842.038999987,2243.0
842.039999987,2103.0
842.040999987,2018.0
842.041999987,1984.0
842.042999987,1956.0
842.043999987,2079.0
842.044999987,2249.0
842.045999987,2257.0
842.046999987,2231.0
842.047999987,2129.0
842.048999987,2015.0
842.049999987,2003.0
842.050999987,1978.0
842.051999987,2161.0
842.052999987,2287.0
842.053999987,2298.0
842.054999987,2226.0
842.055999987,2112.0
842.056999987,1998.0
842.057999987,1959.0
842.058999987,2008.0
842.059999987,2194.0
842.060999987,2296.0
842.061999987,2256.0
842.062999987,2195.0
842.063999987,2072.0
842.064999987,1975.0
842.065999987,1909.0
842.066999987,1989.0
842.067999987,2198.0
842.068999987,2239.0
842.069999987,2149.0
842.070999987,1970.0
842.071999987,1814.0
842.072999987,1645.0
842.073999987,1501.0
842.074999987,1522.0
842.075999987,1852.0
842.076999987,2069.0
842.077999987,2205.0
842.078999987,2305.0
842.079999987,2492.0
842.080999987,2595.0
842.081999987,2656.0
842.082999987,2798.0
842.083999987,3022.0
842.084999987,3047.0
842.085999987,2937.0
842.086999987,2737.0
842.087999987,2593.0
842.088999987,2464.0
842.089999987,2342.0
842.090999987,2426.0
842.091999987,2542.0
842.092999987,2454.0
842.093999987,2256.0
842.094999987,2064.0
842.095999987,1935.0
842.096999987,1802.0
842.097999987,1765.0
842.098999987,1906.0
842.099999987,2055.0
842.100999987,2005.0
842.101999987,1905.0
842.102999987,1775.0
842.103999987,1758.0
842.104999987,1688.0
842.105999987,1733.0
842.106999987,1955.0
842.107999987,2071.0
842.108999987,2020.0
842.109999987,1845.0
842.110999987,1774.0
842.111999987,1785.0
842.112999987,1739.0
842.113999987,1774.0
842.114999987,2030.0
842.115999987,2133.0
842.116999987,2034.0
842.117999987,1840.0
842.118999987,1798.0
842.119999987,1807.0
842.120999987,1777.0
842.121999987,1860.0
842.122999987,2068.0
842.123999987,2168.0
842.124999987,2080.0
842.125999987,1890.0
842.126999987,1862.0
842.127999987,1894.0
842.128999987,1857.0
842.129999987,1959.0
842.130999987,2135.0
842.131999987,2159.0
842.132999987,2044.0
842.133999987,1850.0
842.134999987,1835.0
842.135999987,1836.0
842.136999987,1854.0
842.137999987,1993.0
842.138999987,2117.0
842.139999987,2105.0
842.140999987,2011.0
842.141999987,1805.0
842.142999987,1809.0
842.143999987,1809.0
842.144999987,1836.0
842.145999987,2002.0
842.146999987,2119.0
842.147999987,2080.0
842.148999987,1928.0
842.149999987,1772.0
842.150999987,1800.0
842.151999987,1800.0
842.152999987,1842.0
842.153999987,2017.0
842.154999987,2135.0
842.155999987,2092.0
842.156999987,1923.0
842.157999987,1793.0
842.158999987,1843.0
842.159999987,1862.0
842.160999987,1958.0
842.161999987,2119.0
842.162999987,2218.0
842.163999987,2165.0
842.164999987,1978.0
842.165999987,1887.0
842.166999987,1941.0
842.167999987,1988.0
842.168999987,2142.0
842.169999987,2263.0
842.170999987,2299.0
842.171999987,2273.0
842.172999987,2109.0
842.173999987,2008.0
842.174999987,2045.0
842.175999987,2148.0
842.176999987,2307.0
842.177999987,2394.0
842.178999987,2377.0
842.179999987,2335.0
842.180999987,2190.0
842.181999987,2110.0
842.182999987,2125.0
842.183999987,2227.0
842.184999987,2407.0
842.185999987,2461.0
842.186999987,2422.0
842.187999987,2301.0
842.188999987,2196.0
842.189999987,2115.0
842.190999987,2132.0
842.191999987,2255.0
842.192999987,2449.0
842.193999987,2468.0
842.194999987,2426.0
842.195999987,2283.0
842.196999987,2176.0
842.197999987,2127.0
842.198999987,2130.0
842.199999987,2278.0
842.200999987,2437.0
842.201999987,2455.0
842.202999987,2378.0
842.203999987,2249.0
842.204999987,2133.0
842.205999987,2077.0
842.206999987,2111.0
842.207999987,2308.0
842.208999987,2436.0
842.209999987,2389.0
842.210999987,2311.0
842.211999987,2195.0
842.212999987,2084.0
842.213999987,2027.0
842.214999987,2104.0
842.215999987,2307.0
842.216999987,2409.0
842.217999987,2325.0
842.218999987,2219.0
842.219999987,2147.0
842.220999987,2062.0
842.221999987,1995.0
842.222999987,2075.0
842.223999987,2330.0
842.224999987,2389.0
842.225999987,2283.0
842.226999987,2110.0
842.227999987,2094.0
842.228999987,2030.0
842.229999987,1972.0
842.230999987,2076.0
842.231999987,2308.0
842.232999987,2357.0
842.233999987,2247.0
842.234999987,2088.0
842.235999987,2056.0
842.236999987,2019.0
842.237999987,1967.0
842.238999987,2109.0
842.239999987,2329.0
842.240999987,2334.0
842.241999987,2203.0
842.242999987,2081.0
842.243999987,2018.0
842.244999987,1994.0
842.245999987,1957.0
842.246999987,2163.0
842.247999987,2327.0
842.248999987,2327.0
842.249999987,2190.0
842.250999987,2053.0
842.251999987,2018.0
842.252999987,1974.0
842.253999987,1962.0
842.254999987,2184.0
842.255999987,2325.0
842.256999987,2293.0
842.257999987,2118.0
842.258999987,2031.0
842.259999987,2023.0
842.260999987,1980.0
842.261999987,1999.0
842.262999987,2241.0
842.263999987,2348.0
842.264999987,2272.0
842.265999987,2082.0
842.266999987,2028.0
842.267999987,2036.0
842.268999987,1987.0
842.269999987,2040.0
842.270999987,2253.0
842.271999987,2365.0
842.272999987,2250.0
842.273999987,2061.0
842.274999987,1999.0
842.275999987,2039.0
842.276999987,2000.0
842.277999987,2090.0
842.278999987,2272.0
842.279999987,2335.0
842.280999987,2227.0
842.281999987,2042.0
842.282999987,1980.0
842.283999987,2013.0
842.284999987,2015.0
842.285999987,2152.0
842.286999987,2289.0
842.287999987,2299.0
842.288999987,2215.0
842.289999987,2016.0
842.290999987,1966.0
842.291999987,1974.0
842.292999987,2015.0
842.293999987,2147.0
842.294999987,2274.0
842.295999987,2222.0
842.296999987,2098.0
842.297999987,1964.0
842.298999987,1962.0
842.299999987,1948.0
842.300999987,2028.0
842.301999987,2191.0
842.302999987,2283.0
842.303999987,2252.0
842.304999987,2085.0
842.305999987,1964.0
842.306999987,1968.0
842.307999987,1970.0
842.308999987,2072.0
842.309999987,2233.0
842.310999987,2306.0
842.311999987,2250.0
842.312999987,2104.0
842.313999987,1989.0
842.314999987,2004.0
842.315999987,2021.0
842.316999987,2171.0
842.317999987,2276.0
842.318999987,2313.0
842.319999987,2271.0
842.320999987,2116.0
842.321999987,1989.0
842.322999987,1992.0
842.323999987,2060.0
842.324999987,2215.0
842.325999987,2300.0
842.326999987,2280.0
842.327999987,2239.0
842.328999987,2097.0
842.329999987,1995.0
842.330999987,1982.0
842.331999987,2062.0
842.332999987,2276.0
842.333999987,2306.0
842.334999987,2263.0
842.335999987,2147.0
842.336999987,2068.0
842.337999987,1980.0
842.338999987,1952.0
842.339999987,2044.0
842.340999987,2262.0
842.341999987,2264.0
842.342999987,2217.0
842.343999987,2067.0
842.344999987,1951.0
842.345999987,1852.0
842.346999987,1727.0
842.347999987,1790.0
842.348999987,1884.0
842.349999987,1830.0
842.350999987,1828.0
842.351999987,1886.0
842.352999987,2027.0
842.353999987,2226.0
842.354999987,2444.0
842.355999987,2779.0
842.356999987,3047.0
842.357999987,3061.0
842.358999987,2971.0
842.359999987,2857.0
842.360999987,2775.0
842.361999987,2616.0
842.362999987,2578.0
842.363999987,2700.0
842.364999987,2735.0
842.365999987,2569.0
842.366999987,2399.0
842.367999987,2224.0
842.368999987,2118.0
842.369999987,1933.0
842.370999987,1902.0
842.371999987,2065.0
842.372999987,2108.0
842.373999987,2002.0
842.374999987,1816.0
842.375999987,1785.0
842.376999987,1751.0
842.377999987,1674.0
842.378999987,1753.0
842.379999987,2006.0
842.380999987,2076.0
842.381999987,1983.0
842.382999987,1842.0
842.383999987,1776.0
842.384999987,1785.0
842.385999987,1718.0
842.386999987,1845.0
842.387999987,2053.0
842.388999987,2119.0
842.389999987,1995.0
842.390999987,1850.0
842.391999987,1812.0
842.392999987,1810.0
842.393999987,1767.0
842.394999987,1936.0
842.395999987,2104.0
842.396999987,2127.0
842.397999987,1997.0
842.398999987,1854.0
842.399999987,1835.0
842.400999987,1810.0
842.401999987,1818.0
842.402999987,1997.0
842.403999987,2151.0
842.404999987,2105.0
842.405999987,1953.0
842.406999987,1835.0
842.407999987,1835.0
842.408999987,1809.0
842.409999987,1818.0
842.410999987,2057.0
842.411999987,2147.0
842.412999987,2078.0
842.413999987,1879.0
842.414999987,1817.0
842.415999987,1825.0
842.416999987,1828.0
842.417999987,1845.0
842.418999987,2048.0
842.419999987,2138.0
842.420999987,2070.0
842.421999987,1859.0
842.422999987,1789.0
842.423999987,1834.0
842.424999987,1815.0
842.425999987,1896.0
842.426999987,2065.0
842.427999987,2140.0
842.428999987,2055.0
842.429999987,1849.0
842.430999987,1785.0
842.431999987,1831.0
842.432999987,1856.0
842.433999987,1963.0
842.434999987,2128.0
842.435999987,2140.0
842.436999987,2091.0
842.437999987,1896.0
842.438999987,1853.0
842.439999987,1896.0
842.440999987,1958.0
842.441999987,2108.0
842.442999987,2244.0
842.443999987,2233.0
842.444999987,2164.0
842.445999987,2006.0
842.446999987,1992.0
842.447999987,2010.0
842.448999987,2097.0
842.449999987,2281.0
842.450999987,2388.0
842.451999987,2351.0
842.452999987,2208.0
842.453999987,2093.0
842.454999987,2090.0
842.455999987,2130.0
842.456999987,2260.0
842.457999987,2393.0
842.458999987,2458.0
842.459999987,2413.0
842.460999987,2280.0
842.461999987,2139.0
842.462999987,2138.0
842.463999987,2178.0
842.464999987,2338.0
842.465999987,2448.0
842.466999987,2494.0
842.467999987,2440.0
842.468999987,2290.0
842.469999987,2151.0
842.470999987,2131.0
842.471999987,2198.0
842.472999987,2367.0
842.473999987,2445.0
842.474999987,2430.0
842.475999987,2383.0
842.476999987,2232.0
842.477999987,2116.0
842.478999987,2077.0
842.479999987,2174.0
842.480999987,2382.0
842.481999987,2431.0
842.482999987,2367.0
842.483999987,2279.0
842.484999987,2206.0
842.485999987,2084.0
842.486999987,2051.0
842.487999987,2151.0
842.488999987,2374.0
842.489999987,2399.0
842.490999987,2350.0
842.491999987,2194.0
842.492999987,2139.0
842.493999987,2044.0
842.494999987,2021.0
842.495999987,2169.0
842.496999987,2365.0
842.497999987,2356.0
842.498999987,2288.0
842.499999987,2162.0
842.500999987,2094.0
842.501999987,2007.0
842.502999987,2002.0
842.503999987,2184.0
842.504999987,2366.0
842.505999987,2332.0
842.506999987,2227.0
842.507999987,2150.0
842.508999987,2060.0
842.509999987,1975.0
842.510999987,2006.0
842.511999987,2220.0
842.512999987,2352.0
842.513999987,2292.0
842.514999987,2199.0
842.515999987,2095.0
842.516999987,2061.0
842.517999987,1966.0
842.518999987,2008.0
842.519999987,2250.0
842.520999987,2358.0
842.521999987,2270.0
842.522999987,2117.0
842.523999987,2068.0
842.524999987,2036.0
842.525999987,1966.0
842.526999987,2014.0
842.527999987,2270.0
842.528999987,2359.0
842.529999987,2257.0
842.530999987,2120.0
842.531999987,2058.0
842.532999987,2034.0
842.533999987,1954.0
842.534999987,2066.0
842.535999987,2308.0
842.536999987,2372.0
842.537999987,2241.0
842.538999987,2100.0
842.539999987,2034.0
842.540999987,2017.0
842.541999987,1979.0
842.542999987,2143.0
842.543999987,2312.0
842.544999987,2358.0
842.545999987,2212.0
842.546999987,2060.0
842.547999987,2028.0
842.548999987,2014.0
842.549999987,2034.0
842.550999987,2175.0
842.551999987,2342.0
842.552999987,2306.0
842.553999987,2151.0
842.554999987,2031.0
842.555999987,2006.0
842.556999987,2008.0
842.557999987,2002.0
842.558999987,2232.0
842.559999987,2332.0
842.560999987,2282.0
842.561999987,2087.0
842.562999987,2022.0
842.563999987,2013.0
842.564999987,1993.0
842.565999987,2026.0
842.566999987,2235.0
842.567999987,2324.0
842.568999987,2274.0
842.569999987,2084.0
842.570999987,1999.0
842.571999987,2022.0
842.572999987,1997.0
842.573999987,2069.0
842.574999987,2229.0
842.575999987,2319.0
842.576999987,2235.0
842.577999987,2028.0
842.578999987,1939.0
842.579999987,1980.0
842.580999987,1989.0
842.581999987,2120.0
842.582999987,2245.0
842.583999987,2277.0
842.584999987,2207.0
842.585999987,2008.0
842.586999987,1952.0
842.587999987,1968.0
842.588999987,2045.0
842.589999987,2154.0
842.590999987,2290.0
842.591999987,2244.0
842.592999987,2186.0
842.593999987,2011.0
842.594999987,1988.0
842.595999987,1962.0
842.596999987,2054.0
842.597999987,2216.0
842.598999987,2297.0
842.599999987,2270.0
842.600999987,2140.0
842.601999987,2008.0
842.602999987,2009.0
842.603999987,1993.0
842.604999987,2100.0
842.605999987,2263.0
842.606999987,2311.0
842.607999987,2263.0
842.608999987,2132.0
842.609999987,2002.0
842.610999987,2009.0
842.611999987,2005.0
842.612999987,2154.0
842.613999987,2290.0
842.614999987,2312.0
842.615999987,2262.0
842.616999987,2124.0
842.617999987,1993.0
842.618999987,2004.0
842.619999987,2024.0
842.620999987,2192.0
842.621999987,2288.0
842.622999987,2258.0
842.623999987,2215.0
842.624999987,2077.0
842.625999987,1951.0
842.626999987,1905.0
842.627999987,1956.0
842.628999987,2131.0
842.629999987,2128.0
842.630999987,1991.0
842.631999987,1805.0
842.632999987,1666.0
842.633999987,1504.0
842.634999987,1574.0
842.635999987,1848.0
842.636999987,2320.0
842.637999987,2598.0
842.638999987,2729.0
842.639999987,2744.0
842.640999987,2790.0
842.641999987,2745.0
842.642999987,2724.0
842.643999987,2855.0
842.644999987,2996.0
842.645999987,2967.0
842.646999987,2768.0
842.647999987,2555.0
842.648999987,2446.0
842.649999987,2237.0
842.650999987,2158.0
842.651999987,2243.0
842.652999987,2359.0
842.653999987,2247.0
842.654999987,2060.0
842.655999987,1893.0
842.656999987,1782.0
842.657999987,1685.0
842.658999987,1706.0
842.659999987,1892.0
842.660999987,2056.0
842.661999987,2004.0
842.662999987,1906.0
842.663999987,1799.0
842.664999987,1768.0
842.665999987,1667.0
842.666999987,1731.0
842.667999987,1949.0
842.668999987,2083.0
842.669999987,2018.0
842.670999987,1860.0
842.671999987,1792.0
842.672999987,1785.0
842.673999987,1726.0
842.674999987,1778.0
842.675999987,2020.0
842.676999987,2115.0
842.677999987,2032.0
842.678999987,1847.0
842.679999987,1801.0
842.680999987,1816.0
842.681999987,1747.0
842.682999987,1861.0
842.683999987,2066.0
842.684999987,2169.0
842.685999987,2041.0
842.686999987,1874.0
842.687999987,1830.0
842.688999987,1846.0
842.689999987,1773.0
842.690999987,1916.0
842.691999987,2101.0
842.692999987,2149.0
842.693999987,2011.0
842.694999987,1825.0
842.695999987,1809.0
842.696999987,1838.0
842.697999987,1794.0
842.698999987,1949.0
842.699999987,2114.0
842.700999987,2104.0
842.701999987,1971.0
842.702999987,1785.0
842.703999987,1793.0
842.704999987,1778.0
842.705999987,1793.0
842.706999987,1974.0
842.707999987,2100.0
842.708999987,2048.0
842.709999987,1888.0
842.710999987,1758.0
842.711999987,1797.0
842.712999987,1787.0
842.713999987,1812.0
842.714999987,2015.0
842.715999987,2125.0
842.716999987,2078.0
842.717999987,1891.0
842.718999987,1789.0
842.719999987,1864.0
842.720999987,1848.0
842.721999987,1922.0
842.722999987,2111.0
842.723999987,2207.0
842.724999987,2165.0
842.725999987,1972.0
842.726999987,1867.0
842.727999987,1959.0
842.728999987,1988.0
842.729999987,2114.0
842.730999987,2261.0
842.731999987,2332.0
842.732999987,2284.0
842.733999987,2077.0
842.734999987,1983.0
842.735999987,2058.0
842.736999987,2157.0
842.737999987,2248.0
842.738999987,2412.0
842.739999987,2397.0
842.740999987,2333.0
842.741999987,2144.0
842.742999987,2091.0
842.743999987,2112.0
842.744999987,2155.0
842.745999987,2370.0
842.746999987,2446.0
842.747999987,2413.0
842.748999987,2301.0
842.749999987,2170.0
842.750999987,2097.0
842.751999987,2116.0
842.752999987,2229.0
842.753999987,2393.0
842.754999987,2448.0
842.755999987,2410.0
842.756999987,2272.0
842.757999987,2127.0
842.758999987,2062.0
842.759999987,2105.0
842.760999987,2260.0
842.761999987,2408.0
842.762999987,2414.0
842.763999987,2362.0
842.764999987,2224.0
842.765999987,2079.0
842.766999987,2039.0
842.767999987,2098.0
842.768999987,2294.0
842.769999987,2380.0
842.770999987,2374.0
842.771999987,2319.0
842.772999987,2178.0
842.773999987,2052.0
842.774999987,1990.0
842.775999987,2080.0
842.776999987,2282.0
842.777999987,2361.0
842.778999987,2306.0
842.779999987,2221.0
842.780999987,2116.0
842.781999987,2010.0
842.782999987,1961.0
842.783999987,2052.0
842.784999987,2297.0
842.785999987,2331.0
842.786999987,2258.0
842.787999987,2115.0
842.788999987,2084.0
842.789999987,1990.0
842.790999987,1942.0
842.791999987,2073.0
842.792999987,2306.0
842.793999987,2327.0
842.794999987,2232.0
842.795999987,2082.0
842.796999987,2029.0
842.797999987,1969.0
842.798999987,1940.0
842.799999987,2100.0
842.800999987,2314.0
842.801999987,2311.0
842.802999987,2201.0
842.803999987,2078.0
842.804999987,2051.0
842.805999987,1972.0
842.806999987,1956.0
842.807999987,2157.0
842.808999987,2312.0
842.809999987,2284.0
842.810999987,2175.0
842.811999987,2060.0
842.812999987,2037.0
842.813999987,1937.0
842.814999987,1966.0
842.815999987,2187.0
842.816999987,2344.0
842.817999987,2267.0
842.818999987,2127.0
842.819999987,2034.0
842.820999987,2022.0
842.821999987,1957.0
842.822999987,1979.0
842.823999987,2233.0
842.824999987,2352.0
842.825999987,2253.0
842.826999987,2061.0
842.827999987,2019.0
842.828999987,2007.0
842.829999987,1954.0
842.830999987,2030.0
842.831999987,2255.0
842.832999987,2354.0
842.833999987,2231.0
842.834999987,2062.0
842.835999987,2007.0
842.836999987,2002.0
842.837999987,1936.0
842.838999987,2061.0
842.839999987,2275.0
842.840999987,2328.0
842.841999987,2195.0
842.842999987,2032.0
842.843999987,1993.0
842.844999987,1998.0
842.845999987,1954.0
842.846999987,2095.0
842.847999987,2270.0
842.848999987,2282.0
842.849999987,2173.0
842.850999987,2015.0
842.851999987,1966.0
842.852999987,1954.0
842.853999987,1969.0
842.854999987,2123.0
842.855999987,2270.0
842.856999987,2246.0
842.857999987,2099.0
842.858999987,1983.0
842.859999987,1962.0
842.860999987,1949.0
842.861999987,1976.0
842.862999987,2154.0
842.863999987,2284.0
842.864999987,2231.0
842.865999987,2046.0
842.866999987,1947.0
842.867999987,1947.0
842.868999987,1917.0
842.869999987,1989.0
842.870999987,2149.0
842.871999987,2243.0
842.872999987,2204.0
842.873999987,2032.0
842.874999987,1919.0
842.875999987,1937.0
842.876999987,1956.0
842.877999987,2062.0
842.878999987,2187.0
842.879999987,2254.0
842.880999987,2199.0
842.881999987,2002.0
842.882999987,1915.0
842.883999987,1926.0
842.884999987,1997.0
842.885999987,2104.0
842.886999987,2235.0
842.887999987,2226.0
842.888999987,2187.0
842.889999987,2016.0
842.890999987,1949.0
842.891999987,1925.0
842.892999987,2012.0
842.893999987,2189.0
842.894999987,2251.0
842.895999987,2213.0
842.896999987,2128.0
842.897999987,2004.0
842.898999987,1953.0
842.899999987,1942.0
842.900999987,2029.0
842.901999987,2221.0
842.902999987,2260.0
842.903999987,2228.0
842.904999987,2102.0
842.905999987,1979.0
842.906999987,1969.0
842.907999987,1948.0
842.908999987,2093.0
842.909999987,2257.0
842.910999987,2246.0
842.911999987,2197.0
842.912999987,2092.0
842.913999987,1957.0
842.914999987,1926.0
842.915999987,1932.0
842.916999987,2095.0
842.917999987,2184.0
842.918999987,2154.0
842.919999987,2028.0
842.920999987,1838.0
842.921999987,1654.0
842.922999987,1520.0
842.923999987,1489.0
842.924999987,1726.0
842.925999987,1955.0
842.926999987,2085.0
842.927999987,2246.0
842.928999987,2394.0
842.929999987,2495.0
842.930999987,2541.0
842.931999987,2659.0
842.932999987,2895.0
842.933999987,2983.0
842.934999987,2904.0
842.935999987,2697.0
842.936999987,2567.0
842.937999987,2405.0
842.938999987,2294.0
842.939999987,2331.0
842.940999987,2523.0
842.941999987,2502.0
842.942999987,2359.0
842.943999987,2145.0
842.944999987,2029.0
842.945999987,1910.0
842.946999987,1810.0
842.947999987,1896.0
842.948999987,2066.0
842.949999987,2093.0
842.950999987,1975.0
842.951999987,1851.0
842.952999987,1813.0
842.953999987,1784.0
842.954999987,1753.0
842.955999987,1931.0
842.956999987,2098.0
842.957999987,2089.0
842.958999987,1982.0
842.959999987,1866.0
842.960999987,1839.0
842.961999987,1767.0
842.962999987,1795.0
842.963999987,1993.0
842.964999987,2139.0
842.965999987,2100.0
842.966999987,1956.0
842.967999987,1851.0
842.968999987,1857.0
842.969999987,1803.0
842.970999987,1821.0
842.971999987,2037.0
842.972999987,2174.0
842.973999987,2101.0
842.974999987,1915.0
842.975999987,1861.0
842.976999987,1857.0
842.977999987,1814.0
842.978999987,1864.0
842.979999987,2094.0
842.980999987,2191.0
842.981999987,2093.0
842.982999987,1902.0
842.983999987,1849.0
842.984999987,1878.0
842.985999987,1831.0
842.986999987,1925.0
842.987999987,2109.0
842.988999987,2184.0
842.989999987,2071.0
842.990999987,1862.0
842.991999987,1825.0
842.992999987,1848.0
842.993999987,1822.0
842.994999987,1949.0
842.995999987,2124.0
842.996999987,2141.0
842.997999987,2038.0
842.998999987,1832.0
842.999999987,1797.0
843.000999987,1809.0
843.001999987,1848.0
843.002999987,1985.0
843.003999987,2132.0
843.004999987,2113.0
843.005999987,1997.0
843.006999987,1835.0
843.007999987,1840.0
843.008999987,1850.0
843.009999987,1900.0
843.010999987,2087.0
843.011999987,2195.0
843.012999987,2166.0
843.013999987,2010.0
843.014999987,1894.0
843.015999987,1927.0
843.016999987,1945.0
843.017999987,2055.0
843.018999987,2224.0
843.019999987,2330.0
843.020999987,2275.0
843.021999987,2103.0
843.022999987,1987.0
843.023999987,2040.0
843.024999987,2088.0
843.025999987,2235.0
843.026999987,2373.0
843.027999987,2442.0
843.028999987,2377.0
843.029999987,2198.0
843.030999987,2092.0
843.031999987,2143.0
843.032999987,2199.0
843.033999987,2347.0
843.034999987,2458.0
843.035999987,2451.0
843.036999987,2394.0
843.037999987,2226.0
843.038999987,2111.0
843.039999987,2123.0
843.040999987,2217.0
843.041999987,2406.0
843.042999987,2470.0
843.043999987,2422.0
843.044999987,2323.0
843.045999987,2197.0
843.046999987,2107.0
843.047999987,2109.0
843.048999987,2206.0
843.049999987,2415.0
843.050999987,2451.0
843.051999987,2389.0
843.052999987,2268.0
843.053999987,2154.0
843.054999987,2087.0
843.055999987,2084.0
843.056999987,2231.0
843.057999987,2416.0
843.058999987,2424.0
843.059999987,2351.0
843.060999987,2232.0
843.061999987,2123.0
843.062999987,2057.0
843.063999987,2055.0
843.064999987,2250.0
843.065999987,2390.0
843.066999987,2384.0
843.067999987,2295.0
843.068999987,2179.0
843.069999987,2068.0
843.070999987,2013.0
843.071999987,2067.0
843.072999987,2259.0
843.073999987,2384.0
843.074999987,2327.0
843.075999987,2259.0
843.076999987,2137.0
843.077999987,2064.0
843.078999987,1993.0
843.079999987,2066.0
843.080999987,2301.0
843.081999987,2367.0
843.082999987,2283.0
843.083999987,2163.0
843.084999987,2104.0
843.085999987,2008.0
843.086999987,1962.0
843.087999987,2046.0
843.088999987,2291.0
843.089999987,2361.0
843.090999987,2269.0
843.091999987,2104.0
843.092999987,2086.0
843.093999987,2032.0
843.094999987,1969.0
843.095999987,2083.0
843.096999987,2325.0
843.097999987,2366.0
843.098999987,2246.0
843.099999987,2092.0
843.100999987,2039.0
843.101999987,2020.0
843.102999987,1973.0
843.103999987,2143.0
843.104999987,2317.0
843.105999987,2357.0
843.106999987,2220.0
843.107999987,2080.0
843.108999987,2067.0
843.109999987,2008.0
843.110999987,1990.0
843.111999987,2208.0
843.112999987,2348.0
843.113999987,2309.0
843.114999987,2170.0
843.115999987,2063.0
843.116999987,2039.0
843.117999987,1987.0
843.118999987,1999.0
843.119999987,2222.0
843.120999987,2353.0
843.121999987,2283.0
843.122999987,2100.0
843.123999987,2023.0
843.124999987,2014.0
843.125999987,1984.0
843.126999987,2036.0
843.127999987,2242.0
843.128999987,2354.0
843.129999987,2280.0
843.130999987,2080.0
843.131999987,2018.0
843.132999987,2017.0
843.133999987,2004.0
843.134999987,2078.0
843.135999987,2278.0
843.136999987,2360.0
843.137999987,2281.0
843.138999987,2082.0
843.139999987,2029.0
843.140999987,2033.0
843.141999987,2021.0
843.142999987,2120.0
843.143999987,2288.0
843.144999987,2323.0
843.145999987,2271.0
843.146999987,2058.0
843.147999987,2005.0
843.148999987,2007.0
843.149999987,2036.0
843.150999987,2165.0
843.151999987,2306.0
843.152999987,2274.0
843.153999987,2208.0
843.154999987,2020.0
843.155999987,1962.0
843.156999987,1948.0
843.157999987,2016.0
843.158999987,2181.0
843.159999987,2291.0
843.160999987,2267.0
843.161999987,2123.0
843.162999987,1986.0
843.163999987,2004.0
843.164999987,1986.0
843.165999987,2043.0
843.166999987,2240.0
843.167999987,2313.0
843.168999987,2263.0
843.169999987,2120.0
843.170999987,1985.0
843.171999987,2012.0
843.172999987,1993.0
843.173999987,2132.0
843.174999987,2292.0
843.175999987,2352.0
843.176999987,2283.0
843.177999987,2139.0
843.178999987,2005.0
843.179999987,2027.0
843.180999987,2052.0
843.181999987,2221.0
843.182999987,2334.0
843.183999987,2332.0
843.184999987,2266.0
843.185999987,2122.0
843.186999987,2018.0
843.187999987,2007.0
843.188999987,2092.0
843.189999987,2269.0
843.190999987,2328.0
843.191999987,2286.0
843.192999987,2221.0
843.193999987,2100.0
843.194999987,2014.0
843.195999987,2006.0
843.196999987,2080.0
843.197999987,2303.0
843.198999987,2339.0
843.199999987,2284.0
843.200999987,2160.0
843.201999987,2090.0
843.202999987,1992.0
843.203999987,1946.0
843.204999987,2045.0
843.205999987,2233.0
843.206999987,2184.0
843.207999987,2042.0
843.208999987,1831.0
843.209999987,1673.0
843.210999987,1536.0
843.211999987,1582.0
843.212999987,1903.0
843.213999987,2268.0
843.214999987,2481.0
843.215999987,2641.0
843.216999987,2692.0
843.217999987,2733.0
843.218999987,2687.0
843.219999987,2711.0
843.220999987,2915.0
843.221999987,3042.0
843.222999987,2919.0
843.223999987,2750.0
843.224999987,2557.0
843.225999987,2439.0
843.226999987,2279.0
843.227999987,2289.0
843.228999987,2445.0
843.229999987,2494.0
843.230999987,2337.0
843.231999987,2118.0
843.232999987,1957.0
843.233999987,1877.0
843.234999987,1777.0
843.235999987,1813.0
843.236999987,2038.0
843.237999987,2143.0
843.238999987,2040.0
843.239999987,1853.0
843.240999987,1841.0
843.241999987,1819.0
843.242999987,1739.0
843.243999987,1846.0
843.244999987,2076.0
843.245999987,2152.0
843.246999987,2035.0
843.247999987,1883.0
843.248999987,1833.0
843.249999987,1842.0
843.250999987,1763.0
843.251999987,1924.0
843.252999987,2108.0
843.253999987,2167.0
843.254999987,2034.0
843.255999987,1881.0
843.256999987,1859.0
843.257999987,1845.0
843.258999987,1817.0
843.259999987,1995.0
843.260999987,2151.0
843.261999987,2132.0
843.262999987,2011.0
843.263999987,1863.0
843.264999987,1848.0
843.265999987,1826.0
843.266999987,1827.0
843.267999987,2032.0
843.268999987,2167.0
843.269999987,2102.0
843.270999987,1935.0
843.271999987,1833.0
843.272999987,1832.0
843.273999987,1833.0
843.274999987,1828.0
843.275999987,2037.0
843.276999987,2157.0
843.277999987,2085.0
843.278999987,1891.0
843.279999987,1813.0
843.280999987,1812.0
843.281999987,1796.0
843.282999987,1859.0
843.283999987,2049.0
843.284999987,2131.0
843.285999987,2047.0
843.286999987,1840.0
843.287999987,1757.0
843.288999987,1785.0
843.289999987,1809.0
843.290999987,1903.0
843.291999987,2082.0
843.292999987,2137.0
843.293999987,2063.0
843.294999987,1843.0
843.295999987,1788.0
843.296999987,1820.0
843.297999987,1888.0
843.298999987,2014.0
843.299999987,2174.0
843.300999987,2170.0
843.301999987,2122.0
843.302999987,1924.0
843.303999987,1893.0
843.304999987,1928.0
843.305999987,2020.0
843.306999987,2189.0
843.307999987,2306.0
843.308999987,2288.0
843.309999987,2177.0
843.310999987,2033.0
843.311999987,2040.0
843.312999987,2048.0
843.313999987,2143.0
843.314999987,2331.0
843.315999987,2419.0
843.316999987,2369.0
843.317999987,2230.0
843.318999987,2119.0
843.319999987,2110.0
843.320999987,2136.0
843.321999987,2277.0
843.322999987,2420.0
843.323999987,2472.0
843.324999987,2418.0
843.325999987,2300.0
843.326999987,2133.0
843.327999987,2133.0
843.328999987,2183.0
843.329999987,2348.0
843.330999987,2447.0
843.331999987,2457.0
843.332999987,2392.0
843.333999987,2251.0
843.334999987,2118.0
843.335999987,2089.0
843.336999987,2183.0
843.337999987,2382.0
843.338999987,2436.0
843.339999987,2398.0
843.340999987,2323.0
843.341999987,2196.0
843.342999987,2079.0
843.343999987,2056.0
843.344999987,2151.0
843.345999987,2374.0
843.346999987,2396.0
843.347999987,2356.0
843.348999987,2221.0
843.349999987,2155.0
843.350999987,2068.0
843.351999987,2026.0
843.352999987,2142.0
843.353999987,2375.0
843.354999987,2372.0
843.355999987,2297.0
843.356999987,2167.0
843.357999987,2117.0
843.358999987,2039.0
843.359999987,2013.0
843.360999987,2166.0
843.361999987,2400.0
843.362999987,2351.0
843.363999987,2267.0
843.364999987,2137.0
843.365999987,2072.0
843.366999987,2005.0
843.367999987,2009.0
843.368999987,2213.0
843.369999987,2365.0
843.370999987,2315.0
843.371999987,2197.0
843.372999987,2094.0
843.373999987,2047.0
843.374999987,1959.0
843.375999987,2015.0
843.376999987,2227.0
843.377999987,2358.0
843.378999987,2278.0
843.379999987,2156.0
843.380999987,2079.0
843.381999987,2040.0
843.382999987,1973.0
843.383999987,2003.0
843.384999987,2269.0
843.385999987,2367.0
843.386999987,2270.0
843.387999987,2084.0
843.388999987,2037.0
843.389999987,2027.0
843.390999987,1957.0
843.391999987,2031.0
843.392999987,2276.0
843.393999987,2353.0
843.394999987,2242.0
843.395999987,2084.0
843.396999987,2027.0
843.397999987,2016.0
843.398999987,1964.0
843.399999987,2108.0
843.400999987,2285.0
843.401999987,2369.0
843.402999987,2209.0
843.403999987,2073.0
843.404999987,2040.0
843.405999987,2026.0
843.406999987,1984.0
843.407999987,2148.0
843.408999987,2321.0
843.409999987,2335.0
843.410999987,2196.0
843.411999987,2046.0
843.412999987,2018.0
843.413999987,2000.0
843.414999987,2017.0
843.415999987,2211.0
843.416999987,2349.0
843.417999987,2309.0
843.418999987,2138.0
843.419999987,2030.0
843.420999987,2011.0
843.421999987,1999.0
843.422999987,2009.0
843.423999987,2224.0
843.424999987,2359.0
843.425999987,2297.0
843.426999987,2097.0
843.427999987,2029.0
843.428999987,2028.0
843.429999987,1997.0
843.430999987,2053.0
843.431999987,2242.0
843.432999987,2342.0
843.433999987,2299.0
843.434999987,2090.0
843.435999987,1993.0
843.436999987,2007.0
843.437999987,1999.0
843.438999987,2087.0
843.439999987,2234.0
843.440999987,2309.0
843.441999987,2229.0
843.442999987,2016.0
843.443999987,1937.0
843.444999987,1943.0
843.445999987,1967.0
843.446999987,2085.0
843.447999987,2209.0
843.448999987,2223.0
843.449999987,2179.0
843.450999987,1975.0
843.451999987,1901.0
843.452999987,1911.0
843.453999987,1981.0
843.454999987,2149.0
843.455999987,2237.0
843.456999987,2217.0
843.457999987,2113.0
843.458999987,1942.0
843.459999987,1941.0
843.460999987,1932.0
843.461999987,2010.0
843.462999987,2191.0
843.463999987,2259.0
843.464999987,2211.0
843.465999987,2095.0
843.466999987,1971.0
843.467999987,1958.0
843.468999987,1938.0
843.469999987,2029.0
843.470999987,2222.0
843.471999987,2246.0
843.472999987,2208.0
843.473999987,2103.0
843.474999987,1941.0
843.475999987,1983.0
843.476999987,1966.0
843.477999987,2141.0
843.478999987,2270.0
843.479999987,2259.0
843.480999987,2207.0
843.481999987,2071.0
843.482999987,1947.0
843.483999987,1927.0
843.484999987,1977.0
843.485999987,2181.0
843.486999987,2262.0
843.487999987,2222.0
843.488999987,2179.0
843.489999987,2062.0
843.490999987,1933.0
843.491999987,1901.0
843.492999987,1961.0
843.493999987,2161.0
843.494999987,2188.0
843.495999987,2098.0
843.496999987,1891.0
843.497999987,1728.0
843.498999987,1555.0
843.499999987,1459.0
843.500999987,1552.0
843.501999987,1958.0
843.502999987,2162.0
843.503999987,2334.0
843.504999987,2435.0
843.505999987,2568.0
843.506999987,2643.0
843.507999987,2689.0
843.508999987,2831.0
843.509999987,3021.0
843.510999987,3028.0
843.511999987,2880.0
843.512999987,2652.0
843.513999987,2530.0
843.514999987,2387.0
843.515999987,2302.0
843.516999987,2392.0
843.517999987,2497.0
843.518999987,2410.0
843.519999987,2203.0
843.520999987,1990.0
843.521999987,1870.0
843.522999987,1738.0
843.523999987,1731.0
843.524999987,1919.0
843.525999987,2041.0
843.526999987,1973.0
843.527999987,1872.0
843.528999987,1769.0
843.529999987,1743.0
843.530999987,1686.0
843.531999987,1720.0
843.532999987,1964.0
843.533999987,2086.0
843.534999987,2017.0
843.535999987,1836.0
843.536999987,1781.0
843.537999987,1786.0
843.538999987,1714.0
843.539999987,1779.0
843.540999987,2019.0
843.541999987,2112.0
843.542999987,2021.0
843.543999987,1829.0
843.544999987,1793.0
843.545999987,1816.0
843.546999987,1752.0
843.547999987,1880.0
843.548999987,2077.0
843.549999987,2139.0
843.550999987,2023.0
843.551999987,1839.0
843.552999987,1837.0
843.553999987,1845.0
843.554999987,1794.0
843.555999987,1939.0
843.556999987,2116.0
843.557999987,2139.0
843.558999987,2010.0
843.559999987,1829.0
843.560999987,1815.0
843.561999987,1800.0
843.562999987,1819.0
843.563999987,1969.0
843.564999987,2122.0
843.565999987,2097.0
843.566999987,1960.0
843.567999987,1775.0
843.568999987,1801.0
843.569999987,1793.0
843.570999987,1802.0
843.571999987,1994.0
843.572999987,2120.0
843.573999987,2055.0
843.574999987,1869.0
843.575999987,1766.0
843.576999987,1789.0
843.577999987,1781.0
843.578999987,1846.0
843.579999987,2036.0
843.580999987,2137.0
843.581999987,2106.0
843.582999987,1888.0
843.583999987,1762.0
843.584999987,1820.0
843.585999987,1864.0
843.586999987,1950.0
843.587999987,2124.0
843.588999987,2218.0
843.589999987,2143.0
843.590999987,1958.0
843.591999987,1855.0
843.592999987,1933.0
843.593999987,1982.0
843.594999987,2129.0
843.595999987,2269.0
843.596999987,2308.0
843.597999987,2260.0
843.598999987,2078.0
843.599999987,1994.0
843.600999987,2044.0
843.601999987,2142.0
843.602999987,2292.0
843.603999987,2402.0
843.604999987,2408.0
843.605999987,2314.0
843.606999987,2158.0
843.607999987,2097.0
843.608999987,2119.0
843.609999987,2218.0
843.610999987,2405.0
843.611999987,2480.0
843.612999987,2443.0
843.613999987,2285.0
843.614999987,2191.0
843.615999987,2124.0
843.616999987,2158.0
843.617999987,2299.0
843.618999987,2451.0
843.619999987,2474.0
843.620999987,2429.0
843.621999987,2305.0
843.622999987,2157.0
843.623999987,2104.0
843.624999987,2162.0
843.625999987,2323.0
843.626999987,2468.0
843.627999987,2469.0
843.628999987,2392.0
843.629999987,2266.0
843.630999987,2125.0
843.631999987,2071.0
843.632999987,2143.0
843.633999987,2331.0
843.634999987,2438.0
843.635999987,2396.0
843.636999987,2335.0
843.637999987,2202.0
843.638999987,2082.0
843.639999987,2032.0
843.640999987,2125.0
843.641999987,2337.0
843.642999987,2403.0
843.643999987,2345.0
843.644999987,2221.0
843.645999987,2135.0
843.646999987,2051.0
843.647999987,1997.0
843.648999987,2095.0
843.649999987,2367.0
843.650999987,2383.0
843.651999987,2298.0
843.652999987,2162.0
843.653999987,2101.0
843.654999987,2021.0
843.655999987,1986.0
843.656999987,2121.0
843.657999987,2341.0
843.658999987,2353.0
843.659999987,2258.0
843.660999987,2124.0
843.661999987,2070.0
843.662999987,2004.0
843.663999987,1971.0
843.664999987,2137.0
843.665999987,2341.0
843.666999987,2348.0
843.667999987,2219.0
843.668999987,2094.0
843.669999987,2041.0
843.670999987,1977.0
843.671999987,1977.0
843.672999987,2215.0
843.673999987,2355.0
843.674999987,2291.0
843.675999987,2177.0
843.676999987,2067.0
843.677999987,2040.0
843.678999987,1972.0
843.679999987,1993.0
843.680999987,2233.0
843.681999987,2368.0
843.682999987,2295.0
843.683999987,2124.0
843.684999987,2040.0
843.685999987,2019.0
843.686999987,1973.0
843.687999987,2005.0
843.688999987,2254.0
843.689999987,2355.0
843.690999987,2270.0
843.691999987,2083.0
843.692999987,2020.0
843.693999987,2034.0
843.694999987,1972.0
843.695999987,2085.0
843.696999987,2278.0
843.697999987,2360.0
843.698999987,2237.0
843.699999987,2065.0
843.700999987,2048.0
843.701999987,2030.0
843.702999987,1976.0
843.703999987,2111.0
843.704999987,2304.0
843.705999987,2355.0
843.706999987,2224.0
843.707999987,2044.0
843.708999987,2005.0
843.709999987,2000.0
843.710999987,2005.0
843.711999987,2153.0
843.712999987,2321.0
843.713999987,2304.0
843.714999987,2196.0
843.715999987,2024.0
843.716999987,2000.0
843.717999987,1990.0
843.718999987,2010.0
843.719999987,2188.0
843.720999987,2324.0
843.721999987,2275.0
843.722999987,2126.0
843.723999987,2025.0
843.724999987,1998.0
843.725999987,1971.0
843.726999987,2044.0
843.727999987,2225.0
843.728999987,2323.0
843.729999987,2274.0
843.730999987,2085.0
843.731999987,1971.0
843.732999987,1978.0
843.733999987,1963.0
843.734999987,2060.0
843.735999987,2205.0
843.736999987,2284.0
843.737999987,2204.0
843.738999987,2038.0
843.739999987,1932.0
843.740999987,1963.0
843.741999987,1991.0
843.742999987,2107.0
843.743999987,2234.0
843.744999987,2270.0
843.745999987,2223.0
843.746999987,2049.0
843.747999987,1947.0
843.748999987,1932.0
843.749999987,2019.0
843.750999987,2160.0
843.751999987,2263.0
843.752999987,2253.0
843.753999987,2193.0
843.754999987,2043.0
843.755999987,1983.0
843.756999987,1964.0
843.757999987,2037.0
843.758999987,2228.0
843.759999987,2281.0
843.760999987,2236.0
843.761999987,2125.0
843.762999987,2025.0
843.763999987,1978.0
843.764999987,1950.0
843.765999987,2084.0
843.766999987,2282.0
843.767999987,2300.0
843.768999987,2261.0
843.769999987,2168.0
843.770999987,2029.0
843.771999987,1997.0
843.772999987,1990.0
843.773999987,2154.0
843.774999987,2292.0
843.775999987,2289.0
843.776999987,2225.0
843.777999987,2130.0
843.778999987,2013.0
843.779999987,1987.0
843.780999987,1993.0
843.781999987,2171.0
843.782999987,2274.0
843.783999987,2239.0
843.784999987,2173.0
843.785999987,2012.0
843.786999987,1875.0
843.787999987,1730.0
843.788999987,1713.0
843.789999987,1824.0
843.790999987,1858.0
843.791999987,1858.0
843.792999987,1928.0
843.793999987,2078.0
843.794999987,2263.0
843.795999987,2420.0
843.796999987,2643.0
843.797999987,3004.0
843.798999987,3127.0
843.799999987,3063.0
843.800999987,2890.0
843.801999987,2854.0
843.802999987,2707.0
843.803999987,2565.0
843.804999987,2599.0
843.805999987,2725.0
843.806999987,2667.0
843.807999987,2483.0
843.808999987,2244.0
843.809999987,2115.0
843.810999987,1974.0
843.811999987,1844.0
843.812999987,1902.0
843.813999987,2063.0
843.814999987,2034.0
843.815999987,1925.0
843.816999987,1794.0
843.817999987,1751.0
843.818999987,1713.0
843.819999987,1702.0
843.820999987,1879.0
843.821999987,2047.0
843.822999987,2036.0
843.823999987,1919.0
843.824999987,1798.0
843.825999987,1749.0
843.826999987,1722.0
843.827999987,1750.0
843.828999987,1966.0
843.829999987,2115.0
843.830999987,2048.0
843.831999987,1889.0
843.832999987,1803.0
843.833999987,1799.0
843.834999987,1766.0
843.835999987,1797.0
843.836999987,2029.0
843.837999987,2135.0
843.838999987,2057.0
843.839999987,1865.0
843.840999987,1812.0
843.841999987,1835.0
843.842999987,1793.0
843.843999987,1853.0
843.844999987,2069.0
843.845999987,2161.0
843.846999987,2077.0
843.847999987,1865.0
843.848999987,1790.0
843.849999987,1835.0
843.850999987,1811.0
843.851999987,1919.0
843.852999987,2093.0
843.853999987,2155.0
843.854999987,2040.0
843.855999987,1831.0
843.856999987,1796.0
843.857999987,1808.0
843.858999987,1826.0
843.859999987,1950.0
843.860999987,2088.0
843.861999987,2084.0
843.862999987,1992.0
843.863999987,1778.0
843.864999987,1756.0
843.865999987,1771.0
843.866999987,1821.0
843.867999987,1981.0
843.868999987,2097.0
843.869999987,2072.0
843.870999987,1934.0
843.871999987,1775.0
843.872999987,1783.0
843.873999987,1772.0
843.874999987,1867.0
843.875999987,2053.0
843.876999987,2149.0
843.877999987,2111.0
843.878999987,1948.0
843.879999987,1826.0
843.880999987,1857.0
843.881999987,1905.0
843.882999987,2002.0
843.883999987,2181.0
843.884999987,2271.0
843.885999987,2214.0
843.886999987,2049.0
843.887999987,1948.0
843.888999987,2000.0
843.889999987,2049.0
843.890999987,2204.0
843.891999987,2354.0
843.892999987,2391.0
843.893999987,2329.0
843.894999987,2161.0
843.895999987,2058.0
843.896999987,2090.0
843.897999987,2172.0
843.898999987,2356.0
843.899999987,2447.0
843.900999987,2436.0
843.901999987,2371.0
843.902999987,2212.0
843.903999987,2126.0
843.904999987,2127.0
843.905999987,2236.0
843.906999987,2436.0
843.907999987,2485.0
843.908999987,2438.0
843.909999987,2321.0
843.910999987,2223.0
843.911999987,2121.0
843.912999987,2111.0
843.913999987,2234.0
843.914999987,2447.0
843.915999987,2467.0
843.916999987,2409.0
843.917999987,2273.0
843.918999987,2176.0
843.919999987,2091.0
843.920999987,2107.0
843.921999987,2266.0
843.922999987,2439.0
843.923999987,2439.0
843.924999987,2369.0
843.925999987,2246.0
843.926999987,2139.0
843.927999987,2081.0
843.928999987,2101.0
843.929999987,2302.0
843.930999987,2440.0
843.931999987,2404.0
843.932999987,2308.0
843.933999987,2177.0
843.934999987,2093.0
843.935999987,2028.0
843.936999987,2092.0
843.937999987,2310.0
843.938999987,2418.0
843.939999987,2335.0
843.940999987,2241.0
843.941999987,2133.0
843.942999987,2079.0
843.943999987,1997.0
843.944999987,2063.0
843.945999987,2323.0
843.946999987,2408.0
843.947999987,2309.0
843.948999987,2145.0
843.949999987,2106.0
843.950999987,2064.0
843.951999987,1982.0
843.952999987,2063.0
843.953999987,2311.0
843.954999987,2380.0
843.955999987,2277.0
843.956999987,2115.0
843.957999987,2069.0
843.958999987,2059.0
843.959999987,1984.0
843.960999987,2114.0
843.961999987,2325.0
843.962999987,2372.0
843.963999987,2245.0
843.964999987,2105.0
843.965999987,2058.0
843.966999987,2048.0
843.967999987,2002.0
843.968999987,2170.0
843.969999987,2351.0
843.970999987,2374.0
843.971999987,2215.0
843.972999987,2087.0
843.973999987,2036.0
843.974999987,2004.0
843.975999987,2015.0
843.976999987,2226.0
843.977999987,2379.0
843.978999987,2327.0
843.979999987,2165.0
843.980999987,2064.0
843.981999987,2057.0
843.982999987,2015.0
843.983999987,2031.0
843.984999987,2262.0
843.985999987,2385.0
843.986999987,2311.0
843.987999987,2135.0
843.988999987,2022.0
843.989999987,2036.0
843.990999987,2011.0
843.991999987,2065.0
843.992999987,2277.0
843.993999987,2373.0
843.994999987,2314.0
843.995999987,2101.0
843.996999987,2022.0
843.997999987,2064.0
843.998999987,2030.0
843.999999987,2112.0
844.000999987,2301.0
844.001999987,2365.0
844.002999987,2300.0
844.003999987,2087.0
844.004999987,2021.0
844.005999987,2048.0
844.006999987,2055.0
844.007999987,2155.0
844.008999987,2319.0
844.009999987,2334.0
844.010999987,2277.0
844.011999987,2056.0
844.012999987,2018.0
844.013999987,1996.0
844.014999987,2061.0
844.015999987,2188.0
844.016999987,2310.0
844.017999987,2288.0
844.018999987,2183.0
844.019999987,2015.0
844.020999987,2000.0
844.021999987,1983.0
844.022999987,2048.0
844.023999987,2221.0
844.024999987,2292.0
844.025999987,2242.0
844.026999987,2095.0
844.027999987,1959.0
844.028999987,1945.0
844.029999987,1933.0
844.030999987,2040.0
844.031999987,2211.0
844.032999987,2292.0
844.033999987,2234.0
844.034999987,2076.0
844.035999987,1923.0
844.036999987,1960.0
844.037999987,1961.0
844.038999987,2115.0
844.039999987,2244.0
844.040999987,2267.0
844.041999987,2203.0
844.042999987,2065.0
844.043999987,1939.0
844.044999987,1960.0
844.045999987,2014.0
844.046999987,2189.0
844.047999987,2283.0
844.048999987,2255.0
844.049999987,2225.0
844.050999987,2086.0
844.051999987,1962.0
844.052999987,1939.0
844.053999987,2015.0
844.054999987,2218.0
844.055999987,2292.0
844.056999987,2242.0
844.057999987,2140.0
844.058999987,2059.0
844.059999987,1966.0
844.060999987,1940.0
844.061999987,2034.0
844.062999987,2273.0
844.063999987,2297.0
844.064999987,2231.0
844.065999987,2095.0
844.066999987,2051.0
844.067999987,1953.0
844.068999987,1949.0
844.069999987,2083.0
844.070999987,2285.0
844.071999987,2287.0
844.072999987,2211.0
844.073999987,2079.0
844.074999987,2000.0
844.075999987,1924.0
844.076999987,1924.0
844.077999987,2082.0
844.078999987,2218.0
844.079999987,2152.0
844.080999987,1970.0
844.081999987,1761.0
844.082999987,1579.0
844.083999987,1455.0
844.084999987,1530.0
844.085999987,1871.0
844.086999987,2227.0
844.087999987,2396.0
844.088999987,2537.0
844.089999987,2605.0
844.090999987,2682.0
844.091999987,2656.0
844.092999987,2713.0
844.093999987,2933.0
844.094999987,3062.0
844.095999987,2889.0
844.096999987,2638.0
844.097999987,2537.0
844.098999987,2422.0
844.099999987,2262.0
844.100999987,2245.0
844.101999987,2430.0
844.102999987,2435.0
844.103999987,2271.0
844.104999987,2007.0
844.105999987,1878.0
844.106999987,1838.0
844.107999987,1706.0
844.108999987,1791.0
844.109999987,2007.0
844.110999987,2069.0
844.111999987,1952.0
844.112999987,1791.0
844.113999987,1733.0
844.114999987,1756.0
844.115999987,1709.0
844.116999987,1878.0
844.117999987,2043.0
844.118999987,2075.0
844.119999987,1943.0
844.120999987,1810.0
844.121999987,1773.0
844.122999987,1774.0
844.123999987,1760.0
844.124999987,1949.0
844.125999987,2109.0
844.126999987,2085.0
844.127999987,1941.0
844.128999987,1800.0
844.129999987,1803.0
844.130999987,1792.0
844.131999987,1791.0
844.132999987,2008.0
844.133999987,2130.0
844.134999987,2075.0
844.135999987,1887.0
844.136999987,1800.0
844.137999987,1817.0
844.138999987,1791.0
844.139999987,1832.0
844.140999987,2045.0
844.141999987,2153.0
844.142999987,2093.0
844.143999987,1884.0
844.144999987,1782.0
844.145999987,1821.0
844.146999987,1822.0
844.147999987,1887.0
844.148999987,2065.0
844.149999987,2143.0
844.150999987,2054.0
844.151999987,1854.0
844.152999987,1750.0
844.153999987,1792.0
844.154999987,1824.0
844.155999987,1923.0
844.156999987,2070.0
844.157999987,2094.0
844.158999987,2028.0
844.159999987,1810.0
844.160999987,1744.0
844.161999987,1756.0
844.162999987,1839.0
844.163999987,1971.0
844.164999987,2101.0
844.165999987,2082.0
844.166999987,2015.0
844.167999987,1819.0
844.168999987,1790.0
844.169999987,1814.0
844.170999987,1905.0
844.171999987,2082.0
844.172999987,2163.0
844.173999987,2124.0
844.174999987,2011.0
844.175999987,1894.0
844.176999987,1896.0
844.177999987,1922.0
844.178999987,2052.0
844.179999987,2222.0
844.180999987,2313.0
844.181999987,2266.0
844.182999987,2142.0
844.183999987,2016.0
844.184999987,2022.0
844.185999987,2055.0
844.186999987,2235.0
844.187999987,2361.0
844.188999987,2406.0
844.189999987,2341.0
844.190999987,2222.0
844.191999987,2101.0
844.192999987,2097.0
844.193999987,2179.0
844.194999987,2362.0
844.195999987,2439.0
844.196999987,2427.0
844.197999987,2378.0
844.198999987,2242.0
844.199999987,2121.0
844.200999987,2088.0
844.201999987,2192.0
844.202999987,2411.0
844.203999987,2468.0
844.204999987,2421.0
844.205999987,2325.0
844.206999987,2234.0
844.207999987,2113.0
844.208999987,2076.0
844.209999987,2184.0
844.210999987,2421.0
844.211999987,2442.0
844.212999987,2377.0
844.213999987,2220.0
844.214999987,2184.0
844.215999987,2082.0
844.216999987,2077.0
844.217999987,2214.0
844.218999987,2425.0
844.219999987,2414.0
844.220999987,2335.0
844.221999987,2200.0
844.222999987,2147.0
844.223999987,2062.0
844.224999987,2049.0
844.225999987,2237.0
844.226999987,2415.0
844.227999987,2390.0
844.228999987,2289.0
844.229999987,2160.0
844.230999987,2102.0
844.231999987,2013.0
844.232999987,2040.0
844.233999987,2244.0
844.234999987,2402.0
844.235999987,2330.0
844.236999987,2233.0
844.237999987,2103.0
844.238999987,2083.0
844.239999987,1982.0
844.240999987,2017.0
844.241999987,2247.0
844.242999987,2378.0
844.243999987,2301.0
844.244999987,2138.0
844.245999987,2101.0
844.246999987,2054.0
844.247999987,1979.0
844.248999987,2014.0
844.249999987,2264.0
844.250999987,2357.0
844.251999987,2282.0
844.252999987,2077.0
844.253999987,2042.0
844.254999987,2034.0
844.255999987,1958.0
844.256999987,2055.0
844.257999987,2292.0
844.258999987,2375.0
844.259999987,2243.0
844.260999987,2090.0
844.261999987,2034.0
844.262999987,2037.0
844.263999987,1978.0
844.264999987,2119.0
844.265999987,2316.0
844.266999987,2370.0
844.267999987,2224.0
844.268999987,2093.0
844.269999987,2021.0
844.270999987,2017.0
844.271999987,1987.0
844.272999987,2162.0
844.273999987,2331.0
844.274999987,2323.0
844.275999987,2181.0
844.276999987,2045.0
844.277999987,2029.0
844.278999987,2014.0
844.279999987,2009.0
844.280999987,2209.0
844.281999987,2346.0
844.282999987,2288.0
844.283999987,2109.0
844.284999987,2017.0
844.285999987,2011.0
844.286999987,1992.0
844.287999987,2020.0
844.288999987,2233.0
844.289999987,2343.0
844.290999987,2286.0
844.291999987,2102.0
844.292999987,2005.0
844.293999987,2026.0
844.294999987,2017.0
844.295999987,2085.0
844.296999987,2258.0
844.297999987,2336.0
844.298999987,2275.0
844.299999987,2098.0
844.300999987,1994.0
844.301999987,2024.0
844.302999987,2035.0
844.303999987,2135.0
844.304999987,2288.0
844.305999987,2339.0
844.306999987,2280.0
844.307999987,2067.0
844.308999987,1991.0
844.309999987,1991.0
844.310999987,2048.0
844.311999987,2163.0
844.312999987,2273.0
844.313999987,2266.0
844.314999987,2193.0
844.315999987,2018.0
844.316999987,1975.0
844.317999987,1973.0
844.318999987,2045.0
844.319999987,2228.0
844.320999987,2292.0
844.321999987,2259.0
844.322999987,2150.0
844.323999987,2018.0
844.324999987,1988.0
844.325999987,1990.0
844.326999987,2065.0
844.327999987,2253.0
844.328999987,2298.0
844.329999987,2266.0
844.330999987,2154.0
844.331999987,2023.0
844.332999987,2034.0
844.333999987,2013.0
844.334999987,2158.0
844.335999987,2306.0
844.336999987,2319.0
844.337999987,2278.0
844.338999987,2154.0
844.339999987,2022.0
844.340999987,2025.0
844.341999987,2031.0
844.342999987,2239.0
844.343999987,2330.0
844.344999987,2311.0
844.345999987,2264.0
844.346999987,2148.0
844.347999987,2018.0
844.348999987,1996.0
844.349999987,2091.0
844.350999987,2285.0
844.351999987,2351.0
844.352999987,2312.0
844.353999987,2225.0
844.354999987,2121.0
844.355999987,2028.0
844.356999987,1985.0
844.357999987,2063.0
844.358999987,2300.0
844.359999987,2328.0
844.360999987,2264.0
844.361999987,2089.0
844.362999987,2019.0
844.363999987,1896.0
844.364999987,1789.0
844.365999987,1828.0
844.366999987,1983.0
844.367999987,1896.0
844.368999987,1766.0
844.369999987,1746.0
844.370999987,1873.0
844.371999987,2001.0
844.372999987,2204.0
844.373999987,2575.0
844.374999987,2905.0
844.375999987,2974.0
844.376999987,2896.0
844.377999987,2782.0
844.378999987,2745.0
844.379999987,2652.0
844.380999987,2591.0
844.381999987,2684.0
844.382999987,2770.0
844.383999987,2682.0
844.384999987,2524.0
844.385999987,2337.0
844.386999987,2245.0
844.387999987,2112.0
844.388999987,2088.0
844.389999987,2200.0
844.390999987,2272.0
844.391999987,2163.0
844.392999987,1991.0
844.393999987,1871.0
844.394999987,1857.0
844.395999987,1793.0
844.396999987,1830.0
844.397999987,2033.0
844.398999987,2171.0
844.399999987,2122.0
844.400999987,1922.0
844.401999987,1876.0
844.402999987,1871.0
844.403999987,1806.0
844.404999987,1896.0
844.405999987,2118.0
844.406999987,2210.0
844.407999987,2094.0
844.408999987,1904.0
844.409999987,1868.0
844.410999987,1914.0
844.411999987,1846.0
844.412999987,1952.0
844.413999987,2167.0
844.414999987,2229.0
844.415999987,2081.0
844.416999987,1899.0
844.417999987,1883.0
844.418999987,1903.0
844.419999987,1867.0
844.420999987,2013.0
844.421999987,2183.0
844.422999987,2184.0
844.423999987,2065.0
844.424999987,1868.0
844.425999987,1868.0
844.426999987,1864.0
844.427999987,1876.0
844.428999987,2038.0
844.429999987,2189.0
844.430999987,2149.0
844.431999987,1994.0
844.432999987,1828.0
844.433999987,1871.0
844.434999987,1838.0
844.435999987,1860.0
844.436999987,2036.0
844.437999987,2147.0
844.438999987,2103.0
844.439999987,1919.0
844.440999987,1785.0
844.441999987,1834.0
844.442999987,1824.0
844.443999987,1904.0
844.444999987,2062.0
844.445999987,2156.0
844.446999987,2092.0
844.447999987,1914.0
844.448999987,1773.0
844.449999987,1851.0
844.450999987,1879.0
844.451999987,1986.0
844.452999987,2137.0
844.453999987,2196.0
844.454999987,2125.0
844.455999987,1921.0
844.456999987,1827.0
844.457999987,1889.0
844.458999987,1977.0
844.459999987,2123.0
844.460999987,2243.0
844.461999987,2257.0
844.462999987,2229.0
844.463999987,2040.0
844.464999987,1963.0
844.465999987,2013.0
844.466999987,2106.0
844.467999987,2286.0
844.468999987,2377.0
844.469999987,2354.0
844.470999987,2257.0
844.471999987,2130.0
844.472999987,2071.0
844.473999987,2108.0
844.474999987,2198.0
844.475999987,2408.0
844.476999987,2464.0
844.477999987,2434.0
844.478999987,2300.0
844.479999987,2181.0
844.480999987,2126.0
844.481999987,2135.0
844.482999987,2306.0
844.483999987,2472.0
844.484999987,2493.0
844.485999987,2432.0
844.486999987,2307.0
844.487999987,2171.0
844.488999987,2113.0
844.489999987,2156.0
844.490999987,2342.0
844.491999987,2459.0
844.492999987,2459.0
844.493999987,2388.0
844.494999987,2257.0
844.495999987,2122.0
844.496999987,2079.0
844.497999987,2172.0
844.498999987,2360.0
844.499999987,2450.0
844.500999987,2386.0
844.501999987,2312.0
844.502999987,2198.0
844.503999987,2083.0
844.504999987,2038.0
844.505999987,2129.0
844.506999987,2360.0
844.507999987,2421.0
844.508999987,2330.0
844.509999987,2194.0
844.510999987,2126.0
844.511999987,2040.0
844.512999987,1992.0
844.513999987,2094.0
844.514999987,2342.0
844.515999987,2379.0
844.516999987,2282.0
844.517999987,2151.0
844.518999987,2088.0
844.519999987,2022.0
844.520999987,1969.0
844.521999987,2139.0
844.522999987,2343.0
844.523999987,2355.0
844.524999987,2227.0
844.525999987,2104.0
844.526999987,2055.0
844.527999987,1998.0
844.528999987,1968.0
844.529999987,2166.0
844.530999987,2345.0
844.531999987,2352.0
844.532999987,2207.0
844.533999987,2078.0
844.534999987,2047.0
844.535999987,1970.0
844.536999987,1982.0
844.537999987,2208.0
844.538999987,2343.0
844.539999987,2297.0
844.540999987,2151.0
844.541999987,2048.0
844.542999987,2023.0
844.543999987,1978.0
844.544999987,2003.0
844.545999987,2236.0
844.546999987,2361.0
844.547999987,2273.0
844.548999987,2075.0
844.549999987,2037.0
844.550999987,2017.0
844.551999987,1974.0
844.552999987,2024.0
844.553999987,2251.0
844.554999987,2357.0
844.555999987,2253.0
844.556999987,2073.0
844.557999987,2020.0
844.558999987,2040.0
844.559999987,1972.0
844.560999987,2071.0
844.561999987,2286.0
844.562999987,2367.0
844.563999987,2237.0
844.564999987,2056.0
844.565999987,2004.0
844.566999987,2026.0
844.567999987,1994.0
844.568999987,2130.0
844.569999987,2303.0
844.570999987,2334.0
844.571999987,2210.0
844.572999987,2041.0
844.573999987,2027.0
844.574999987,1972.0
844.575999987,2012.0
844.576999987,2162.0
844.577999987,2315.0
844.578999987,2288.0
844.579999987,2165.0
844.580999987,2009.0
844.581999987,1980.0
844.582999987,1959.0
844.583999987,2015.0
844.584999987,2194.0
844.585999987,2292.0
844.586999987,2254.0
844.587999987,2098.0
844.588999987,1969.0
844.589999987,1972.0
844.590999987,1950.0
844.591999987,2038.0
844.592999987,2201.0
844.593999987,2281.0
844.594999987,2234.0
844.595999987,2059.0
844.596999987,1930.0
844.597999987,1932.0
844.598999987,1936.0
844.599999987,2055.0
844.600999987,2200.0
844.601999987,2265.0
844.602999987,2222.0
844.603999987,2040.0
844.604999987,1927.0
844.605999987,1958.0
844.606999987,1997.0
844.607999987,2130.0
844.608999987,2236.0
844.609999987,2213.0
844.610999987,2203.0
844.611999987,2030.0
844.612999987,1944.0
844.613999987,1939.0
844.614999987,2026.0
844.615999987,2208.0
844.616999987,2279.0
844.617999987,2243.0
844.618999987,2162.0
844.619999987,2047.0
844.620999987,1976.0
844.621999987,1942.0
844.622999987,2032.0
844.623999987,2252.0
844.624999987,2272.0
844.625999987,2239.0
844.626999987,2104.0
844.627999987,2026.0
844.628999987,1991.0
844.629999987,1955.0
844.630999987,2092.0
844.631999987,2274.0
844.632999987,2283.0
844.633999987,2228.0
844.634999987,2095.0
844.635999987,2020.0
844.636999987,1968.0
844.637999987,1960.0
844.638999987,2143.0
844.639999987,2279.0
844.640999987,2262.0
844.641999987,2183.0
844.642999987,2077.0
844.643999987,1962.0
844.644999987,1898.0
844.645999987,1919.0
844.646999987,2087.0
844.647999987,2132.0
844.648999987,2009.0
844.649999987,1847.0
844.650999987,1640.0
844.651999987,1535.0
844.652999987,1530.0
844.653999987,1769.0
844.654999987,2206.0
844.655999987,2535.0
844.656999987,2680.0
844.657999987,2708.0
844.658999987,2760.0
844.659999987,2734.0
844.660999987,2670.0
844.661999987,2761.0
844.662999987,2985.0
844.663999987,2956.0
844.664999987,2787.0
844.665999987,2572.0
844.666999987,2423.0
844.667999987,2320.0
844.668999987,2182.0
844.669999987,2231.0
844.670999987,2358.0
844.671999987,2281.0
844.672999987,2096.0
844.673999987,1886.0
844.674999987,1806.0
844.675999987,1727.0
844.676999987,1681.0
844.677999987,1837.0
844.678999987,2027.0
844.679999987,2038.0
844.680999987,1917.0
844.681999987,1788.0
844.682999987,1759.0
844.683999987,1725.0
844.684999987,1732.0
844.685999987,1911.0
844.686999987,2069.0
844.687999987,2043.0
844.688999987,1909.0
844.689999987,1791.0
844.690999987,1774.0
844.691999987,1730.0
844.692999987,1761.0
844.693999987,2000.0
844.694999987,2123.0
844.695999987,2057.0
844.696999987,1875.0
844.697999987,1812.0
844.698999987,1814.0
844.699999987,1788.0
844.700999987,1810.0
844.701999987,2042.0
844.702999987,2157.0
844.703999987,2058.0
844.704999987,1862.0
844.705999987,1806.0
844.706999987,1823.0
844.707999987,1794.0
844.708999987,1867.0
844.709999987,2077.0
844.710999987,2155.0
844.711999987,2061.0
844.712999987,1851.0
844.713999987,1791.0
844.714999987,1831.0
844.715999987,1818.0
844.716999987,1928.0
844.717999987,2080.0
844.718999987,2119.0
844.719999987,2031.0
844.720999987,1808.0
844.721999987,1790.0
844.722999987,1772.0
844.723999987,1828.0
844.724999987,1951.0
844.725999987,2095.0
844.726999987,2064.0
844.727999987,1974.0
844.728999987,1779.0
844.729999987,1763.0
844.730999987,1777.0
844.731999987,1840.0
844.732999987,1994.0
844.733999987,2107.0
844.734999987,2071.0
844.735999987,1928.0
844.736999987,1796.0
844.737999987,1804.0
844.738999987,1836.0
844.739999987,1935.0
844.740999987,2085.0
844.741999987,2201.0
844.742999987,2163.0
844.743999987,2022.0
844.744999987,1887.0
844.745999987,1914.0
844.746999987,1965.0
844.747999987,2111.0
844.748999987,2259.0
844.749999987,2338.0
844.750999987,2301.0
844.751999987,2147.0
844.752999987,2019.0
844.753999987,2065.0
844.754999987,2111.0
844.755999987,2282.0
844.756999987,2395.0
844.757999987,2403.0
844.758999987,2377.0
844.759999987,2230.0
844.760999987,2094.0
844.761999987,2097.0
844.762999987,2205.0
844.763999987,2393.0
844.764999987,2465.0
844.765999987,2433.0
844.766999987,2345.0
844.767999987,2237.0
844.768999987,2122.0
844.769999987,2098.0
844.770999987,2202.0
844.771999987,2430.0
844.772999987,2460.0
844.773999987,2415.0
844.774999987,2275.0
844.775999987,2198.0
844.776999987,2089.0
844.777999987,2078.0
844.778999987,2208.0
844.779999987,2437.0
844.780999987,2437.0
844.781999987,2374.0
844.782999987,2249.0
844.783999987,2155.0
844.784999987,2070.0
844.785999987,2073.0
844.786999987,2247.0
844.787999987,2407.0
844.788999987,2392.0
844.789999987,2312.0
844.790999987,2181.0
844.791999987,2107.0
844.792999987,2023.0
844.793999987,2047.0
844.794999987,2270.0
844.795999987,2428.0
844.796999987,2343.0
844.797999987,2260.0
844.798999987,2143.0
844.799999987,2060.0
844.800999987,1964.0
844.801999987,2043.0
844.802999987,2269.0
844.803999987,2394.0
844.804999987,2292.0
844.805999987,2164.0
844.806999987,2084.0
844.807999987,2028.0
844.808999987,1945.0
844.809999987,2016.0
844.810999987,2277.0
844.811999987,2354.0
844.812999987,2273.0
844.813999987,2105.0
844.814999987,2040.0
844.815999987,2026.0
844.816999987,1940.0
844.817999987,2051.0
844.818999987,2307.0
844.819999987,2370.0
844.820999987,2247.0
844.821999987,2097.0
844.822999987,2044.0
844.823999987,2028.0
844.824999987,1972.0
844.825999987,2113.0
844.826999987,2300.0
844.827999987,2360.0
844.828999987,2201.0
844.829999987,2077.0
844.830999987,2021.0
844.831999987,2006.0
844.832999987,1965.0
844.833999987,2154.0
844.834999987,2307.0
844.835999987,2312.0
844.836999987,2168.0
844.837999987,2032.0
844.838999987,2005.0
844.839999987,1977.0
844.840999987,1980.0
844.841999987,2227.0
844.842999987,2339.0
844.843999987,2299.0
844.844999987,2110.0
844.845999987,2030.0
844.846999987,2019.0
844.847999987,1970.0
844.848999987,2006.0
844.849999987,2226.0
844.850999987,2356.0
844.851999987,2279.0
844.852999987,2066.0
844.853999987,2006.0
844.854999987,2012.0
844.855999987,1995.0
844.856999987,2059.0
844.857999987,2262.0
844.858999987,2350.0
844.859999987,2276.0
844.860999987,2063.0
844.861999987,1988.0
844.862999987,2008.0
844.863999987,1998.0
844.864999987,2113.0
844.865999987,2278.0
844.866999987,2346.0
844.867999987,2253.0
844.868999987,2044.0
844.869999987,1980.0
844.870999987,1976.0
844.871999987,2035.0
844.872999987,2153.0
844.873999987,2291.0
844.874999987,2276.0
844.875999987,2229.0
844.876999987,2028.0
844.877999987,1976.0
844.878999987,1974.0
844.879999987,2032.0
844.880999987,2191.0
844.881999987,2290.0
844.882999987,2258.0
844.883999987,2140.0
844.884999987,1971.0
844.885999987,1963.0
844.886999987,1974.0
844.887999987,2044.0
844.888999987,2222.0
844.889999987,2293.0
844.890999987,2248.0
844.891999987,2118.0
844.892999987,1964.0
844.893999987,1971.0
844.894999987,1954.0
844.895999987,2090.0
844.896999987,2231.0
844.897999987,2261.0
844.898999987,2210.0
844.899999987,2068.0
844.900999987,1919.0
844.901999987,1931.0
844.902999987,1945.0
844.903999987,2129.0
844.904999987,2249.0
844.905999987,2254.0
844.906999987,2199.0
844.907999987,2073.0
844.908999987,1927.0
844.909999987,1914.0
844.910999987,1996.0
844.911999987,2178.0
844.912999987,2260.0
844.913999987,2220.0
844.914999987,2178.0
844.915999987,2091.0
844.916999987,1946.0
844.917999987,1932.0
844.918999987,2022.0
844.919999987,2255.0
844.920999987,2286.0
844.921999987,2240.0
844.922999987,2117.0
844.923999987,2069.0
844.924999987,1960.0
844.925999987,1938.0
844.926999987,2065.0
844.927999987,2300.0
844.928999987,2301.0
844.929999987,2250.0
844.930999987,2129.0
844.931999987,2055.0
844.932999987,1981.0
844.933999987,1964.0
844.934999987,2127.0
844.935999987,2324.0
844.936999987,2321.0
844.937999987,2234.0
844.938999987,2147.0
844.939999987,2041.0
844.940999987,1967.0
844.941999987,1986.0
844.942999987,2196.0
844.943999987,2345.0
844.944999987,2295.0
844.945999987,2198.0
844.946999987,2072.0
844.947999987,2016.0
844.948999987,1888.0
844.949999987,1941.0
844.950999987,2089.0
844.951999987,2139.0
844.952999987,1951.0
844.953999987,1720.0
844.954999987,1616.0
844.955999987,1658.0
844.956999987,1772.0
844.957999987,2062.0
844.958999987,2554.0
844.959999987,2849.0
844.960999987,2909.0
844.961999987,2836.0
844.962999987,2836.0
844.963999987,2822.0
844.964999987,2739.0
844.965999987,2824.0
844.966999987,2966.0
844.967999987,2949.0
844.968999987,2769.0
844.969999987,2525.0
844.970999987,2360.0
844.971999987,2261.0
844.972999987,2112.0
844.973999987,2159.0
844.974999987,2237.0
844.975999987,2209.0
844.976999987,1989.0
844.977999987,1783.0
844.978999987,1707.0
844.979999987,1704.0
844.980999987,1673.0
844.981999987,1846.0
844.982999987,2022.0
844.983999987,2027.0
844.984999987,1893.0
844.985999987,1733.0
844.986999987,1708.0
844.987999987,1709.0
844.988999987,1720.0
844.989999987,1921.0
844.990999987,2067.0
844.991999987,2035.0
844.992999987,1870.0
844.993999987,1755.0
844.994999987,1752.0
844.995999987,1745.0
844.996999987,1773.0
844.997999987,2002.0
844.998999987,2106.0
844.999999987,2060.0
845.000999987,1860.0
845.001999987,1779.0
845.002999987,1824.0
845.003999987,1814.0
845.004999987,1851.0
845.005999987,2052.0
845.006999987,2136.0
845.007999987,2081.0
845.008999987,1878.0
845.009999987,1786.0
845.010999987,1823.0
845.011999987,1838.0
845.012999987,1929.0
845.013999987,2087.0
845.014999987,2157.0
845.015999987,2077.0
845.016999987,1858.0
845.017999987,1772.0
845.018999987,1816.0
845.019999987,1869.0
845.020999987,1979.0
845.021999987,2121.0
845.022999987,2106.0
845.023999987,2068.0
845.024999987,1847.0
845.025999987,1764.0
845.026999987,1775.0
845.027999987,1868.0
845.028999987,2009.0
845.029999987,2116.0
845.030999987,2076.0
845.031999987,1983.0
845.032999987,1816.0
845.033999987,1771.0
845.034999987,1788.0
845.035999987,1883.0
845.036999987,2050.0
845.037999987,2134.0
845.038999987,2112.0
845.039999987,1998.0
845.040999987,1844.0
845.041999987,1817.0
845.042999987,1856.0
845.043999987,2020.0
845.044999987,2163.0
845.045999987,2221.0
845.046999987,2182.0
845.047999987,2074.0
845.048999987,1937.0
845.049999987,1943.0
845.050999987,2012.0
845.051999987,2200.0
845.052999987,2316.0
845.053999987,2350.0
845.054999987,2305.0
845.055999987,2204.0
845.056999987,2060.0
845.057999987,2042.0
845.058999987,2151.0
845.059999987,2367.0
845.060999987,2449.0
845.061999987,2427.0
845.062999987,2393.0
845.063999987,2247.0
845.064999987,2143.0
845.065999987,2110.0
845.066999987,2207.0
845.067999987,2447.0
845.068999987,2497.0
845.069999987,2457.0
845.070999987,2344.0
845.071999987,2274.0
845.072999987,2149.0
845.073999987,2121.0
845.074999987,2231.0
845.075999987,2489.0
845.076999987,2499.0
845.077999987,2423.0
845.078999987,2276.0
845.079999987,2219.0
845.080999987,2124.0
845.081999987,2099.0
845.082999987,2258.0
845.083999987,2476.0
845.084999987,2459.0
845.085999987,2371.0
845.086999987,2248.0
845.087999987,2189.0
845.088999987,2087.0
845.089999987,2082.0
845.090999987,2265.0
845.091999987,2448.0
845.092999987,2414.0
845.093999987,2308.0
845.094999987,2190.0
845.095999987,2151.0
845.096999987,2029.0
845.097999987,2066.0
845.098999987,2281.0
845.099999987,2434.0
845.100999987,2347.0
845.101999987,2227.0
845.102999987,2116.0
845.103999987,2076.0
845.104999987,1998.0
845.105999987,2037.0
845.106999987,2281.0
845.107999987,2412.0
845.108999987,2316.0
845.109999987,2128.0
845.110999987,2074.0
845.111999987,2061.0
845.112999987,1982.0
845.113999987,2053.0
845.114999987,2286.0
845.115999987,2382.0
845.116999987,2263.0
845.117999987,2098.0
845.118999987,2032.0
845.119999987,2036.0
845.120999987,1959.0
845.121999987,2084.0
845.122999987,2293.0
845.123999987,2364.0
845.124999987,2234.0
845.125999987,2068.0
845.126999987,2008.0
845.127999987,2024.0
845.128999987,1973.0
845.129999987,2117.0
845.130999987,2296.0
845.131999987,2337.0
845.132999987,2186.0
845.133999987,2023.0
845.134999987,1995.0
845.135999987,1984.0
845.136999987,1988.0
845.137999987,2156.0
845.138999987,2316.0
845.139999987,2289.0
845.140999987,2136.0
845.141999987,2015.0
845.142999987,1993.0
845.143999987,1976.0
845.144999987,1991.0
845.145999987,2187.0
845.146999987,2311.0
845.147999987,2282.0
845.148999987,2074.0
845.149999987,1994.0
845.150999987,2008.0
845.151999987,1968.0
845.152999987,2022.0
845.153999987,2217.0
845.154999987,2329.0
845.155999987,2269.0
845.156999987,2090.0
845.157999987,1972.0
845.158999987,1999.0
845.159999987,1984.0
845.160999987,2082.0
845.161999987,2236.0
845.162999987,2330.0
845.163999987,2259.0
845.164999987,2062.0
845.165999987,1944.0
845.166999987,2000.0
845.167999987,2021.0
845.168999987,2138.0
845.169999987,2282.0
845.170999987,2281.0
845.171999987,2227.0
845.172999987,2021.0
845.173999987,1964.0
845.174999987,1954.0
845.175999987,2048.0
845.176999987,2189.0
845.177999987,2264.0
845.178999987,2258.0
845.179999987,2169.0
845.180999987,2015.0
845.181999987,1955.0
845.182999987,1945.0
845.183999987,2041.0
845.184999987,2215.0
845.185999987,2263.0
845.186999987,2230.0
845.187999987,2137.0
845.188999987,1979.0
845.189999987,1961.0
845.190999987,1956.0
845.191999987,2088.0
845.192999987,2264.0
845.193999987,2282.0
845.194999987,2236.0
845.195999987,2116.0
845.196999987,1973.0
845.197999987,1968.0
845.198999987,1966.0
845.199999987,2134.0
845.200999987,2271.0
845.201999987,2285.0
845.202999987,2225.0
845.203999987,2115.0
845.204999987,1957.0
845.205999987,1938.0
845.206999987,1993.0
845.207999987,2200.0
845.208999987,2284.0
845.209999987,2265.0
845.210999987,2206.0
845.211999987,2079.0
845.212999987,1965.0
845.213999987,1916.0
845.214999987,2006.0
845.215999987,2239.0
845.216999987,2292.0
845.217999987,2248.0
845.218999987,2131.0
845.219999987,2077.0
845.220999987,1961.0
845.221999987,1924.0
845.222999987,1993.0
845.223999987,2253.0
845.224999987,2270.0
845.225999987,2205.0
845.226999987,2046.0
845.227999987,1998.0
845.228999987,1931.0
845.229999987,1908.0
845.230999987,2041.0
845.231999987,2278.0
845.232999987,2272.0
845.233999987,2183.0
845.234999987,2068.0
845.235999987,2000.0
845.236999987,1945.0
845.237999987,1936.0
845.238999987,2114.0
845.239999987,2297.0
845.240999987,2286.0
845.241999987,2178.0
845.242999987,2068.0
845.243999987,2037.0
845.244999987,1958.0
845.245999987,1976.0
845.246999987,2192.0
845.247999987,2354.0
845.248999987,2284.0
845.249999987,2182.0
845.250999987,2052.0
845.251999987,2032.0
845.252999987,1961.0
845.253999987,2015.0
845.254999987,2239.0
845.255999987,2359.0
845.256999987,2305.0
845.257999987,2130.0
845.258999987,2059.0
845.259999987,2036.0
845.260999987,1993.0
845.261999987,2035.0
845.262999987,2280.0
845.263999987,2371.0
845.264999987,2272.0
845.265999987,2071.0
845.266999987,2025.0
845.267999987,2033.0
845.268999987,1962.0
845.269999987,2054.0
845.270999987,2272.0
845.271999987,2347.0
845.272999987,2222.0
845.273999987,2000.0
845.274999987,1942.0
845.275999987,1935.0
845.276999987,1848.0
845.277999987,1899.0
845.278999987,1991.0
845.279999987,1929.0
845.280999987,1719.0
845.281999987,1561.0
845.282999987,1706.0
845.283999987,1930.0
845.284999987,2192.0
845.285999987,2558.0
845.286999987,2865.0
845.287999987,2981.0
845.288999987,2901.0
845.289999987,2707.0
845.290999987,2732.0
845.291999987,2736.0
845.292999987,2678.0
845.293999987,2762.0
845.294999987,2813.0
845.295999987,2694.0
845.296999987,2445.0
845.297999987,2210.0
845.298999987,2194.0
845.299999987,2100.0
845.300999987,2089.0
845.301999987,2175.0
845.302999987,2199.0
845.303999987,2081.0
845.304999987,1850.0
845.305999987,1693.0
845.306999987,1727.0
845.307999987,1765.0
845.308999987,1840.0
845.309999987,2003.0
845.310999987,2093.0
845.311999987,2014.0
845.312999987,1830.0
845.313999987,1699.0
845.314999987,1761.0
845.315999987,1795.0
845.316999987,1924.0
845.317999987,2057.0
845.318999987,2079.0
845.319999987,2024.0
845.320999987,1823.0
845.321999987,1718.0
845.322999987,1761.0
845.323999987,1867.0
845.324999987,2009.0
845.325999987,2097.0
845.326999987,2084.0
845.327999987,1990.0
845.328999987,1843.0
845.329999987,1755.0
845.330999987,1773.0
845.331999987,1871.0
845.332999987,2059.0
845.333999987,2111.0
845.334999987,2075.0
845.335999987,1940.0
845.336999987,1826.0
845.337999987,1743.0
845.338999987,1774.0
845.339999987,1906.0
845.340999987,2098.0
845.341999987,2109.0
845.342999987,2068.0
845.343999987,1939.0
845.344999987,1803.0
845.345999987,1735.0
845.346999987,1778.0
845.347999987,1936.0
845.348999987,2090.0
845.349999987,2100.0
845.350999987,2026.0
845.351999987,1909.0
845.352999987,1769.0
845.353999987,1731.0
845.354999987,1776.0
845.355999987,1990.0
845.356999987,2107.0
845.357999987,2075.0
845.358999987,1984.0
845.359999987,1886.0
845.360999987,1781.0
845.361999987,1713.0
845.362999987,1833.0
845.363999987,2077.0
845.364999987,2149.0
845.365999987,2087.0
845.366999987,1988.0
845.367999987,1913.0
845.368999987,1821.0
845.369999987,1786.0
845.370999987,1889.0
845.371999987,2162.0
845.372999987,2257.0
845.373999987,2176.0
845.374999987,2032.0
845.375999987,2003.0
845.376999987,1938.0
845.377999987,1915.0
845.378999987,2062.0
845.379999987,2338.0
845.380999987,2376.0
845.381999987,2289.0
845.382999987,2149.0
845.383999987,2123.0
845.384999987,2065.0
845.385999987,2044.0
845.386999987,2251.0
845.387999987,2445.0
845.388999987,2475.0
845.389999987,2351.0
845.390999987,2230.0
845.391999987,2191.0
845.392999987,2123.0
845.393999987,2119.0
845.394999987,2328.0
845.395999987,2505.0
845.396999987,2459.0
845.397999987,2358.0
845.398999987,2221.0
845.399999987,2179.0
845.400999987,2108.0
845.401999987,2139.0
845.402999987,2366.0
845.403999987,2510.0
845.404999987,2448.0
845.405999987,2257.0
845.406999987,2176.0
845.407999987,2162.0
845.408999987,2100.0
845.409999987,2120.0
845.410999987,2356.0
845.411999987,2469.0
845.412999987,2368.0
845.413999987,2194.0
845.414999987,2139.0
845.415999987,2119.0
845.416999987,2065.0
845.417999987,2131.0
845.418999987,2357.0
845.419999987,2444.0
845.420999987,2321.0
845.421999987,2144.0
845.422999987,2083.0
845.423999987,2098.0
845.424999987,2050.0
845.425999987,2153.0
845.426999987,2353.0
845.427999987,2402.0
845.428999987,2282.0
845.429999987,2103.0
845.430999987,2039.0
845.431999987,2039.0
845.432999987,2036.0
845.433999987,2174.0
845.434999987,2337.0
845.435999987,2328.0
845.436999987,2228.0
845.437999987,2034.0
845.438999987,1996.0
845.439999987,1995.0
845.440999987,2029.0
845.441999987,2191.0
845.442999987,2315.0
845.443999987,2285.0
845.444999987,2138.0
845.445999987,2000.0
845.446999987,1976.0
845.447999987,1973.0
845.448999987,2027.0
845.449999987,2207.0
845.450999987,2305.0
845.451999987,2271.0
845.452999987,2097.0
845.453999987,1965.0
845.454999987,1981.0
845.455999987,1980.0
845.456999987,2066.0
845.457999987,2240.0
845.458999987,2306.0
845.459999987,2243.0
845.460999987,2077.0
845.461999987,1944.0
845.462999987,1979.0
845.463999987,1988.0
845.464999987,2135.0
845.465999987,2263.0
845.466999987,2301.0
845.467999987,2237.0
845.468999987,2068.0
845.469999987,1965.0
845.470999987,1960.0
845.471999987,2030.0
845.472999987,2184.0
845.473999987,2272.0
845.474999987,2259.0
845.475999987,2205.0
845.476999987,2055.0
845.477999987,1961.0
845.478999987,1941.0
845.479999987,2045.0
845.480999987,2239.0
845.481999987,2289.0
845.482999987,2248.0
845.483999987,2138.0
845.484999987,2037.0
845.485999987,1950.0
845.486999987,1941.0
845.487999987,2061.0
845.488999987,2258.0
845.489999987,2278.0
845.490999987,2230.0
845.491999987,2127.0
845.492999987,2022.0
845.493999987,1968.0
845.494999987,1955.0
845.495999987,2115.0
845.496999987,2287.0
845.497999987,2296.0
845.498999987,2237.0
845.499999987,2119.0
845.500999987,2015.0
845.501999987,1962.0
845.502999987,1979.0
845.503999987,2195.0
845.504999987,2318.0
845.505999987,2283.0
845.506999987,2210.0
845.507999987,2094.0
845.508999987,1996.0
845.509999987,1919.0
845.510999987,2001.0
845.511999987,2221.0
845.512999987,2342.0
845.513999987,2256.0
845.514999987,2167.0
845.515999987,2079.0
845.516999987,2007.0
845.517999987,1932.0
845.518999987,2009.0
845.519999987,2278.0
845.520999987,2344.0
845.521999987,2271.0
845.522999987,2098.0
845.523999987,2062.0
845.524999987,2017.0
845.525999987,1955.0
845.526999987,2037.0
845.527999987,2282.0
845.528999987,2343.0
845.529999987,2236.0
845.530999987,2071.0
845.531999987,2030.0
845.532999987,2002.0
