830.918999987,2212.0
830.919999987,2138.0
830.920999987,2061.0
830.921999987,1998.0
830.922999987,1929.0
830.923999987,1926.0
830.924999987,2071.0
830.925999987,2213.0
830.926999987,2205.0
830.927999987,2155.0
830.928999987,2040.0
830.929999987,1989.0
830.930999987,1939.0
830.931999987,1961.0
830.932999987,2133.0
830.933999987,2231.0
830.934999987,2194.0
830.935999987,2125.0
830.936999987,2042.0
830.937999987,1980.0
830.938999987,1924.0
830.939999987,1966.0
830.940999987,2158.0
830.941999987,2261.0
830.942999987,2162.0
830.943999987,2083.0
830.944999987,2034.0
830.945999987,1966.0
830.946999987,1905.0
830.947999987,1959.0
830.948999987,2193.0
830.949999987,2247.0
830.950999987,2163.0
830.951999987,2001.0
830.952999987,2019.0
830.953999987,2009.0
830.954999987,1911.0
830.955999987,1981.0
830.956999987,2208.0
830.957999987,2264.0
830.958999987,2149.0
830.959999987,2005.0
830.960999987,2002.0
830.961999987,1984.0
830.962999987,1908.0
830.963999987,2023.0
830.964999987,2224.0
830.965999987,2271.0
830.966999987,2123.0
830.967999987,2034.0
830.968999987,2006.0
830.969999987,1991.0
830.970999987,1927.0
830.971999987,2077.0
830.972999987,2223.0
830.973999987,2231.0
830.974999987,2089.0
830.975999987,1994.0
830.976999987,2007.0
830.977999987,1954.0
830.978999987,1935.0
830.979999987,2129.0
830.980999987,2250.0
830.981999987,2194.0
830.982999987,2026.0
830.983999987,1959.0
830.984999987,1969.0
830.985999987,1941.0
830.986999987,1911.0
830.987999987,2109.0
830.988999987,2220.0
830.989999987,2131.0
830.990999987,1948.0
830.991999987,1944.0
830.992999987,1974.0
830.993999987,1912.0
830.994999987,1940.0
830.995999987,2152.0
830.996999987,2237.0
830.997999987,2146.0
830.998999987,1986.0
830.999999987,1959.0
831.000999987,1975.0
831.001999987,1949.0
831.002999987,2023.0
831.003999987,2182.0
831.004999987,2244.0
831.005999987,2163.0
831.006999987,2009.0
831.007999987,1979.0
831.008999987,1996.0
831.009999987,1985.0
831.010999987,2079.0
831.011999987,2199.0
831.012999987,2218.0
831.013999987,2160.0
831.014999987,1994.0
831.015999987,1968.0
831.016999987,1981.0
831.017999987,2005.0
831.018999987,2149.0
831.019999987,2227.0
831.020999987,2193.0
831.021999987,2109.0
831.022999987,1998.0
831.023999987,1977.0
831.024999987,1969.0
831.025999987,2016.0
831.026999987,2161.0
831.027999987,2251.0
831.028999987,2177.0
831.029999987,2033.0
831.030999987,1950.0
831.031999987,1974.0
831.032999987,1935.0
831.033999987,2027.0
831.034999987,2167.0
831.035999987,2206.0
831.036999987,2111.0
831.037999987,1943.0
831.038999987,1771.0
831.039999987,1708.0
831.040999987,1590.0
831.041999987,1669.0
831.042999987,1768.0
831.043999987,1962.0
831.044999987,2123.0
831.045999987,2250.0
831.046999987,2324.0
831.047999987,2470.0
831.048999987,2627.0
831.049999987,2807.0
831.050999987,2906.0
831.051999987,2871.0
831.052999987,2877.0
831.053999987,2688.0
831.054999987,2510.0
831.055999987,2418.0
831.056999987,2416.0
831.057999987,2517.0
831.058999987,2475.0
831.059999987,2348.0
831.060999987,2182.0
831.061999987,2074.0
831.062999987,1908.0
831.063999987,1798.0
831.064999987,1801.0
831.065999987,1971.0
831.066999987,1932.0
831.067999987,1863.0
831.068999987,1767.0
831.069999987,1779.0
831.070999987,1696.0
831.071999987,1668.0
831.072999987,1795.0
831.073999987,1956.0
831.074999987,1954.0
831.075999987,1889.0
831.076999987,1781.0
831.077999987,1776.0
831.078999987,1735.0
831.079999987,1710.0
831.080999987,1871.0
831.081999987,2013.0
831.082999987,1987.0
831.083999987,1919.0
831.084999987,1837.0
831.085999987,1810.0
831.086999987,1728.0
831.087999987,1768.0
831.088999987,1934.0
831.089999987,2057.0
831.090999987,1979.0
831.091999987,1905.0
831.092999987,1873.0
831.093999987,1823.0
831.094999987,1738.0
831.095999987,1776.0
831.096999987,1988.0
831.097999987,2069.0
831.098999987,1986.0
831.099999987,1827.0
831.100999987,1833.0
831.101999987,1836.0
831.102999987,1751.0
831.103999987,1781.0
831.104999987,2005.0
831.105999987,2067.0
831.106999987,1960.0
831.107999987,1822.0
831.108999987,1813.0
831.109999987,1821.0
831.110999987,1727.0
831.111999987,1812.0
831.112999987,2005.0
831.113999987,2051.0
831.114999987,1915.0
831.115999987,1843.0
831.116999987,1787.0
831.117999987,1798.0
831.118999987,1726.0
831.119999987,1858.0
831.120999987,2017.0
831.121999987,2037.0
831.122999987,1903.0
831.123999987,1800.0
831.124999987,1816.0
831.125999987,1795.0
831.126999987,1790.0
831.127999987,1944.0
831.128999987,2064.0
831.129999987,2038.0
831.130999987,1913.0
831.131999987,1842.0
831.132999987,1870.0
831.133999987,1871.0
831.134999987,1868.0
831.135999987,2072.0
831.136999987,2198.0
831.137999987,2157.0
831.138999987,1985.0
831.139999987,1967.0
831.140999987,2018.0
831.141999987,2014.0
831.142999987,2028.0
831.143999987,2217.0
831.144999987,2320.0
831.145999987,2272.0
831.146999987,2108.0
831.147999987,2084.0
831.148999987,2129.0
831.149999987,2125.0
831.150999987,2174.0
831.151999987,2326.0
831.152999987,2398.0
831.153999987,2328.0
831.154999987,2152.0
831.155999987,2113.0
831.156999987,2154.0
831.157999987,2169.0
831.158999987,2244.0
831.159999987,2368.0
831.160999987,2388.0
831.161999987,2332.0
831.162999987,2145.0
831.163999987,2058.0
831.164999987,2120.0
831.165999987,2194.0
831.166999987,2267.0
831.167999987,2374.0
831.168999987,2329.0
831.169999987,2258.0
831.170999987,2078.0
831.171999987,2112.0
831.172999987,2100.0
831.173999987,2142.0
831.174999987,2272.0
831.175999987,2357.0
831.176999987,2286.0
831.177999987,2152.0
831.178999987,2072.0
831.179999987,2068.0
831.180999987,2072.0
831.181999987,2126.0
831.182999987,2265.0
831.183999987,2327.0
831.184999987,2271.0
831.185999987,2138.0
831.186999987,2030.0
831.187999987,2044.0
831.188999987,2055.0
831.189999987,2191.0
831.190999987,2260.0
831.191999987,2284.0
831.192999987,2222.0
831.193999987,2112.0
831.194999987,2000.0
831.195999987,1993.0
831.196999987,2045.0
831.197999987,2195.0
831.198999987,2258.0
831.199999987,2220.0
831.200999987,2204.0
831.201999987,2088.0
831.202999987,1980.0
831.203999987,1948.0
831.204999987,2039.0
831.205999987,2213.0
831.206999987,2235.0
831.207999987,2180.0
831.208999987,2112.0
831.209999987,2043.0
831.210999987,1962.0
831.211999987,1939.0
831.212999987,2006.0
831.213999987,2210.0
831.214999987,2218.0
831.215999987,2159.0
831.216999987,2074.0
831.217999987,2035.0
831.218999987,1956.0
831.219999987,1922.0
831.220999987,2039.0
831.221999987,2227.0
831.222999987,2219.0
831.223999987,2143.0
831.224999987,2057.0
831.225999987,2015.0
831.226999987,1953.0
831.227999987,1944.0
831.228999987,2098.0
831.229999987,2260.0
831.230999987,2219.0
831.231999987,2129.0
831.232999987,2053.0
831.233999987,2002.0
831.234999987,1940.0
831.235999987,1950.0
831.236999987,2119.0
831.237999987,2262.0
831.238999987,2171.0
831.239999987,2107.0
831.240999987,2018.0
831.241999987,2008.0
831.242999987,1922.0
831.243999987,1952.0
831.244999987,2192.0
831.245999987,2279.0
831.246999987,2168.0
831.247999987,2033.0
831.248999987,2008.0
831.249999987,2000.0
831.250999987,1922.0
831.251999987,1942.0
831.252999987,2189.0
831.253999987,2282.0
831.254999987,2164.0
831.255999987,1994.0
831.256999987,2002.0
831.257999987,1994.0
831.258999987,1927.0
831.259999987,1988.0
831.260999987,2188.0
831.261999987,2265.0
831.262999987,2128.0
831.263999987,2008.0
831.264999987,1984.0
831.265999987,1992.0
831.266999987,1915.0
831.267999987,2055.0
831.268999987,2191.0
831.269999987,2266.0
831.270999987,2098.0
831.271999987,1976.0
831.272999987,1992.0
831.273999987,1964.0
831.274999987,1935.0
831.275999987,2092.0
831.276999987,2232.0
831.277999987,2206.0
831.278999987,2068.0
831.279999987,1970.0
831.280999987,1976.0
831.281999987,1945.0
831.282999987,1935.0
831.283999987,2115.0
831.284999987,2242.0
831.285999987,2196.0
831.286999987,2011.0
831.287999987,1979.0
831.288999987,1994.0
831.289999987,1952.0
831.290999987,1956.0
831.291999987,2140.0
831.292999987,2258.0
831.293999987,2175.0
831.294999987,1990.0
831.295999987,1955.0
831.296999987,1978.0
831.297999987,1954.0
831.298999987,2005.0
831.299999987,2157.0
831.300999987,2244.0
831.301999987,2189.0
831.302999987,1994.0
831.303999987,1954.0
831.304999987,1976.0
831.305999987,1971.0
831.306999987,2050.0
831.307999987,2176.0
831.308999987,2214.0
831.309999987,2151.0
831.310999987,1978.0
831.311999987,1929.0
831.312999987,1928.0
831.313999987,1959.0
831.314999987,2055.0
831.315999987,2162.0
831.316999987,2140.0
831.317999987,2102.0
831.318999987,1963.0
831.319999987,1941.0
831.320999987,1925.0
831.321999987,1969.0
831.322999987,2121.0
831.323999987,2185.0
831.324999987,2149.0
831.325999987,2035.0
831.326999987,1951.0
831.327999987,1948.0
831.328999987,1932.0
831.329999987,2013.0
831.330999987,2170.0
831.331999987,2218.0
831.332999987,2186.0
831.333999987,2086.0
831.334999987,1986.0
831.335999987,1982.0
831.336999987,1962.0
831.337999987,2069.0
831.338999987,2205.0
831.339999987,2223.0
831.340999987,2181.0
831.341999987,2082.0
831.342999987,1971.0
831.343999987,1995.0
831.344999987,2007.0
831.345999987,2126.0
831.346999987,2232.0
831.347999987,2202.0
831.348999987,2160.0
831.349999987,2059.0
831.350999987,1978.0
831.351999987,1950.0
831.352999987,2026.0
831.353999987,2175.0
831.354999987,2225.0
831.355999987,2164.0
831.356999987,2113.0
831.357999987,2041.0
831.358999987,1960.0
831.359999987,1921.0
831.360999987,1957.0
831.361999987,2160.0
831.362999987,2168.0
831.363999987,2079.0
831.364999987,1904.0
831.365999987,1819.0
831.366999987,1630.0
831.367999987,1501.0
831.368999987,1574.0
831.369999987,1906.0
831.370999987,2109.0
831.371999987,2277.0
831.372999987,2417.0
831.373999987,2507.0
831.374999987,2587.0
831.375999987,2618.0
831.376999987,2769.0
831.377999987,2955.0
831.378999987,2945.0
831.379999987,2815.0
831.380999987,2643.0
831.381999987,2537.0
831.382999987,2413.0
831.383999987,2335.0
831.384999987,2403.0
831.385999987,2484.0
831.386999987,2341.0
831.387999987,2150.0
831.388999987,1958.0
831.389999987,1870.0
831.390999987,1714.0
831.391999987,1734.0
831.392999987,1861.0
831.393999987,1969.0
831.394999987,1881.0
831.395999987,1761.0
831.396999987,1724.0
831.397999987,1726.0
831.398999987,1672.0
831.399999987,1670.0
831.400999987,1903.0
831.401999987,1994.0
831.402999987,1908.0
831.403999987,1740.0
831.404999987,1750.0
831.405999987,1776.0
831.406999987,1683.0
831.407999987,1741.0
831.408999987,1952.0
831.409999987,2045.0
831.410999987,1930.0
831.411999987,1785.0
831.412999987,1772.0
831.413999987,1807.0
831.414999987,1728.0
831.415999987,1836.0
831.416999987,2010.0
831.417999987,2064.0
831.418999987,1922.0
831.419999987,1793.0
831.420999987,1810.0
831.421999987,1812.0
831.422999987,1762.0
831.423999987,1905.0
831.424999987,2052.0
831.425999987,2037.0
831.426999987,1905.0
831.427999987,1769.0
831.428999987,1803.0
831.429999987,1778.0
831.430999987,1761.0
831.431999987,1912.0
831.432999987,2023.0
831.433999987,1977.0
831.434999987,1820.0
831.435999987,1744.0
831.436999987,1779.0
831.437999987,1770.0
831.438999987,1750.0
831.439999987,1933.0
831.440999987,2044.0
831.441999987,1957.0
831.442999987,1785.0
831.443999987,1741.0
831.444999987,1762.0
831.445999987,1757.0
831.446999987,1786.0
831.447999987,1945.0
831.448999987,2047.0
831.449999987,1994.0
831.450999987,1803.0
831.451999987,1736.0
831.452999987,1796.0
831.453999987,1809.0
831.454999987,1886.0
831.455999987,2020.0
831.456999987,2081.0
831.457999987,2034.0
831.458999987,1872.0
831.459999987,1818.0
831.460999987,1881.0
831.461999987,1947.0
831.462999987,2048.0
831.463999987,2167.0
831.464999987,2167.0
831.465999987,2148.0
831.466999987,1996.0
831.467999987,1978.0
831.468999987,2019.0
831.469999987,2091.0
831.470999987,2228.0
831.471999987,2318.0
831.472999987,2326.0
831.473999987,2201.0
831.474999987,2098.0
831.475999987,2079.0
831.476999987,2095.0
831.477999987,2188.0
831.478999987,2313.0
831.479999987,2463.0
831.480999987,2361.0
831.481999987,2227.0
831.482999987,2149.0
831.483999987,2136.0
831.484999987,2158.0
831.485999987,2262.0
831.486999987,2378.0
831.487999987,2415.0
831.488999987,2348.0
831.489999987,2270.0
831.490999987,2119.0
831.491999987,2129.0
831.492999987,2156.0
831.493999987,2309.0
831.494999987,2385.0
831.495999987,2389.0
831.496999987,2320.0
831.497999987,2229.0
831.498999987,2110.0
831.499999987,2057.0
831.500999987,2147.0
831.501999987,2316.0
831.502999987,2363.0
831.503999987,2300.0
831.504999987,2260.0
831.505999987,2167.0
831.506999987,2086.0
831.507999987,2045.0
831.508999987,2114.0
831.509999987,2321.0
831.510999987,2329.0
831.511999987,2266.0
831.512999987,2139.0
831.513999987,2124.0
831.514999987,2070.0
831.515999987,2009.0
831.516999987,2111.0
831.517999987,2322.0
831.518999987,2310.0
831.519999987,2223.0
831.520999987,2120.0
831.521999987,2090.0
831.522999987,2025.0
831.523999987,1980.0
831.524999987,2125.0
831.525999987,2310.0
831.526999987,2287.0
831.527999987,2191.0
831.528999987,2078.0
831.529999987,2055.0
831.530999987,2008.0
831.531999987,1970.0
831.532999987,2143.0
831.533999987,2295.0
831.534999987,2262.0
831.535999987,2135.0
831.536999987,2048.0
831.537999987,2028.0
831.538999987,1949.0
831.539999987,1966.0
831.540999987,2167.0
831.541999987,2287.0
831.542999987,2213.0
831.543999987,2066.0
831.544999987,2039.0
831.545999987,2010.0
831.546999987,1947.0
831.547999987,1939.0
831.548999987,2189.0
831.549999987,2283.0
831.550999987,2191.0
831.551999987,2001.0
831.552999987,2034.0
831.553999987,2015.0
831.554999987,1951.0
831.555999987,1976.0
831.556999987,2193.0
831.557999987,2281.0
831.558999987,2169.0
831.559999987,2015.0
831.560999987,1987.0
831.561999987,2012.0
831.562999987,1933.0
831.563999987,2038.0
831.564999987,2222.0
831.565999987,2299.0
831.566999987,2144.0
831.567999987,2020.0
831.568999987,2030.0
831.569999987,2016.0
831.570999987,1935.0
831.571999987,2067.0
831.572999987,2240.0
831.573999987,2252.0
831.574999987,2114.0
831.575999987,1996.0
831.576999987,1993.0
831.577999987,1960.0
831.578999987,1973.0
831.579999987,2113.0
831.580999987,2240.0
831.581999987,2209.0
831.582999987,2050.0
831.583999987,1974.0
831.584999987,1989.0
831.585999987,1967.0
831.586999987,1950.0
831.587999987,2141.0
831.588999987,2245.0
831.589999987,2166.0
831.590999987,2012.0
831.591999987,1974.0
831.592999987,1987.0
831.593999987,1967.0
831.594999987,1984.0
831.595999987,2158.0
831.596999987,2242.0
831.597999987,2197.0
831.598999987,2010.0
831.599999987,1950.0
831.600999987,1983.0
831.601999987,1958.0
831.602999987,2046.0
831.603999987,2173.0
831.604999987,2259.0
831.605999987,2162.0
831.606999987,1991.0
831.607999987,1943.0
831.608999987,1967.0
831.609999987,1992.0
831.610999987,2080.0
831.611999987,2183.0
831.612999987,2199.0
831.613999987,2134.0
831.614999987,1980.0
831.615999987,1935.0
831.616999987,1917.0
831.617999987,1976.0
831.618999987,2110.0
831.619999987,2176.0
831.620999987,2157.0
831.621999987,2067.0
831.622999987,1954.0
831.623999987,1943.0
831.624999987,1910.0
831.625999987,1971.0
831.626999987,2144.0
831.627999987,2173.0
831.628999987,2122.0
831.629999987,2027.0
831.630999987,1952.0
831.631999987,1936.0
831.632999987,1924.0
831.633999987,2018.0
831.634999987,2170.0
831.635999987,2178.0
831.636999987,2131.0
831.637999987,2061.0
831.638999987,1924.0
831.639999987,1944.0
831.640999987,1943.0
831.641999987,2055.0
831.642999987,2197.0
831.643999987,2161.0
831.644999987,2107.0
831.645999987,1993.0
831.646999987,1914.0
831.647999987,1882.0
831.648999987,1962.0
831.649999987,2108.0
831.650999987,2177.0
831.651999987,2110.0
831.652999987,2075.0
831.653999987,1990.0
831.654999987,1918.0
831.655999987,1867.0
831.656999987,1948.0
831.657999987,2147.0
831.658999987,2178.0
831.659999987,2112.0
831.660999987,2013.0
831.661999987,1999.0
831.662999987,1935.0
831.663999987,1908.0
831.664999987,1964.0
831.665999987,2208.0
831.666999987,2218.0
831.667999987,2145.0
831.668999987,2027.0
831.669999987,2016.0
831.670999987,1959.0
831.671999987,1935.0
831.672999987,2030.0
831.673999987,2224.0
831.674999987,2227.0
831.675999987,2123.0
831.676999987,2032.0
831.677999987,2014.0
831.678999987,1971.0
831.679999987,1937.0
831.680999987,2078.0
831.681999987,2252.0
831.682999987,2207.0
831.683999987,2102.0
831.684999987,2006.0
831.685999987,2005.0
831.686999987,1930.0
831.687999987,1948.0
831.688999987,2135.0
831.689999987,2239.0
831.690999987,2154.0
831.691999987,2057.0
831.692999987,1951.0
831.693999987,1975.0
831.694999987,1903.0
831.695999987,1855.0
831.696999987,1999.0
831.697999987,2009.0
831.698999987,1838.0
831.699999987,1561.0
831.700999987,1512.0
831.701999987,1596.0
831.702999987,1682.0
831.703999987,1901.0
831.704999987,2353.0
831.705999987,2591.0
831.706999987,2622.0
831.707999987,2531.0
831.708999987,2595.0
831.709999987,2620.0
831.710999987,2583.0
831.711999987,2649.0
831.712999987,2753.0
831.713999987,2734.0
831.714999987,2552.0
831.715999987,2319.0
831.716999987,2331.0
831.717999987,2276.0
831.718999987,2150.0
831.719999987,2177.0
831.720999987,2297.0
831.721999987,2229.0
831.722999987,2036.0
831.723999987,1787.0
831.724999987,1785.0
831.725999987,1756.0
831.726999987,1730.0
831.727999987,1835.0
831.728999987,1984.0
831.729999987,1948.0
831.730999987,1821.0
831.731999987,1688.0
831.732999987,1739.0
831.733999987,1740.0
831.734999987,1730.0
831.735999987,1873.0
831.736999987,2012.0
831.737999987,1946.0
831.738999987,1789.0
831.739999987,1703.0
831.740999987,1778.0
831.741999987,1760.0
831.742999987,1803.0
831.743999987,1950.0
831.744999987,2045.0
831.745999987,2001.0
831.746999987,1817.0
831.747999987,1712.0
831.748999987,1784.0
831.749999987,1796.0
831.750999987,1876.0
831.751999987,1979.0
831.752999987,2079.0
831.753999987,2016.0
831.754999987,1815.0
831.755999987,1739.0
831.756999987,1811.0
831.757999987,1840.0
831.758999987,1901.0
831.759999987,2013.0
831.760999987,2023.0
831.761999987,1982.0
831.762999987,1820.0
831.763999987,1728.0
831.764999987,1763.0
831.765999987,1834.0
831.766999987,1950.0
831.767999987,2019.0
831.768999987,1986.0
831.769999987,1923.0
831.770999987,1796.0
831.771999987,1738.0
831.772999987,1752.0
831.773999987,1819.0
831.774999987,1977.0
831.775999987,2017.0
831.776999987,1971.0
831.777999987,1837.0
831.778999987,1792.0
831.779999987,1727.0
831.780999987,1753.0
831.781999987,1875.0
831.782999987,2015.0
831.783999987,2040.0
831.784999987,2001.0
831.785999987,1927.0
831.786999987,1807.0
831.787999987,1786.0
831.788999987,1826.0
831.789999987,1984.0
831.790999987,2121.0
831.791999987,2120.0
831.792999987,2079.0
831.793999987,2005.0
831.794999987,1921.0
831.795999987,1905.0
831.796999987,1976.0
831.797999987,2161.0
831.798999987,2256.0
831.799999987,2228.0
831.800999987,2198.0
831.801999987,2106.0
831.802999987,2045.0
831.803999987,2007.0
831.804999987,2085.0
831.805999987,2304.0
831.806999987,2363.0
831.807999987,2306.0
831.808999987,2220.0
831.809999987,2202.0
831.810999987,2118.0
831.811999987,2079.0
831.812999987,2151.0
831.813999987,2416.0
831.814999987,2411.0
831.815999987,2322.0
831.816999987,2212.0
831.817999987,2212.0
831.818999987,2148.0
831.819999987,2090.0
831.820999987,2209.0
831.821999987,2420.0
831.822999987,2422.0
831.823999987,2310.0
831.824999987,2221.0
831.825999987,2198.0
831.826999987,2136.0
831.827999987,2080.0
831.828999987,2241.0
831.829999987,2419.0
831.830999987,2410.0
831.831999987,2264.0
831.832999987,2147.0
831.833999987,2159.0
831.834999987,2081.0
831.835999987,2060.0
831.836999987,2276.0
831.837999987,2384.0
831.838999987,2320.0
831.839999987,2206.0
831.840999987,2129.0
831.841999987,2096.0
831.842999987,2072.0
831.843999987,2047.0
831.844999987,2247.0
831.845999987,2389.0
831.846999987,2285.0
831.847999987,2112.0
831.848999987,2084.0
831.849999987,2095.0
831.850999987,2015.0
831.851999987,2020.0
831.852999987,2248.0
831.853999987,2335.0
831.854999987,2237.0
831.855999987,2055.0
831.856999987,2041.0
831.857999987,2081.0
831.858999987,1996.0
831.859999987,2085.0
831.860999987,2243.0
831.861999987,2332.0
831.862999987,2197.0
831.863999987,2046.0
831.864999987,2034.0
831.865999987,2046.0
831.866999987,1979.0
831.867999987,2070.0
831.868999987,2247.0
831.869999987,2300.0
831.870999987,2166.0
831.871999987,2019.0
831.872999987,2007.0
831.873999987,1995.0
831.874999987,1988.0
831.875999987,2108.0
831.876999987,2258.0
831.877999987,2234.0
831.878999987,2129.0
831.879999987,1999.0
831.880999987,1991.0
831.881999987,1988.0
831.882999987,1980.0
831.883999987,2126.0
831.884999987,2242.0
831.885999987,2236.0
831.886999987,2056.0
831.887999987,1996.0
831.888999987,2001.0
831.889999987,1974.0
831.890999987,1999.0
831.891999987,2155.0
831.892999987,2236.0
831.893999987,2209.0
831.894999987,2051.0
831.895999987,1979.0
831.896999987,1984.0
831.897999987,1975.0
831.898999987,2048.0
831.899999987,2179.0
831.900999987,2257.0
831.901999987,2190.0
831.902999987,2023.0
831.903999987,1963.0
831.904999987,1997.0
831.905999987,2018.0
831.906999987,2091.0
831.907999987,2200.0
831.908999987,2223.0
831.909999987,2182.0
831.910999987,2043.0
831.911999987,1970.0
831.912999987,1962.0
831.913999987,2016.0
831.914999987,2141.0
831.915999987,2202.0
831.916999987,2178.0
831.917999987,2129.0
831.918999987,2007.0
831.919999987,1983.0
831.920999987,1949.0
831.921999987,2001.0
831.922999987,2170.0
831.923999987,2211.0
831.924999987,2157.0
831.925999987,2057.0
831.926999987,2000.0
831.927999987,1964.0
831.928999987,1930.0
831.929999987,2030.0
831.930999987,2203.0
831.931999987,2198.0
831.932999987,2151.0
831.933999987,2050.0
831.934999987,1985.0
831.935999987,1967.0
831.936999987,1940.0
831.937999987,2080.0
831.938999987,2185.0
831.939999987,2190.0
831.940999987,2131.0
831.941999987,2056.0
831.942999987,1972.0
831.943999987,1964.0
831.944999987,1969.0
831.945999987,2131.0
831.946999987,2211.0
831.947999987,2178.0
831.948999987,2123.0
831.949999987,2042.0
831.950999987,1979.0
831.951999987,1895.0
831.952999987,1964.0
831.953999987,2151.0
831.954999987,2202.0
831.955999987,2147.0
831.956999987,2055.0
831.957999987,2012.0
831.958999987,1956.0
831.959999987,1886.0
831.960999987,1923.0
831.961999987,2151.0
831.962999987,2195.0
831.963999987,2124.0
831.964999987,1983.0
831.965999987,1997.0
831.966999987,1948.0
831.967999987,1895.0
831.968999987,1977.0
831.969999987,2178.0
831.970999987,2200.0
831.971999987,2134.0
831.972999987,2006.0
831.973999987,1993.0
831.974999987,1978.0
831.975999987,1925.0
831.976999987,2045.0
831.977999987,2234.0
831.978999987,2242.0
831.979999987,2147.0
831.980999987,2013.0
831.981999987,2010.0
831.982999987,1979.0
831.983999987,1954.0
831.984999987,2095.0
831.985999987,2258.0
831.986999987,2217.0
831.987999987,2119.0
831.988999987,2035.0
831.989999987,2016.0
831.990999987,1938.0
831.991999987,1976.0
831.992999987,2164.0
831.993999987,2290.0
831.994999987,2216.0
831.995999987,2061.0
831.996999987,1999.0
831.997999987,2015.0
831.998999987,1971.0
831.999999987,1960.0
832.000999987,2177.0
832.001999987,2276.0
832.002999987,2177.0
832.003999987,1983.0
832.004999987,1980.0
832.005999987,2015.0
832.006999987,1942.0
832.007999987,1962.0
832.008999987,2150.0
832.009999987,2200.0
832.010999987,2061.0
832.011999987,1810.0
832.012999987,1694.0
832.013999987,1644.0
832.014999987,1507.0
832.015999987,1571.0
832.016999987,1864.0
832.017999987,2093.0
832.018999987,2186.0
832.019999987,2217.0
832.020999987,2389.0
832.021999987,2531.0
832.022999987,2600.0
832.023999987,2702.0
832.024999987,2858.0
832.025999987,2878.0
832.026999987,2758.0
832.027999987,2502.0
832.028999987,2438.0
832.029999987,2397.0
832.030999987,2367.0
832.031999987,2434.0
832.032999987,2482.0
832.033999987,2374.0
832.034999987,2193.0
832.035999987,1996.0
832.036999987,1963.0
832.037999987,1868.0
832.038999987,1838.0
832.039999987,1955.0
832.040999987,2005.0
832.041999987,1945.0
832.042999987,1809.0
832.043999987,1704.0
832.044999987,1751.0
832.045999987,1764.0
832.046999987,1815.0
832.047999987,1940.0
832.048999987,2032.0
832.049999987,1962.0
832.050999987,1819.0
832.051999987,1717.0
832.052999987,1774.0
832.053999987,1797.0
832.054999987,1890.0
832.055999987,2011.0
832.056999987,2043.0
832.057999987,1986.0
832.058999987,1827.0
832.059999987,1746.0
832.060999987,1767.0
832.061999987,1831.0
832.062999987,1961.0
832.063999987,2028.0
832.064999987,1996.0
832.065999987,1956.0
832.066999987,1824.0
832.067999987,1753.0
832.068999987,1752.0
832.069999987,1835.0
832.070999987,2008.0
832.071999987,2054.0
832.072999987,1998.0
832.073999987,1898.0
832.074999987,1822.0
832.075999987,1767.0
832.076999987,1769.0
832.077999987,1839.0
832.078999987,2027.0
832.079999987,2047.0
832.080999987,1987.0
832.081999987,1876.0
832.082999987,1799.0
832.083999987,1747.0
832.084999987,1765.0
832.085999987,1893.0
832.086999987,2035.0
832.087999987,2040.0
832.088999987,1958.0
832.089999987,1872.0
832.090999987,1809.0
832.091999987,1740.0
832.092999987,1766.0
832.093999987,1948.0
832.094999987,2054.0
832.095999987,2021.0
832.096999987,1957.0
832.097999987,1867.0
832.098999987,1795.0
832.099999987,1749.0
832.100999987,1809.0
832.101999987,2019.0
832.102999987,2125.0
832.103999987,2036.0
832.104999987,1984.0
832.105999987,1931.0
832.106999987,1878.0
832.107999987,1846.0
832.108999987,1922.0
832.109999987,2145.0
832.110999987,2258.0
832.111999987,2144.0
832.112999987,2031.0
832.113999987,2067.0
832.114999987,2024.0
832.115999987,1964.0
832.116999987,2060.0
832.117999987,2316.0
832.118999987,2366.0
832.119999987,2283.0
832.120999987,2128.0
832.121999987,2150.0
832.122999987,2126.0
832.123999987,2070.0
832.124999987,2190.0
832.125999987,2404.0
832.126999987,2428.0
832.127999987,2300.0
832.128999987,2186.0
832.129999987,2193.0
832.130999987,2165.0
832.131999987,2111.0
832.132999987,2264.0
832.133999987,2428.0
832.134999987,2419.0
832.135999987,2278.0
832.136999987,2194.0
832.137999987,2144.0
832.138999987,2124.0
832.139999987,2109.0
832.140999987,2285.0
832.141999987,2427.0
832.142999987,2364.0
832.143999987,2197.0
832.144999987,2136.0
832.145999987,2150.0
832.146999987,2098.0
832.147999987,2076.0
832.148999987,2298.0
832.149999987,2401.0
832.150999987,2314.0
832.151999987,2113.0
832.152999987,2100.0
832.153999987,2116.0
832.154999987,2058.0
832.155999987,2072.0
832.156999987,2257.0
832.157999987,2358.0
832.158999987,2268.0
832.159999987,2080.0
832.160999987,2043.0
832.161999987,2063.0
832.162999987,2027.0
832.163999987,2097.0
832.164999987,2266.0
832.165999987,2323.0
832.166999987,2214.0
832.167999987,2070.0
832.168999987,2023.0
832.169999987,2051.0
832.170999987,2025.0
832.171999987,2112.0
832.172999987,2239.0
832.173999987,2255.0
832.174999987,2175.0
832.175999987,2014.0
832.176999987,1992.0
832.177999987,1979.0
832.178999987,2011.0
832.179999987,2124.0
832.180999987,2233.0
832.181999987,2203.0
832.182999987,2102.0
832.183999987,1971.0
832.184999987,1963.0
832.185999987,1963.0
832.186999987,1982.0
832.187999987,2149.0
832.188999987,2227.0
832.189999987,2166.0
832.190999987,2021.0
832.191999987,1944.0
832.192999987,1963.0
832.193999987,1932.0
832.194999987,2007.0
832.195999987,2144.0
832.196999987,2232.0
832.197999987,2164.0
832.198999987,2021.0
832.199999987,1929.0
832.200999987,1973.0
832.201999987,1953.0
832.202999987,2061.0
832.203999987,2182.0
832.204999987,2208.0
832.205999987,2149.0
832.206999987,2026.0
832.207999987,1927.0
832.208999987,1938.0
832.209999987,1984.0
832.210999987,2103.0
832.211999987,2171.0
832.212999987,2147.0
832.213999987,2134.0
832.214999987,2006.0
832.215999987,1949.0
832.216999987,1917.0
832.217999987,1980.0
832.218999987,2139.0
832.219999987,2185.0
832.220999987,2134.0
832.221999987,2064.0
832.222999987,1988.0
832.223999987,1937.0
832.224999987,1898.0
832.225999987,1965.0
832.226999987,2169.0
832.227999987,2179.0
832.228999987,2131.0
832.229999987,2029.0
832.230999987,1986.0
832.231999987,1935.0
832.232999987,1922.0
832.233999987,2023.0
832.234999987,2178.0
832.235999987,2179.0
832.236999987,2100.0
832.237999987,2040.0
832.238999987,1959.0
832.239999987,1927.0
832.240999987,1909.0
832.241999987,2065.0
832.242999987,2191.0
832.243999987,2173.0
832.244999987,2110.0
832.245999987,1994.0
832.246999987,1950.0
832.247999987,1880.0
832.248999987,1919.0
832.249999987,2103.0
832.250999987,2202.0
832.251999987,2128.0
832.252999987,2056.0
832.253999987,1981.0
832.254999987,1952.0
832.255999987,1882.0
832.256999987,1913.0
832.257999987,2127.0
832.258999987,2211.0
832.259999987,2121.0
832.260999987,1975.0
832.261999987,1970.0
832.262999987,1955.0
832.263999987,1875.0
832.264999987,1931.0
832.265999987,2152.0
832.266999987,2211.0
832.267999987,2112.0
832.268999987,1962.0
832.269999987,1959.0
832.270999987,1986.0
832.271999987,1884.0
832.272999987,1961.0
832.273999987,2170.0
832.274999987,2212.0
832.275999987,2088.0
832.276999987,1954.0
832.277999987,1950.0
832.278999987,1959.0
832.279999987,1892.0
832.280999987,2018.0
832.281999987,2179.0
832.282999987,2187.0
832.283999987,2064.0
832.284999987,1963.0
832.285999987,1943.0
832.286999987,1925.0
832.287999987,1903.0
832.288999987,2054.0
832.289999987,2188.0
832.290999987,2155.0
832.291999987,2020.0
832.292999987,1905.0
832.293999987,1929.0
832.294999987,1876.0
832.295999987,1866.0
832.296999987,2066.0
832.297999987,2186.0
832.298999987,2130.0
832.299999987,1965.0
832.300999987,1902.0
832.301999987,1923.0
832.302999987,1885.0
832.303999987,1956.0
832.304999987,2104.0
832.305999987,2193.0
832.306999987,2131.0
832.307999987,1950.0
832.308999987,1898.0
832.309999987,1936.0
832.310999987,1938.0
832.311999987,1996.0
832.312999987,2168.0
832.313999987,2250.0
832.314999987,2162.0
832.315999987,1999.0
832.316999987,1954.0
832.317999987,1992.0
832.318999987,1998.0
832.319999987,2066.0
832.320999987,2203.0
832.321999987,2226.0
832.322999987,2165.0
832.323999987,1970.0
832.324999987,1939.0
832.325999987,1960.0
832.326999987,2025.0
832.327999987,2113.0
832.328999987,2209.0
832.329999987,2194.0
832.330999987,2115.0
832.331999987,1967.0
832.332999987,1965.0
832.333999987,1954.0
832.334999987,2002.0
832.335999987,2149.0
832.336999987,2233.0
832.337999987,2186.0
832.338999987,2041.0
832.339999987,1931.0
832.340999987,1937.0
832.341999987,1935.0
832.342999987,2007.0
832.343999987,2121.0
832.344999987,2179.0
832.345999987,2048.0
832.346999987,1857.0
832.347999987,1617.0
832.348999987,1566.0
832.349999987,1548.0
832.350999987,1761.0
832.351999987,2057.0
832.352999987,2339.0
832.353999987,2482.0
832.354999987,2512.0
832.355999987,2514.0
832.356999987,2609.0
832.357999987,2682.0
832.358999987,2867.0
832.359999987,2931.0
832.360999987,2906.0
832.361999987,2764.0
832.362999987,2592.0
832.363999987,2404.0
832.364999987,2329.0
832.365999987,2329.0
832.366999987,2432.0
832.367999987,2403.0
832.368999987,2278.0
832.369999987,2111.0
832.370999987,1972.0
832.371999987,1806.0
832.372999987,1720.0
832.373999987,1769.0
832.374999987,1962.0
832.375999987,1967.0
832.376999987,1909.0
832.377999987,1780.0
832.378999987,1780.0
832.379999987,1706.0
832.380999987,1697.0
832.381999987,1806.0
832.382999987,2008.0
832.383999987,1998.0
832.384999987,1934.0
832.385999987,1845.0
832.386999987,1828.0
832.387999987,1752.0
832.388999987,1744.0
832.389999987,1908.0
832.390999987,2071.0
832.391999987,2039.0
832.392999987,1975.0
832.393999987,1874.0
832.394999987,1833.0
832.395999987,1768.0
832.396999987,1791.0
832.397999987,1960.0
832.398999987,2107.0
832.399999987,2008.0
832.400999987,2000.0
832.401999987,1884.0
832.402999987,1857.0
832.403999987,1770.0
832.404999987,1820.0
832.405999987,2032.0
832.406999987,2127.0
832.407999987,2015.0
832.408999987,1904.0
832.409999987,1892.0
832.410999987,1856.0
832.411999987,1793.0
832.412999987,1812.0
832.413999987,2037.0
832.414999987,2118.0
832.415999987,2017.0
832.416999987,1845.0
832.417999987,1858.0
832.418999987,1857.0
832.419999987,1765.0
832.420999987,1839.0
832.421999987,2043.0
832.422999987,2118.0
832.423999987,1976.0
832.424999987,1857.0
832.425999987,1834.0
832.426999987,1862.0
832.427999987,1771.0
832.428999987,1886.0
832.429999987,2065.0
832.430999987,2114.0
832.431999987,1964.0
832.432999987,1878.0
832.433999987,1850.0
832.434999987,1855.0
832.435999987,1823.0
832.436999987,1964.0
832.437999987,2173.0
832.438999987,2122.0
832.439999987,2022.0
832.440999987,1955.0
832.441999987,1963.0
832.442999987,1942.0
832.443999987,1943.0
832.444999987,2150.0
832.445999987,2284.0
832.446999987,2245.0
832.447999987,2095.0
832.448999987,2069.0
832.449999987,2104.0
832.450999987,2081.0
832.451999987,2094.0
832.452999987,2311.0
832.453999987,2424.0
832.454999987,2380.0
832.455999987,2222.0
832.456999987,2162.0
832.457999987,2196.0
832.458999987,2187.0
832.459999987,2233.0
832.460999987,2415.0
832.461999987,2497.0
832.462999987,2419.0
832.463999987,2262.0
832.464999987,2218.0
832.465999987,2246.0
832.466999987,2251.0
832.467999987,2324.0
832.468999987,2447.0
832.469999987,2484.0
832.470999987,2424.0
832.471999987,2250.0
832.472999987,2195.0
832.473999987,2209.0
832.474999987,2248.0
832.475999987,2337.0
832.476999987,2432.0
832.477999987,2406.0
832.478999987,2348.0
832.479999987,2186.0
832.480999987,2173.0
832.481999987,2154.0
832.482999987,2202.0
832.483999987,2343.0
832.484999987,2403.0
832.485999987,2359.0
832.486999987,2244.0
832.487999987,2143.0
832.488999987,2131.0
832.489999987,2114.0
832.490999987,2174.0
832.491999987,2325.0
832.492999987,2379.0
832.493999987,2331.0
832.494999987,2203.0
832.495999987,2094.0
832.496999987,2099.0
832.497999987,2075.0
832.498999987,2185.0
832.499999987,2309.0
832.500999987,2322.0
832.501999987,2275.0
832.502999987,2173.0
832.503999987,2062.0
832.504999987,2075.0
832.505999987,2080.0
832.506999987,2224.0
832.507999987,2289.0
832.508999987,2266.0
832.509999987,2234.0
832.510999987,2128.0
832.511999987,2020.0
832.512999987,1998.0
832.513999987,2061.0
832.514999987,2210.0
832.515999987,2260.0
832.516999987,2210.0
832.517999987,2161.0
832.518999987,2079.0
832.519999987,1982.0
832.520999987,1951.0
832.521999987,2019.0
832.522999987,2231.0
832.523999987,2242.0
832.524999987,2179.0
832.525999987,2062.0
832.526999987,2047.0
832.527999987,1972.0
832.528999987,1940.0
832.529999987,2049.0
832.530999987,2217.0
832.531999987,2224.0
832.532999987,2167.0
832.533999987,2080.0
832.534999987,2047.0
832.535999987,1977.0
832.536999987,1948.0
832.537999987,2103.0
832.538999987,2245.0
832.539999987,2219.0
832.540999987,2154.0
832.541999987,2046.0
832.542999987,2026.0
832.543999987,1953.0
832.544999987,1959.0
832.545999987,2125.0
832.546999987,2254.0
832.547999987,2197.0
832.548999987,2119.0
832.549999987,2025.0
832.550999987,2019.0
832.551999987,1915.0
832.552999987,1971.0
832.553999987,2159.0
832.554999987,2265.0
832.555999987,2182.0
832.556999987,2065.0
832.557999987,2036.0
832.558999987,2006.0
832.559999987,1917.0
832.560999987,1953.0
832.561999987,2175.0
832.562999987,2270.0
832.563999987,2189.0
832.564999987,1998.0
832.565999987,1994.0
832.566999987,2003.0
832.567999987,1918.0
832.568999987,1987.0
832.569999987,2192.0
832.570999987,2268.0
832.571999987,2148.0
832.572999987,2010.0
832.573999987,1976.0
832.574999987,2006.0
832.575999987,1912.0
832.576999987,2024.0
832.577999987,2202.0
832.578999987,2250.0
832.579999987,2125.0
832.580999987,2012.0
832.581999987,1980.0
832.582999987,1993.0
832.583999987,1943.0
832.584999987,2085.0
832.585999987,2204.0
832.586999987,2212.0
832.587999987,2091.0
832.588999987,1964.0
832.589999987,1995.0
832.590999987,1947.0
832.591999987,1937.0
832.592999987,2112.0
832.593999987,2223.0
832.594999987,2180.0
832.595999987,2019.0
832.596999987,1951.0
832.597999987,1972.0
832.598999987,1964.0
832.599999987,1953.0
832.600999987,2133.0
832.601999987,2240.0
832.602999987,2177.0
832.603999987,1998.0
832.604999987,1946.0
832.605999987,1988.0
832.606999987,1969.0
832.607999987,2006.0
832.608999987,2151.0
832.609999987,2246.0
832.610999987,2170.0
832.611999987,2006.0
832.612999987,1933.0
832.613999987,1980.0
832.614999987,2000.0
832.615999987,2026.0
832.616999987,2172.0
832.617999987,2222.0
832.618999987,2160.0
832.619999987,1992.0
832.620999987,1923.0
832.621999987,1959.0
832.622999987,1997.0
832.623999987,2081.0
832.624999987,2193.0
832.625999987,2185.0
832.626999987,2153.0
832.627999987,1954.0
832.628999987,1922.0
832.629999987,1942.0
832.630999987,1994.0
832.631999987,2117.0
832.632999987,2199.0
832.633999987,2159.0
832.634999987,2047.0
832.635999987,1931.0
832.636999987,1903.0
832.637999987,1913.0
832.638999987,1959.0
832.639999987,2098.0
832.640999987,2171.0
832.641999987,2123.0
832.642999987,2015.0
832.643999987,1913.0
832.644999987,1902.0
832.645999987,1902.0
832.646999987,2027.0
832.647999987,2138.0
832.648999987,2182.0
832.649999987,2131.0
832.650999987,2043.0
832.651999987,1928.0
832.652999987,1920.0
832.653999987,1950.0
832.654999987,2111.0
832.655999987,2169.0
832.656999987,2195.0
832.657999987,2145.0
832.658999987,2062.0
832.659999987,1944.0
832.660999987,1893.0
832.661999987,1983.0
832.662999987,2158.0
832.663999987,2209.0
832.664999987,2166.0
832.665999987,2117.0
832.666999987,2042.0
832.667999987,1949.0
832.668999987,1910.0
832.669999987,1988.0
832.670999987,2199.0
832.671999987,2219.0
832.672999987,2151.0
832.673999987,2042.0
832.674999987,2046.0
832.675999987,1948.0
832.676999987,1915.0
832.677999987,2010.0
832.678999987,2199.0
832.679999987,2212.0
832.680999987,2138.0
832.681999987,2031.0
832.682999987,2028.0
832.683999987,1932.0
832.684999987,1897.0
832.685999987,2022.0
832.686999987,2208.0
832.687999987,2158.0
832.688999987,2034.0
832.689999987,1851.0
832.690999987,1702.0
832.691999987,1534.0
832.692999987,1482.0
832.693999987,1734.0
832.694999987,2087.0
832.695999987,2257.0
832.696999987,2383.0
832.697999987,2448.0
832.698999987,2538.0
832.699999987,2543.0
832.700999987,2631.0
832.701999987,2834.0
832.702999987,2976.0
832.703999987,2880.0
832.704999987,2677.0
832.705999987,2554.0
832.706999987,2452.0
832.707999987,2305.0
832.708999987,2249.0
832.709999987,2406.0
832.710999987,2452.0
832.711999987,2287.0
832.712999987,2011.0
832.713999987,1921.0
832.714999987,1849.0
832.715999987,1732.0
832.716999987,1709.0
832.717999987,1912.0
832.718999987,1999.0
832.719999987,1877.0
832.720999987,1741.0
832.721999987,1726.0
832.722999987,1744.0
832.723999987,1663.0
832.724999987,1762.0
832.725999987,1945.0
832.726999987,2028.0
832.727999987,1867.0
832.728999987,1781.0
832.729999987,1741.0
832.730999987,1762.0
832.731999987,1699.0
832.732999987,1845.0
832.733999987,1991.0
832.734999987,2017.0
832.735999987,1882.0
832.736999987,1775.0
832.737999987,1783.0
832.738999987,1775.0
832.739999987,1766.0
832.740999987,1926.0
832.741999987,2051.0
832.742999987,2009.0
832.743999987,1853.0
832.744999987,1790.0
832.745999987,1788.0
832.746999987,1767.0
832.747999987,1774.0
832.748999987,1953.0
832.749999987,2068.0
832.750999987,2008.0
832.751999987,1814.0
832.752999987,1786.0
832.753999987,1785.0
832.754999987,1779.0
832.755999987,1805.0
832.756999987,1971.0
832.757999987,2062.0
832.758999987,1992.0
832.759999987,1833.0
832.760999987,1765.0
832.761999987,1784.0
832.762999987,1776.0
832.763999987,1853.0
832.764999987,1970.0
832.765999987,2037.0
832.766999987,1973.0
832.767999987,1798.0
832.768999987,1734.0
832.769999987,1754.0
832.770999987,1791.0
832.771999987,1884.0
832.772999987,1988.0
832.773999987,1992.0
832.774999987,1947.0
832.775999987,1802.0
832.776999987,1766.0
832.777999987,1772.0
832.778999987,1842.0
832.779999987,1977.0
832.780999987,2058.0
832.781999987,2038.0
832.782999987,1983.0
832.783999987,1875.0
832.784999987,1862.0
832.785999987,1865.0
832.786999987,1939.0
832.787999987,2125.0
832.788999987,2181.0
832.789999987,2165.0
832.790999987,2066.0
832.791999987,1997.0
832.792999987,2017.0
832.793999987,2008.0
832.794999987,2118.0
832.795999987,2287.0
832.796999987,2327.0
832.797999987,2296.0
832.798999987,2190.0
832.799999987,2099.0
832.800999987,2122.0
832.801999987,2123.0
832.802999987,2291.0
832.803999987,2385.0
832.804999987,2383.0
832.805999987,2340.0
832.806999987,2266.0
832.807999987,2160.0
832.808999987,2096.0
832.809999987,2193.0
832.810999987,2345.0
832.811999987,2409.0
832.812999987,2351.0
832.813999987,2350.0
832.814999987,2230.0
832.815999987,2147.0
832.816999987,2102.0
832.817999987,2161.0
832.818999987,2334.0
832.819999987,2392.0
832.820999987,2334.0
832.821999987,2225.0
832.822999987,2186.0
832.823999987,2109.0
832.824999987,2058.0
832.825999987,2115.0
832.826999987,2336.0
832.827999987,2352.0
832.828999987,2279.0
832.829999987,2164.0
832.830999987,2134.0
832.831999987,2092.0
832.832999987,2043.0
832.833999987,2145.0
832.834999987,2322.0
832.835999987,2321.0
832.836999987,2230.0
832.837999987,2147.0
832.838999987,2108.0
832.839999987,2050.0
832.840999987,2029.0
832.841999987,2159.0
832.842999987,2314.0
832.843999987,2282.0
832.844999987,2183.0
832.845999987,2064.0
832.846999987,2071.0
832.847999987,1993.0
832.848999987,2021.0
832.849999987,2169.0
832.850999987,2282.0
832.851999987,2231.0
832.852999987,2126.0
832.853999987,2049.0
832.854999987,2042.0
832.855999987,1944.0
832.856999987,1978.0
832.857999987,2185.0
832.858999987,2282.0
832.859999987,2199.0
832.860999987,2037.0
832.861999987,2030.0
832.862999987,2020.0
832.863999987,1944.0
832.864999987,1956.0
832.865999987,2173.0
832.866999987,2266.0
832.867999987,2171.0
832.868999987,1983.0
832.869999987,1980.0
832.870999987,2001.0
832.871999987,1919.0
832.872999987,2008.0
832.873999987,2192.0
832.874999987,2255.0
832.875999987,2122.0
832.876999987,1967.0
832.877999987,1985.0
832.878999987,1998.0
832.879999987,1906.0
832.880999987,2042.0
832.881999987,2195.0
832.882999987,2232.0
832.883999987,2108.0
832.884999987,1959.0
832.885999987,1976.0
832.886999987,1961.0
832.887999987,1949.0
832.888999987,2081.0
832.889999987,2206.0
832.890999987,2171.0
832.891999987,2058.0
832.892999987,1921.0
832.893999987,1968.0
832.894999987,1962.0
832.895999987,1955.0
832.896999987,2104.0
832.897999987,2205.0
832.898999987,2170.0
832.899999987,2000.0
832.900999987,1901.0
832.901999987,1962.0
832.902999987,1946.0
832.903999987,1974.0
832.904999987,2118.0
832.905999987,2239.0
832.906999987,2166.0
832.907999987,2006.0
832.908999987,1906.0
832.909999987,1949.0
832.910999987,1956.0
832.911999987,2020.0
832.912999987,2149.0
832.913999987,2224.0
832.914999987,2168.0
832.915999987,1978.0
832.916999987,1879.0
832.917999987,1956.0
832.918999987,1999.0
832.919999987,2071.0
832.920999987,2169.0
832.921999987,2176.0
832.922999987,2146.0
832.923999987,1962.0
832.924999987,1896.0
832.925999987,1928.0
832.926999987,2007.0
832.927999987,2088.0
832.928999987,2175.0
832.929999987,2150.0
832.930999987,2089.0
832.931999987,1940.0
832.932999987,1893.0
832.933999987,1918.0
832.934999987,1979.0
832.935999987,2127.0
832.936999987,2182.0
832.937999987,2151.0
832.938999987,2025.0
832.939999987,1936.0
832.940999987,1899.0
832.941999987,1919.0
832.942999987,2014.0
832.943999987,2159.0
832.944999987,2192.0
832.945999987,2144.0
832.946999987,2011.0
832.947999987,1916.0
832.948999987,1890.0
832.949999987,1920.0
832.950999987,2063.0
832.951999987,2167.0
832.952999987,2186.0
832.953999987,2117.0
832.954999987,2010.0
832.955999987,1902.0
832.956999987,1873.0
832.957999987,1923.0
832.958999987,2090.0
832.959999987,2175.0
832.960999987,2138.0
832.961999987,2096.0
832.962999987,1987.0
832.963999987,1896.0
832.964999987,1846.0
832.965999987,1916.0
832.966999987,2125.0
832.967999987,2163.0
832.968999987,2092.0
832.969999987,2001.0
832.970999987,1955.0
832.971999987,1869.0
832.972999987,1834.0
832.973999987,1913.0
832.974999987,2146.0
832.975999987,2161.0
832.976999987,2065.0
832.977999987,1976.0
832.978999987,1962.0
832.979999987,1905.0
832.980999987,1844.0
832.981999987,1984.0
832.982999987,2189.0
832.983999987,2190.0
832.984999987,2079.0
832.985999987,1995.0
832.986999987,1980.0
832.987999987,1904.0
832.988999987,1871.0
832.989999987,2052.0
832.990999987,2213.0
832.991999987,2220.0
832.992999987,2095.0
832.993999987,2004.0
832.994999987,1979.0
832.995999987,1920.0
832.996999987,1904.0
832.997999987,2099.0
832.998999987,2240.0
832.999999987,2172.0
833.000999987,2096.0
833.001999987,2001.0
833.002999987,2003.0
833.003999987,1923.0
833.004999987,1931.0
833.005999987,2163.0
833.006999987,2270.0
833.007999987,2182.0
833.008999987,2026.0
833.009999987,1984.0
833.010999987,1976.0
833.011999987,1935.0
833.012999987,1931.0
833.013999987,2160.0
833.014999987,2288.0
833.015999987,2164.0
833.016999987,1978.0
833.017999987,1944.0
833.018999987,1943.0
833.019999987,1824.0
833.020999987,1821.0
833.021999987,1929.0
833.022999987,1898.0
833.023999987,1694.0
833.024999987,1516.0
833.025999987,1600.0
833.026999987,1821.0
833.027999987,1939.0
833.028999987,2286.0
833.029999987,2615.0
833.030999987,2798.0
833.031999987,2725.0
833.032999987,2612.0
833.033999987,2625.0
833.034999987,2644.0
833.035999987,2606.0
833.036999987,2644.0
833.037999987,2716.0
833.038999987,2642.0
833.039999987,2468.0
833.040999987,2301.0
833.041999987,2222.0
833.042999987,2161.0
833.043999987,2068.0
833.044999987,2151.0
833.045999987,2194.0
833.046999987,2066.0
833.047999987,1877.0
833.048999987,1771.0
833.049999987,1756.0
833.050999987,1727.0
833.051999987,1747.0
833.052999987,1903.0
833.053999987,2011.0
833.054999987,1963.0
833.055999987,1805.0
833.056999987,1724.0
833.057999987,1738.0
833.058999987,1755.0
833.059999987,1818.0
833.060999987,1948.0
833.061999987,2013.0
833.062999987,1987.0
833.063999987,1822.0
833.064999987,1752.0
833.065999987,1800.0
833.066999987,1789.0
833.067999987,1890.0
833.068999987,1991.0
833.069999987,2035.0
833.070999987,1991.0
833.071999987,1852.0
833.072999987,1805.0
833.073999987,1785.0
833.074999987,1841.0
833.075999987,1954.0
833.076999987,2020.0
833.077999987,1998.0
833.078999987,1959.0
833.079999987,1834.0
833.080999987,1790.0
833.081999987,1769.0
833.082999987,1821.0
833.083999987,2000.0
833.084999987,2029.0
833.085999987,2006.0
833.086999987,1889.0
833.087999987,1831.0
833.088999987,1800.0
833.089999987,1758.0
833.090999987,1839.0
833.091999987,2006.0
833.092999987,2018.0
833.093999987,1966.0
833.094999987,1882.0
833.095999987,1780.0
833.096999987,1756.0
833.097999987,1743.0
833.098999987,1863.0
833.099999987,2009.0
833.100999987,1993.0
833.101999987,1938.0
833.102999987,1878.0
833.103999987,1750.0
833.104999987,1724.0
833.105999987,1763.0
833.106999987,1915.0
833.107999987,2027.0
833.108999987,1996.0
833.109999987,1966.0
833.110999987,1878.0
833.111999987,1827.0
833.112999987,1762.0
833.113999987,1828.0
833.114999987,2040.0
833.115999987,2098.0
833.116999987,2063.0
833.117999987,2001.0
833.118999987,1970.0
833.119999987,1919.0
833.120999987,1899.0
833.121999987,1938.0
833.122999987,2189.0
833.123999987,2266.0
833.124999987,2204.0
833.125999987,2076.0
833.126999987,2076.0
833.127999987,2051.0
833.128999987,2018.0
833.129999987,2110.0
833.130999987,2341.0
833.131999987,2358.0
833.132999987,2286.0
833.133999987,2175.0
833.134999987,2160.0
833.135999987,2133.0
833.136999987,2108.0
833.137999987,2216.0
833.138999987,2397.0
833.139999987,2397.0
833.140999987,2297.0
833.141999987,2201.0
833.142999987,2170.0
833.143999987,2130.0
833.144999987,2110.0
833.145999987,2260.0
833.146999987,2396.0
833.147999987,2382.0
833.148999987,2266.0
833.149999987,2176.0
833.150999987,2157.0
833.151999987,2087.0
833.152999987,2101.0
833.153999987,2297.0
833.154999987,2398.0
833.155999987,2331.0
833.156999987,2174.0
833.157999987,2130.0
833.158999987,2133.0
833.159999987,2088.0
833.160999987,2069.0
833.161999987,2264.0
833.162999987,2387.0
833.163999987,2288.0
833.164999987,2083.0
833.165999987,2090.0
833.166999987,2115.0
833.167999987,2035.0
833.168999987,2072.0
833.169999987,2276.0
833.170999987,2353.0
833.171999987,2235.0
833.172999987,2049.0
833.173999987,2043.0
833.174999987,2078.0
833.175999987,2017.0
833.176999987,2109.0
833.177999987,2253.0
833.178999987,2312.0
833.179999987,2194.0
833.180999987,2026.0
833.181999987,2044.0
833.182999987,2025.0
833.183999987,2017.0
833.184999987,2121.0
833.185999987,2265.0
833.186999987,2255.0
833.187999987,2165.0
833.188999987,1979.0
833.189999987,1992.0
833.190999987,2003.0
833.191999987,2004.0
833.192999987,2145.0
833.193999987,2256.0
833.194999987,2196.0
833.195999987,2092.0
833.196999987,1956.0
833.197999987,1977.0
833.198999987,1980.0
833.199999987,2000.0
833.200999987,2161.0
833.201999987,2279.0
833.202999987,2204.0
833.203999987,2055.0
833.204999987,1944.0
833.205999987,1954.0
833.206999987,1984.0
833.207999987,2039.0
833.208999987,2192.0
833.209999987,2260.0
833.210999987,2203.0
833.211999987,2026.0
833.212999987,1939.0
833.213999987,1988.0
833.214999987,2009.0
833.215999987,2101.0
833.216999987,2196.0
833.217999987,2244.0
833.218999987,2181.0
833.219999987,2002.0
833.220999987,1926.0
833.221999987,1962.0
833.222999987,2047.0
833.223999987,2164.0
833.224999987,2194.0
833.225999987,2183.0
833.226999987,2165.0
833.227999987,2018.0
833.228999987,1927.0
833.229999987,1932.0
833.230999987,2006.0
833.231999987,2193.0
833.232999987,2235.0
833.233999987,2195.0
833.234999987,2088.0
833.235999987,1983.0
833.236999987,1937.0
833.237999987,1932.0
833.238999987,2018.0
833.239999987,2221.0
833.240999987,2220.0
833.241999987,2159.0
833.242999987,2062.0
833.243999987,1994.0
833.244999987,1934.0
833.245999987,1938.0
833.246999987,2084.0
833.247999987,2226.0
833.248999987,2220.0
833.249999987,2160.0
833.250999987,2082.0
833.251999987,1979.0
833.252999987,1940.0
833.253999987,1970.0
833.254999987,2128.0
833.255999987,2247.0
833.256999987,2206.0
833.257999987,2125.0
833.258999987,2051.0
833.259999987,1969.0
833.260999987,1892.0
833.261999987,1959.0
833.262999987,2129.0
833.263999987,2216.0
833.264999987,2135.0
833.265999987,2080.0
833.266999987,2034.0
833.267999987,1959.0
833.268999987,1880.0
833.269999987,1946.0
833.270999987,2178.0
833.271999987,2231.0
833.272999987,2132.0
833.273999987,2015.0
833.274999987,2007.0
833.275999987,1945.0
833.276999987,1890.0
833.277999987,1989.0
833.278999987,2230.0
833.279999987,2264.0
833.280999987,2157.0
833.281999987,2033.0
833.282999987,2035.0
833.283999987,1978.0
833.284999987,1928.0
833.285999987,2039.0
833.286999987,2244.0
833.287999987,2268.0
833.288999987,2159.0
833.289999987,2036.0
833.290999987,2038.0
833.291999987,1999.0
833.292999987,1945.0
833.293999987,2093.0
833.294999987,2270.0
833.295999987,2269.0
833.296999987,2144.0
833.297999987,2029.0
833.298999987,2016.0
833.299999987,1973.0
833.300999987,1974.0
833.301999987,2189.0
833.302999987,2287.0
833.303999987,2228.0
833.304999987,2088.0
833.305999987,2019.0
833.306999987,2011.0
833.307999987,1962.0
833.308999987,1955.0
833.309999987,2152.0
833.310999987,2268.0
833.311999987,2149.0
833.312999987,1937.0
833.313999987,1888.0
833.314999987,1830.0
833.315999987,1680.0
833.316999987,1644.0
833.317999987,1753.0
833.318999987,1802.0
833.319999987,1807.0
833.320999987,1797.0
833.321999987,1948.0
833.322999987,2199.0
833.323999987,2345.0
833.324999987,2579.0
833.325999987,2807.0
833.326999987,2900.0
833.327999987,2815.0
833.328999987,2680.0
833.329999987,2596.0
833.330999987,2555.0
833.331999987,2451.0
833.332999987,2494.0
833.333999987,2588.0
833.334999987,2556.0
833.335999987,2439.0
833.336999987,2218.0
833.337999987,2122.0
833.338999987,2030.0
833.339999987,1981.0
833.340999987,2026.0
833.341999987,2100.0
833.342999987,2028.0
833.343999987,1905.0
833.344999987,1771.0
833.345999987,1772.0
833.346999987,1763.0
833.347999987,1786.0
833.348999987,1944.0
833.349999987,2027.0
833.350999987,2000.0
833.351999987,1870.0
833.352999987,1776.0
833.353999987,1776.0
833.354999987,1780.0
833.355999987,1855.0
833.356999987,2001.0
833.357999987,2064.0
833.358999987,2006.0
833.359999987,1872.0
833.360999987,1799.0
833.361999987,1808.0
833.362999987,1834.0
833.363999987,1916.0
833.364999987,2046.0
833.365999987,2087.0
833.366999987,2030.0
833.367999987,1905.0
833.368999987,1816.0
833.369999987,1827.0
833.370999987,1871.0
833.371999987,1989.0
833.372999987,2081.0
833.373999987,2051.0
833.374999987,2022.0
833.375999987,1908.0
833.376999987,1829.0
833.377999987,1810.0
833.378999987,1873.0
833.379999987,2042.0
833.380999987,2079.0
833.381999987,2027.0
833.382999987,1954.0
833.383999987,1879.0
833.384999987,1838.0
833.385999987,1774.0
833.386999987,1850.0
833.387999987,2036.0
833.388999987,2055.0
833.389999987,2006.0
833.390999987,1899.0
833.391999987,1851.0
833.392999987,1795.0
833.393999987,1745.0
833.394999987,1862.0
833.395999987,2042.0
833.396999987,2053.0
833.397999987,1982.0
833.398999987,1917.0
833.399999987,1837.0
833.400999987,1802.0
833.401999987,1772.0
833.402999987,1955.0
833.403999987,2093.0
833.404999987,2086.0
833.405999987,2007.0
833.406999987,1958.0
833.407999987,1906.0
833.408999987,1839.0
833.409999987,1894.0
833.410999987,2090.0
833.411999987,2205.0
833.412999987,2152.0
833.413999987,2100.0
833.414999987,2035.0
833.415999987,2023.0
833.416999987,1955.0
833.417999987,2018.0
833.418999987,2233.0
833.419999987,2335.0
833.420999987,2274.0
833.421999987,2152.0
833.422999987,2136.0
833.423999987,2125.0
833.424999987,2064.0
833.425999987,2114.0
833.426999987,2333.0
833.427999987,2423.0
833.428999987,2332.0
833.429999987,2206.0
833.430999987,2208.0
833.431999987,2179.0
833.432999987,2109.0
833.433999987,2195.0
833.434999987,2402.0
833.435999987,2443.0
833.436999987,2332.0
833.437999987,2217.0
833.438999987,2202.0
833.439999987,2170.0
833.440999987,2128.0
833.441999987,2252.0
833.442999987,2426.0
833.443999987,2441.0
833.444999987,2297.0
833.445999987,2161.0
833.446999987,2163.0
833.447999987,2141.0
833.448999987,2119.0
833.449999987,2266.0
833.450999987,2409.0
833.451999987,2363.0
833.452999987,2228.0
833.453999987,2134.0
833.454999987,2139.0
833.455999987,2089.0
833.456999987,2083.0
833.457999987,2269.0
833.458999987,2381.0
833.459999987,2307.0
833.460999987,2129.0
833.461999987,2089.0
833.462999987,2115.0
833.463999987,2067.0
833.464999987,2061.0
833.465999987,2258.0
833.466999987,2364.0
833.467999987,2275.0
833.468999987,2091.0
833.469999987,2039.0
833.470999987,2077.0
833.471999987,2045.0
833.472999987,2092.0
833.473999987,2241.0
833.474999987,2331.0
833.475999987,2249.0
833.476999987,2053.0
833.477999987,2001.0
833.478999987,2072.0
833.479999987,2041.0
833.480999987,2112.0
833.481999987,2272.0
833.482999987,2284.0
833.483999987,2210.0
833.484999987,2020.0
833.485999987,1999.0
833.486999987,2004.0
833.487999987,2065.0
833.488999987,2146.0
833.489999987,2260.0
833.490999987,2240.0
833.491999987,2152.0
833.492999987,1994.0
833.493999987,1969.0
833.494999987,1987.0
833.495999987,2028.0
833.496999987,2161.0
833.497999987,2252.0
833.498999987,2208.0
833.499999987,2084.0
833.500999987,1973.0
833.501999987,1980.0
833.502999987,2002.0
833.503999987,2053.0
833.504999987,2180.0
833.505999987,2241.0
833.506999987,2179.0
833.507999987,2077.0
833.508999987,1952.0
833.509999987,1964.0
833.510999987,1982.0
833.511999987,2092.0
833.512999987,2210.0
833.513999987,2246.0
833.514999987,2205.0
833.515999987,2080.0
833.516999987,1955.0
833.517999987,1968.0
833.518999987,2005.0
833.519999987,2136.0
833.520999987,2216.0
833.521999987,2211.0
833.522999987,2179.0
833.523999987,2042.0
833.524999987,1942.0
833.525999987,1923.0
833.526999987,2007.0
833.527999987,2198.0
833.528999987,2221.0
833.529999987,2178.0
833.530999987,2109.0
833.531999987,2046.0
833.532999987,1946.0
833.533999987,1906.0
833.534999987,2010.0
833.535999987,2221.0
833.536999987,2226.0
833.537999987,2165.0
833.538999987,2062.0
833.539999987,2021.0
833.540999987,1935.0
833.541999987,1897.0
833.542999987,2004.0
833.543999987,2188.0
833.544999987,2193.0
833.545999987,2124.0
833.546999987,2028.0
833.547999987,1981.0
833.548999987,1929.0
833.549999987,1901.0
833.550999987,2066.0
833.551999987,2237.0
833.552999987,2207.0
833.553999987,2114.0
833.554999987,2045.0
833.555999987,1995.0
833.556999987,1916.0
833.557999987,1943.0
833.558999987,2148.0
833.559999987,2258.0
833.560999987,2194.0
833.561999987,2127.0
833.562999987,2043.0
833.563999987,2014.0
833.564999987,1919.0
833.565999987,1984.0
833.566999987,2184.0
833.567999987,2283.0
833.568999987,2205.0
833.569999987,2062.0
833.570999987,2027.0
833.571999987,2017.0
833.572999987,1945.0
833.573999987,1981.0
833.574999987,2222.0
833.575999987,2330.0
833.576999987,2183.0
833.577999987,2037.0
833.578999987,2040.0
833.579999987,2014.0
833.580999987,1931.0
833.581999987,2011.0
833.582999987,2235.0
833.583999987,2294.0
833.584999987,2172.0
833.585999987,2036.0
833.586999987,2010.0
833.587999987,2018.0
833.588999987,1928.0
833.589999987,2055.0
833.590999987,2216.0
833.591999987,2253.0
833.592999987,2065.0
833.593999987,1910.0
833.594999987,1831.0
833.595999987,1750.0
833.596999987,1614.0
833.597999987,1674.0
833.598999987,1776.0
833.599999987,1849.0
833.600999987,1874.0
833.601999987,1964.0
833.602999987,2178.0
833.603999987,2343.0
833.604999987,2486.0
833.605999987,2762.0
833.606999987,2911.0
833.607999987,2863.0
833.608999987,2690.0
833.609999987,2631.0
833.610999987,2575.0
833.611999987,2455.0
833.612999987,2382.0
833.613999987,2525.0
833.614999987,2573.0
833.615999987,2445.0
833.616999987,2186.0
833.617999987,2090.0
833.618999987,2052.0
833.619999987,1927.0
833.620999987,1888.0
833.621999987,2001.0
833.622999987,2050.0
833.623999987,1957.0
833.624999987,1777.0
833.625999987,1719.0
833.626999987,1758.0
833.627999987,1743.0
833.628999987,1838.0
833.629999987,1982.0
833.630999987,2000.0
833.631999987,1945.0
833.632999987,1785.0
833.633999987,1750.0
833.634999987,1753.0
833.635999987,1802.0
833.636999987,1903.0
833.637999987,2018.0
833.638999987,2003.0
833.639999987,1947.0
833.640999987,1811.0
833.641999987,1764.0
833.642999987,1774.0
833.643999987,1860.0
833.644999987,1956.0
833.645999987,2035.0
833.646999987,1994.0
833.647999987,1894.0
833.648999987,1798.0
833.649999987,1817.0
833.650999987,1772.0
833.651999987,1851.0
833.652999987,2000.0
833.653999987,2047.0
833.654999987,1998.0
833.655999987,1887.0
833.656999987,1777.0
833.657999987,1798.0
833.658999987,1788.0
833.659999987,1883.0
833.660999987,2020.0
833.661999987,2052.0
833.662999987,1997.0
833.663999987,1880.0
833.664999987,1766.0
833.665999987,1794.0
833.666999987,1782.0
833.667999987,1932.0
833.668999987,2010.0
833.669999987,2003.0
833.670999987,1962.0
833.671999987,1844.0
833.672999987,1752.0
833.673999987,1729.0
833.674999987,1794.0
833.675999987,1974.0
833.676999987,2011.0
833.677999987,1959.0
833.678999987,1915.0
833.679999987,1840.0
833.680999987,1752.0
833.681999987,1713.0
833.682999987,1804.0
833.683999987,2015.0
833.684999987,2049.0
833.685999987,1991.0
833.686999987,1903.0
833.687999987,1892.0
833.688999987,1835.0
833.689999987,1803.0
833.690999987,1929.0
833.691999987,2141.0
833.692999987,2163.0
833.693999987,2107.0
833.694999987,2010.0
833.695999987,1992.0
833.696999987,1976.0
833.697999987,1964.0
833.698999987,2121.0
833.699999987,2283.0
833.700999987,2290.0
833.701999987,2213.0
833.702999987,2149.0
833.703999987,2156.0
833.704999987,2078.0
833.705999987,2076.0
833.706999987,2263.0
833.707999987,2401.0
833.708999987,2359.0
833.709999987,2279.0
833.710999987,2193.0
833.711999987,2173.0
833.712999987,2083.0
833.713999987,2134.0
833.714999987,2325.0
833.715999987,2434.0
833.716999987,2354.0
833.717999987,2225.0
833.718999987,2163.0
833.719999987,2144.0
833.720999987,2083.0
833.721999987,2103.0
833.722999987,2319.0
833.723999987,2424.0
833.724999987,2311.0
833.725999987,2138.0
833.726999987,2158.0
833.727999987,2117.0
833.728999987,2020.0
833.729999987,2109.0
833.730999987,2319.0
833.731999987,2387.0
833.732999987,2283.0
833.733999987,2112.0
833.734999987,2085.0
833.735999987,2102.0
833.736999987,2030.0
833.737999987,2127.0
833.738999987,2288.0
833.739999987,2366.0
833.740999987,2206.0
833.741999987,2063.0
833.742999987,2053.0
833.743999987,2051.0
833.744999987,2001.0
833.745999987,2135.0
833.746999987,2275.0
833.747999987,2285.0
833.748999987,2165.0
833.749999987,2039.0
833.750999987,2021.0
833.751999987,2002.0
833.752999987,1999.0
833.753999987,2159.0
833.754999987,2274.0
833.755999987,2233.0
833.756999987,2065.0
833.757999987,1980.0
833.758999987,2013.0
833.759999987,1986.0
833.760999987,1974.0
833.761999987,2158.0
833.762999987,2275.0
833.763999987,2203.0
833.764999987,2006.0
833.765999987,1968.0
833.766999987,2015.0
833.767999987,1977.0
833.768999987,2012.0
833.769999987,2184.0
833.770999987,2266.0
833.771999987,2192.0
833.772999987,2004.0
833.773999987,1933.0
833.774999987,2009.0
833.775999987,1996.0
833.776999987,2054.0
833.777999987,2208.0
833.778999987,2246.0
833.779999987,2164.0
833.780999987,1994.0
833.781999987,1914.0
833.782999987,1978.0
833.783999987,2023.0
833.784999987,2102.0
833.785999987,2215.0
833.786999987,2205.0
833.787999987,2175.0
833.788999987,1985.0
833.789999987,1948.0
833.790999987,1956.0
833.791999987,2021.0
833.792999987,2134.0
833.793999987,2225.0
833.794999987,2193.0
833.795999987,2087.0
833.796999987,1970.0
833.797999987,1938.0
833.798999987,1951.0
833.799999987,2027.0
833.800999987,2182.0
833.801999987,2230.0
833.802999987,2188.0
833.803999987,2072.0
833.804999987,1960.0
833.805999987,1943.0
833.806999987,1969.0
833.807999987,2075.0
833.808999987,2191.0
833.809999987,2228.0
833.810999987,2169.0
833.811999987,2078.0
833.812999987,1940.0
833.813999987,1947.0
833.814999987,1960.0
833.815999987,2112.0
833.816999987,2196.0
833.817999987,2209.0
833.818999987,2144.0
833.819999987,2044.0
833.820999987,1914.0
833.821999987,1858.0
833.822999987,1947.0
833.823999987,2159.0
833.824999987,2191.0
833.825999987,2154.0
833.826999987,2113.0
833.827999987,2003.0
833.828999987,1903.0
833.829999987,1872.0
833.830999987,1963.0
833.831999987,2175.0
833.832999987,2192.0
833.833999987,2130.0
833.834999987,2019.0
833.835999987,2008.0
833.836999987,1919.0
833.837999987,1879.0
833.838999987,1968.0
833.839999987,2211.0
833.840999987,2219.0
833.841999987,2146.0
833.842999987,2018.0
833.843999987,2017.0
833.844999987,1935.0
833.845999987,1903.0
833.846999987,2062.0
833.847999987,2243.0
833.848999987,2228.0
833.849999987,2140.0
833.850999987,2064.0
833.851999987,2022.0
833.852999987,1954.0
833.853999987,1931.0
833.854999987,2115.0
833.855999987,2291.0
833.856999987,2236.0
833.857999987,2137.0
833.858999987,2041.0
833.859999987,2015.0
833.860999987,1923.0
833.861999987,1946.0
833.862999987,2141.0
833.863999987,2265.0
833.864999987,2191.0
833.865999987,2073.0
833.866999987,1996.0
833.867999987,1993.0
833.868999987,1922.0
833.869999987,1907.0
833.870999987,2114.0
833.871999987,2177.0
833.872999987,2051.0
833.873999987,1807.0
833.874999987,1739.0
833.875999987,1616.0
833.876999987,1476.0
833.877999987,1496.0
833.878999987,1855.0
833.879999987,2108.0
833.880999987,2201.0
833.881999987,2285.0
833.882999987,2445.0
833.883999987,2558.0
833.884999987,2556.0
833.885999987,2664.0
833.886999987,2856.0
833.887999987,2971.0
833.888999987,2771.0
833.889999987,2545.0
833.890999987,2460.0
833.891999987,2431.0
833.892999987,2298.0
833.893999987,2384.0
833.894999987,2484.0
833.895999987,2409.0
833.896999987,2205.0
833.897999987,2034.0
833.898999987,1917.0
833.899999987,1828.0
833.900999987,1775.0
833.901999987,1896.0
833.902999987,2011.0
833.903999987,1982.0
833.904999987,1838.0
833.905999987,1746.0
833.906999987,1785.0
833.907999987,1733.0
833.908999987,1726.0
833.909999987,1916.0
833.910999987,2020.0
833.911999987,1979.0
833.912999987,1796.0
833.913999987,1762.0
833.914999987,1795.0
833.915999987,1755.0
833.916999987,1787.0
833.917999987,1969.0
833.918999987,2064.0
833.919999987,2002.0
833.920999987,1856.0
833.921999987,1763.0
833.922999987,1820.0
833.923999987,1816.0
833.924999987,1883.0
833.925999987,2002.0
833.926999987,2090.0
833.927999987,2012.0
833.928999987,1856.0
833.929999987,1794.0
833.930999987,1825.0
833.931999987,1848.0
833.932999987,1945.0
833.933999987,2044.0
833.934999987,2051.0
833.935999987,2025.0
833.936999987,1843.0
833.937999987,1796.0
833.938999987,1786.0
833.939999987,1844.0
833.940999987,1965.0
833.941999987,2044.0
833.942999987,2002.0
833.943999987,1935.0
833.944999987,1808.0
833.945999987,1787.0
833.946999987,1759.0
833.947999987,1812.0
833.948999987,1981.0
833.949999987,2014.0
833.950999987,1968.0
833.951999987,1876.0
833.952999987,1772.0
833.953999987,1757.0
833.954999987,1741.0
833.955999987,1852.0
833.956999987,2005.0
833.957999987,2007.0
833.958999987,1986.0
833.959999987,1891.0
833.960999987,1789.0
833.961999987,1829.0
833.962999987,1786.0
833.963999987,1961.0
833.964999987,2083.0
833.965999987,2092.0
833.966999987,2047.0
833.967999987,1964.0
833.968999987,1879.0
833.969999987,1874.0
833.970999987,1940.0
833.971999987,2112.0
833.972999987,2210.0
833.973999987,2177.0
833.974999987,2145.0
833.975999987,2082.0
833.976999987,2010.0
833.977999987,1978.0
833.978999987,2062.0
833.979999987,2279.0
833.980999987,2339.0
833.981999987,2271.0
833.982999987,2185.0
833.983999987,2157.0
833.984999987,2108.0
833.985999987,2063.0
833.986999987,2133.0
833.987999987,2380.0
833.988999987,2389.0
833.989999987,2328.0
833.990999987,2206.0
833.991999987,2194.0
833.992999987,2135.0
833.993999987,2093.0
833.994999987,2197.0
833.995999987,2396.0
833.996999987,2404.0
833.997999987,2308.0
833.998999987,2227.0
833.999999987,2177.0
834.000999987,2137.0
834.001999987,2098.0
834.002999987,2242.0
834.003999987,2419.0
834.004999987,2378.0
834.005999987,2265.0
834.006999987,2176.0
834.007999987,2161.0
834.008999987,2071.0
834.009999987,2086.0
834.010999987,2250.0
834.011999987,2377.0
834.012999987,2321.0
834.013999987,2215.0
834.014999987,2125.0
834.015999987,2122.0
834.016999987,2036.0
834.017999987,2060.0
834.018999987,2257.0
834.019999987,2363.0
834.020999987,2290.0
834.021999987,2112.0
834.022999987,2091.0
834.023999987,2095.0
834.024999987,2023.0
834.025999987,2038.0
834.026999987,2263.0
834.027999987,2346.0
834.028999987,2233.0
834.029999987,2061.0
834.030999987,2071.0
834.031999987,2068.0
834.032999987,2025.0
834.033999987,2069.0
834.034999987,2255.0
834.035999987,2311.0
834.036999987,2186.0
834.037999987,2018.0
834.038999987,2020.0
834.039999987,2062.0
834.040999987,1983.0
834.041999987,2092.0
834.042999987,2260.0
834.043999987,2289.0
834.044999987,2153.0
834.045999987,1987.0
834.046999987,1995.0
834.047999987,2002.0
834.048999987,1995.0
834.049999987,2124.0
834.050999987,2267.0
834.051999987,2227.0
834.052999987,2118.0
834.053999987,1982.0
834.054999987,2006.0
834.055999987,1990.0
834.056999987,2001.0
834.057999987,2167.0
834.058999987,2325.0
834.059999987,2215.0
834.060999987,2062.0
834.061999987,1954.0
834.062999987,2015.0
834.063999987,1997.0
834.064999987,2015.0
834.065999987,2178.0
834.066999987,2284.0
834.067999987,2228.0
834.068999987,2042.0
834.069999987,1937.0
834.070999987,2007.0
834.071999987,2007.0
834.072999987,2067.0
834.073999987,2193.0
834.074999987,2284.0
834.075999987,2215.0
834.076999987,2029.0
834.077999987,1932.0
834.078999987,2004.0
834.079999987,2012.0
834.080999987,2120.0
834.081999987,2226.0
834.082999987,2233.0
834.083999987,2197.0
834.084999987,2008.0
834.085999987,1929.0
834.086999987,1970.0
834.087999987,2059.0
834.088999987,2158.0
834.089999987,2243.0
834.090999987,2214.0
834.091999987,2138.0
834.092999987,2000.0
834.093999987,1936.0
834.094999987,1965.0
834.095999987,2019.0
834.096999987,2186.0
834.097999987,2234.0
834.098999987,2178.0
834.099999987,2051.0
834.100999987,1967.0
834.101999987,1902.0
834.102999987,1919.0
834.103999987,2031.0
834.104999987,2195.0
834.105999987,2228.0
834.106999987,2180.0
834.107999987,2054.0
834.108999987,1948.0
834.109999987,1916.0
834.110999987,1948.0
834.111999987,2088.0
834.112999987,2228.0
834.113999987,2231.0
834.114999987,2180.0
834.115999987,2072.0
834.116999987,1958.0
834.117999987,1921.0
834.118999987,1968.0
834.119999987,2149.0
834.120999987,2255.0
834.121999987,2214.0
834.122999987,2176.0
834.123999987,2087.0
834.124999987,1975.0
834.125999987,1918.0
834.126999987,2012.0
834.127999987,2216.0
834.128999987,2266.0
834.129999987,2207.0
834.130999987,2120.0
834.131999987,2074.0
834.132999987,1999.0
834.133999987,1936.0
834.134999987,2019.0
834.135999987,2237.0
834.136999987,2274.0
834.137999987,2178.0
834.138999987,2059.0
834.139999987,2058.0
834.140999987,1987.0
834.141999987,1930.0
834.142999987,2043.0
834.143999987,2262.0
834.144999987,2266.0
834.145999987,2159.0
834.146999987,2078.0
834.147999987,2026.0
834.148999987,1963.0
834.149999987,1899.0
834.150999987,2039.0
834.151999987,2206.0
834.152999987,2160.0
834.153999987,1977.0
834.154999987,1787.0
834.155999987,1647.0
834.156999987,1524.0
834.157999987,1482.0
834.158999987,1771.0
834.159999987,2115.0
834.160999987,2255.0
834.161999987,2394.0
834.162999987,2498.0
834.163999987,2626.0
834.164999987,2605.0
834.165999987,2624.0
834.166999987,2844.0
834.167999987,2980.0
834.168999987,2876.0
834.169999987,2625.0
834.170999987,2517.0
834.171999987,2461.0
834.172999987,2331.0
834.173999987,2278.0
834.174999987,2463.0
834.175999987,2467.0
834.176999987,2282.0
834.177999987,2039.0
834.178999987,1945.0
834.179999987,1862.0
834.180999987,1764.0
834.181999987,1778.0
834.182999987,1964.0
834.183999987,2035.0
834.184999987,1926.0
834.185999987,1767.0
834.186999987,1752.0
834.187999987,1791.0
834.188999987,1712.0
834.189999987,1815.0
834.190999987,1994.0
834.191999987,2071.0
834.192999987,1938.0
834.193999987,1792.0
834.194999987,1771.0
834.195999987,1781.0
834.196999987,1757.0
834.197999987,1904.0
834.198999987,2048.0
834.199999987,2038.0
834.200999987,1938.0
834.201999987,1822.0
834.202999987,1804.0
834.203999987,1812.0
834.204999987,1789.0
834.205999987,1947.0
834.206999987,2096.0
834.207999987,2036.0
834.208999987,1900.0
834.209999987,1808.0
834.210999987,1822.0
834.211999987,1801.0
834.212999987,1830.0
834.213999987,1997.0
834.214999987,2093.0
834.215999987,2038.0
834.216999987,1878.0
834.217999987,1795.0
834.218999987,1827.0
834.219999987,1810.0
834.220999987,1903.0
834.221999987,2018.0
834.222999987,2089.0
834.223999987,2019.0
834.224999987,1864.0
834.225999987,1804.0
834.226999987,1802.0
834.227999987,1808.0
834.228999987,1908.0
834.229999987,2008.0
834.230999987,2044.0
834.231999987,2007.0
834.232999987,1840.0
834.233999987,1762.0
834.234999987,1760.0
834.235999987,1821.0
834.236999987,1936.0
834.237999987,2024.0
834.238999987,1999.0
834.239999987,1960.0
834.240999987,1844.0
834.241999987,1804.0
834.242999987,1788.0
834.243999987,1849.0
834.244999987,2025.0
834.245999987,2079.0
834.246999987,2058.0
834.247999987,1973.0
834.248999987,1921.0
834.249999987,1903.0
834.250999987,1886.0
834.251999987,1990.0
834.252999987,2196.0
834.253999987,2224.0
834.254999987,2216.0
834.255999987,2099.0
834.256999987,2028.0
834.257999987,2029.0
834.258999987,2027.0
834.259999987,2188.0
834.260999987,2327.0
834.261999987,2348.0
834.262999987,2285.0
834.263999987,2229.0
834.264999987,2117.0
834.265999987,2108.0
834.266999987,2126.0
834.267999987,2298.0
834.268999987,2360.0
834.269999987,2380.0
834.270999987,2333.0
834.271999987,2278.0
834.272999987,2170.0
834.273999987,2097.0
834.274999987,2168.0
834.275999987,2358.0
834.276999987,2425.0
834.277999987,2358.0
834.278999987,2271.0
834.279999987,2225.0
834.280999987,2158.0
834.281999987,2097.0
834.282999987,2145.0
834.283999987,2370.0
834.284999987,2400.0
834.285999987,2314.0
834.286999987,2172.0
834.287999987,2164.0
834.288999987,2120.0
834.289999987,2058.0
834.290999987,2131.0
834.291999987,2353.0
834.292999987,2371.0
834.293999987,2270.0
834.294999987,2183.0
834.295999987,2136.0
834.296999987,2083.0
834.297999987,2040.0
834.298999987,2147.0
834.299999987,2339.0
834.300999987,2344.0
834.301999987,2236.0
834.302999987,2117.0
834.303999987,2091.0
834.304999987,2046.0
834.305999987,2027.0
834.306999987,2171.0
834.307999987,2317.0
834.308999987,2283.0
834.309999987,2173.0
834.310999987,2069.0
834.311999987,2052.0
834.312999987,1983.0
834.313999987,2005.0
834.314999987,2183.0
834.315999987,2311.0
834.316999987,2251.0
834.317999987,2097.0
834.318999987,2021.0
834.319999987,2037.0
834.320999987,1989.0
834.321999987,1979.0
834.322999987,2195.0
834.323999987,2286.0
834.324999987,2205.0
834.325999987,2014.0
834.326999987,1998.0
834.327999987,2015.0
834.328999987,1969.0
834.329999987,1997.0
834.330999987,2211.0
834.331999987,2280.0
834.332999987,2171.0
834.333999987,1995.0
834.334999987,1984.0
834.335999987,2049.0
834.336999987,1968.0
834.337999987,2038.0
834.338999987,2214.0
834.339999987,2289.0
834.340999987,2165.0
834.341999987,1986.0
834.342999987,1970.0
834.343999987,1993.0
834.344999987,1976.0
834.345999987,2096.0
834.346999987,2230.0
834.347999987,2219.0
834.348999987,2148.0
834.349999987,1979.0
834.350999987,1974.0
834.351999987,1983.0
834.352999987,2001.0
834.353999987,2129.0
834.354999987,2266.0
834.355999987,2193.0
834.356999987,2075.0
834.357999987,1946.0
834.358999987,1985.0
834.359999987,1969.0
834.360999987,2003.0
834.361999987,2115.0
834.362999987,2258.0
834.363999987,2185.0
834.364999987,2043.0
834.365999987,1937.0
834.366999987,1986.0
834.367999987,1981.0
834.368999987,2033.0
834.369999987,2156.0
834.370999987,2256.0
834.371999987,2210.0
834.372999987,2039.0
834.373999987,1934.0
834.374999987,1981.0
834.375999987,1987.0
834.376999987,2092.0
834.377999987,2201.0
834.378999987,2236.0
834.379999987,2182.0
834.380999987,2035.0
834.381999987,1933.0
834.382999987,1946.0
834.383999987,2014.0
834.384999987,2134.0
834.385999987,2212.0
834.386999987,2184.0
834.387999987,2155.0
834.388999987,2018.0
834.389999987,1922.0
834.390999987,1931.0
834.391999987,2012.0
834.392999987,2172.0
834.393999987,2213.0
834.394999987,2166.0
834.395999987,2081.0
834.396999987,1983.0
834.397999987,1903.0
834.398999987,1891.0
834.399999987,1975.0
834.400999987,2163.0
834.401999987,2177.0
834.402999987,2111.0
834.403999987,2018.0
834.404999987,1933.0
834.405999987,1888.0
834.406999987,1891.0
834.407999987,2037.0
834.408999987,2176.0
834.409999987,2200.0
834.410999987,2133.0
834.411999987,2030.0
834.412999987,1935.0
834.413999987,1902.0
834.414999987,1915.0
834.415999987,2085.0
834.416999987,2214.0
834.417999987,2197.0
834.418999987,2126.0
834.419999987,2032.0
834.420999987,1964.0
834.421999987,1908.0
834.422999987,1962.0
834.423999987,2158.0
834.424999987,2239.0
834.425999987,2171.0
834.426999987,2119.0
834.427999987,2054.0
834.428999987,1982.0
834.429999987,1909.0
834.430999987,1963.0
834.431999987,2199.0
834.432999987,2285.0
834.433999987,2180.0
834.434999987,2048.0
834.435999987,2044.0
834.436999987,1991.0
834.437999987,1918.0
834.438999987,1987.0
834.439999987,2227.0
834.440999987,2257.0
834.441999987,2162.0
834.442999987,2017.0
834.443999987,2021.0
834.444999987,1976.0
834.445999987,1912.0
834.446999987,2032.0
834.447999987,2235.0
834.448999987,2258.0
834.449999987,2115.0
834.450999987,1974.0
834.451999987,1947.0
834.452999987,1870.0
834.453999987,1740.0
834.454999987,1818.0
834.455999987,1880.0
834.456999987,1803.0
834.457999987,1649.0
834.458999987,1707.0
834.459999987,1906.0
834.460999987,2093.0
834.461999987,2291.0
834.462999987,2604.0
834.463999987,2890.0
834.464999987,2921.0
834.465999987,2773.0
834.466999987,2711.0
834.467999987,2727.0
834.468999987,2631.0
834.469999987,2542.0
834.470999987,2680.0
834.471999987,2729.0
834.472999987,2570.0
834.473999987,2300.0
834.474999987,2221.0
834.475999987,2150.0
834.476999987,2009.0
834.477999987,1950.0
834.478999987,2062.0
834.479999987,2098.0
834.480999987,2028.0
834.481999987,1758.0
834.482999987,1724.0
834.483999987,1769.0
834.484999987,1704.0
834.485999987,1782.0
834.486999987,1945.0
834.487999987,2036.0
834.488999987,1945.0
834.489999987,1764.0
834.490999987,1733.0
834.491999987,1767.0
834.492999987,1737.0
834.493999987,1844.0
834.494999987,2002.0
834.495999987,2021.0
834.496999987,1956.0
834.497999987,1799.0
834.498999987,1762.0
834.499999987,1761.0
834.500999987,1806.0
834.501999987,1922.0
834.502999987,2040.0
834.503999987,2022.0
834.504999987,1927.0
834.505999987,1805.0
834.506999987,1805.0
834.507999987,1783.0
834.508999987,1826.0
834.509999987,1981.0
834.510999987,2077.0
834.511999987,2032.0
834.512999987,1870.0
834.513999987,1787.0
834.514999987,1822.0
834.515999987,1785.0
834.516999987,1857.0
834.517999987,2002.0
834.518999987,2064.0
834.519999987,2009.0
834.520999987,1887.0
834.521999987,1767.0
834.522999987,1798.0
834.523999987,1790.0
834.524999987,1899.0
834.525999987,2007.0
834.526999987,2049.0
834.527999987,1980.0
834.528999987,1874.0
834.529999987,1746.0
834.530999987,1773.0
834.531999987,1795.0
834.532999987,1938.0
834.533999987,2017.0
834.534999987,1985.0
834.535999987,1956.0
834.536999987,1842.0
834.537999987,1756.0
834.538999987,1748.0
834.539999987,1810.0
834.540999987,1999.0
834.541999987,2044.0
834.542999987,1994.0
834.543999987,1936.0
834.544999987,1870.0
834.545999987,1825.0
834.546999987,1809.0
834.547999987,1896.0
834.548999987,2114.0
834.549999987,2141.0
834.550999987,2103.0
834.551999987,2015.0
834.552999987,1995.0
834.553999987,1950.0
834.554999987,1944.0
834.555999987,2056.0
834.556999987,2270.0
834.557999987,2290.0
834.558999987,2247.0
834.559999987,2139.0
834.560999987,2090.0
834.561999987,2084.0
834.562999987,2034.0
834.563999987,2230.0
834.564999987,2386.0
834.565999987,2385.0
834.566999987,2314.0
834.567999987,2190.0
834.568999987,2202.0
834.569999987,2113.0
834.570999987,2159.0
834.571999987,2346.0
834.572999987,2451.0
834.573999987,2384.0
834.574999987,2317.0
834.575999987,2218.0
834.576999987,2172.0
834.577999987,2123.0
834.578999987,2150.0
834.579999987,2360.0
834.580999987,2445.0
834.581999987,2359.0
834.582999987,2207.0
834.583999987,2180.0
834.584999987,2158.0
834.585999987,2078.0
834.586999987,2110.0
834.587999987,2352.0
834.588999987,2414.0
834.589999987,2325.0
834.590999987,2162.0
834.591999987,2142.0
834.592999987,2131.0
834.593999987,2059.0
834.594999987,2155.0
834.595999987,2338.0
834.596999987,2396.0
834.597999987,2270.0
834.598999987,2126.0
834.599999987,2120.0
834.600999987,2101.0
834.601999987,2015.0
834.602999987,2168.0
834.603999987,2332.0
834.604999987,2362.0
834.605999987,2233.0
834.606999987,2125.0
834.607999987,2098.0
834.608999987,2076.0
834.609999987,2037.0
834.610999987,2204.0
834.611999987,2329.0
834.612999987,2288.0
834.613999987,2152.0
834.614999987,2057.0
834.615999987,2051.0
834.616999987,2028.0
834.617999987,2004.0
834.618999987,2200.0
834.619999987,2330.0
834.620999987,2270.0
834.621999987,2078.0
834.622999987,2045.0
834.623999987,2050.0
834.624999987,2019.0
834.625999987,2018.0
834.626999987,2223.0
834.627999987,2320.0
834.628999987,2250.0
834.629999987,2046.0
834.630999987,1998.0
834.631999987,2028.0
834.632999987,2011.0
834.633999987,2054.0
834.634999987,2225.0
834.635999987,2298.0
834.636999987,2217.0
834.637999987,2024.0
834.638999987,1975.0
834.639999987,2029.0
834.640999987,2014.0
834.641999987,2096.0
834.642999987,2238.0
834.643999987,2262.0
834.644999987,2183.0
834.645999987,2014.0
834.646999987,1966.0
834.647999987,1974.0
834.648999987,2043.0
834.649999987,2135.0
834.650999987,2237.0
834.651999987,2212.0
834.652999987,2138.0
834.653999987,1973.0
834.654999987,1965.0
834.655999987,1965.0
834.656999987,2021.0
834.657999987,2156.0
834.658999987,2248.0
834.659999987,2193.0
834.660999987,2076.0
834.661999987,1974.0
834.662999987,1969.0
834.663999987,1969.0
834.664999987,2050.0
834.665999987,2177.0
834.666999987,2247.0
834.667999987,2198.0
834.668999987,2112.0
834.669999987,1953.0
834.670999987,1968.0
834.671999987,1974.0
834.672999987,2125.0
834.673999987,2226.0
834.674999987,2271.0
834.675999987,2206.0
834.676999987,2088.0
834.677999987,1969.0
834.678999987,1996.0
834.679999987,2037.0
834.680999987,2201.0
834.681999987,2259.0
834.682999987,2255.0
834.683999987,2216.0
834.684999987,2091.0
834.685999987,1975.0
834.686999987,1961.0
834.687999987,2046.0
834.688999987,2229.0
834.689999987,2262.0
834.690999987,2215.0
834.691999987,2154.0
834.692999987,2078.0
834.693999987,1980.0
834.694999987,1952.0
834.695999987,2039.0
834.696999987,2261.0
834.697999987,2263.0
834.698999987,2187.0
834.699999987,2072.0
834.700999987,2069.0
834.701999987,1967.0
834.702999987,1948.0
834.703999987,2075.0
834.704999987,2266.0
834.705999987,2252.0
834.706999987,2188.0
834.707999987,2088.0
834.708999987,2029.0
834.709999987,1972.0
834.710999987,1959.0
834.711999987,2116.0
834.712999987,2279.0
834.713999987,2248.0
834.714999987,2152.0
834.715999987,2058.0
834.716999987,2010.0
834.717999987,1938.0
834.718999987,1937.0
834.719999987,2140.0
834.720999987,2243.0
834.721999987,2169.0
834.722999987,2098.0
834.723999987,2033.0
834.724999987,2004.0
834.725999987,1917.0
834.726999987,1947.0
834.727999987,2164.0
834.728999987,2285.0
834.729999987,2186.0
834.730999987,2045.0
834.731999987,1999.0
834.732999987,1992.0
834.733999987,1913.0
834.734999987,1949.0
834.735999987,2196.0
834.736999987,2308.0
834.737999987,2200.0
834.738999987,2031.0
834.739999987,2037.0
834.740999987,2027.0
834.741999987,1943.0
834.742999987,2040.0
834.743999987,2239.0
834.744999987,2316.0
834.745999987,2197.0
834.746999987,2057.0
834.747999987,2068.0
834.748999987,2044.0
834.749999987,1964.0
834.750999987,2100.0
834.751999987,2276.0
834.752999987,2327.0
834.753999987,2184.0
834.754999987,2054.0
834.755999987,2042.0
834.756999987,2032.0
834.757999987,2003.0
834.758999987,2160.0
834.759999987,2304.0
834.760999987,2292.0
834.761999987,2146.0
834.762999987,2043.0
834.763999987,2034.0
834.764999987,2001.0
834.765999987,1981.0
834.766999987,2160.0
834.767999987,2281.0
834.768999987,2211.0
834.769999987,1999.0
834.770999987,1923.0
834.771999987,1827.0
834.772999987,1702.0
834.773999987,1593.0
834.774999987,1763.0
834.775999987,1913.0
834.776999987,2046.0
834.777999987,2077.0
834.778999987,2284.0
834.779999987,2481.0
834.780999987,2606.0
834.781999987,2742.0
834.782999987,2970.0
834.783999987,3075.0
834.784999987,2995.0
834.785999987,2798.0
834.786999987,2667.0
834.787999987,2630.0
834.788999987,2522.0
834.789999987,2531.0
834.790999987,2578.0
834.791999987,2535.0
834.792999987,2388.0
834.793999987,2127.0
834.794999987,1986.0
834.795999987,1884.0
834.796999987,1851.0
834.797999987,1914.0
834.798999987,1976.0
834.799999987,1951.0
834.800999987,1883.0
834.801999987,1729.0
834.802999987,1721.0
834.803999987,1695.0
834.804999987,1762.0
834.805999987,1898.0
834.806999987,1987.0
834.807999987,1949.0
834.808999987,1842.0
834.809999987,1750.0
834.810999987,1739.0
834.811999987,1707.0
834.812999987,1796.0
834.813999987,1961.0
834.814999987,2020.0
834.815999987,1961.0
834.816999987,1866.0
834.817999987,1760.0
834.818999987,1780.0
834.819999987,1797.0
834.820999987,1892.0
834.821999987,2026.0
834.822999987,2059.0
834.823999987,1998.0
834.824999987,1909.0
834.825999987,1789.0
834.826999987,1803.0
834.827999987,1807.0
834.828999987,1971.0
834.829999987,2069.0
834.830999987,2053.0
834.831999987,2003.0
834.832999987,1893.0
834.833999987,1798.0
834.834999987,1776.0
834.835999987,1857.0
834.836999987,2019.0
834.837999987,2084.0
834.838999987,2018.0
834.839999987,1960.0
834.840999987,1874.0
834.841999987,1770.0
834.842999987,1747.0
834.843999987,1809.0
834.844999987,2023.0
834.845999987,2044.0
834.846999987,1975.0
834.847999987,1869.0
834.848999987,1852.0
834.849999987,1771.0
834.850999987,1722.0
834.851999987,1830.0
834.852999987,2037.0
834.853999987,2038.0
834.854999987,1978.0
834.855999987,1880.0
834.856999987,1852.0
834.857999987,1808.0
834.858999987,1764.0
834.859999987,1902.0
834.860999987,2096.0
834.861999987,2097.0
834.862999987,2022.0
834.863999987,1933.0
834.864999987,1922.0
834.865999987,1862.0
834.866999987,1877.0
834.867999987,2062.0
834.868999987,2221.0
834.869999987,2190.0
834.870999987,2121.0
834.871999987,2060.0
834.872999987,2041.0
834.873999987,1996.0
834.874999987,2049.0
834.875999987,2246.0
834.876999987,2393.0
834.877999987,2273.0
834.878999987,2201.0
834.879999987,2124.0
834.880999987,2169.0
834.881999987,2078.0
834.882999987,2131.0
834.883999987,2379.0
834.884999987,2472.0
834.885999987,2378.0
834.886999987,2210.0
834.887999987,2219.0
834.888999987,2204.0
834.889999987,2127.0
834.890999987,2191.0
834.891999987,2411.0
834.892999987,2487.0
834.893999987,2376.0
834.894999987,2230.0
834.895999987,2191.0
834.896999987,2203.0
834.897999987,2116.0
834.898999987,2238.0
834.899999987,2416.0
834.900999987,2456.0
834.901999987,2319.0
834.902999987,2175.0
834.903999987,2165.0
834.904999987,2176.0
834.905999987,2117.0
834.906999987,2260.0
834.907999987,2383.0
834.908999987,2387.0
834.909999987,2270.0
834.910999987,2115.0
834.911999987,2121.0
834.912999987,2098.0
834.913999987,2093.0
834.914999987,2259.0
834.915999987,2376.0
834.916999987,2331.0
834.917999987,2170.0
834.918999987,2066.0
834.919999987,2075.0
834.920999987,2059.0
834.921999987,2051.0
834.922999987,2244.0
834.923999987,2360.0
834.924999987,2277.0
834.925999987,2101.0
834.926999987,2034.0
834.927999987,2064.0
834.928999987,2050.0
834.929999987,2082.0
834.930999987,2254.0
834.931999987,2353.0
834.932999987,2267.0
834.933999987,2067.0
834.934999987,2002.0
834.935999987,2048.0
834.936999987,2054.0
834.937999987,2115.0
834.938999987,2259.0
834.939999987,2295.0
834.940999987,2229.0
834.941999987,2032.0
834.942999987,1962.0
834.943999987,2010.0
834.944999987,2047.0
834.945999987,2119.0
834.946999987,2241.0
834.947999987,2227.0
834.948999987,2201.0
834.949999987,1994.0
834.950999987,1964.0
834.951999987,1967.0
834.952999987,2041.0
834.953999987,2160.0
834.954999987,2250.0
834.955999987,2199.0
834.956999987,2103.0
834.957999987,1974.0
834.958999987,1925.0
834.959999987,1931.0
834.960999987,2009.0
834.961999987,2165.0
834.962999987,2238.0
834.963999987,2179.0
834.964999987,2066.0
834.965999987,1958.0
834.966999987,1934.0
834.967999987,1973.0
834.968999987,2082.0
834.969999987,2183.0
834.970999987,2241.0
834.971999987,2176.0
834.972999987,2075.0
834.973999987,1950.0
834.974999987,1927.0
834.975999987,1975.0
834.976999987,2123.0
834.977999987,2224.0
834.978999987,2222.0
834.979999987,2161.0
834.980999987,2068.0
834.981999987,1942.0
834.982999987,1889.0
834.983999987,1981.0
834.984999987,2150.0
834.985999987,2218.0
834.986999987,2188.0
834.987999987,2134.0
834.988999987,2048.0
834.989999987,1933.0
834.990999987,1882.0
834.991999987,1971.0
834.992999987,2190.0
834.993999987,2218.0
834.994999987,2149.0
834.995999987,2042.0
834.996999987,2009.0
834.997999987,1934.0
834.998999987,1886.0
834.999999987,1988.0
835.000999987,2214.0
835.001999987,2221.0
835.002999987,2152.0
835.003999987,2033.0
835.004999987,2020.0
835.005999987,1948.0
835.006999987,1897.0
835.007999987,2027.0
835.008999987,2231.0
835.009999987,2226.0
835.010999987,2133.0
835.011999987,2040.0
835.012999987,1993.0
835.013999987,1939.0
835.014999987,1901.0
835.015999987,2087.0
835.016999987,2258.0
835.017999987,2211.0
835.018999987,2104.0
835.019999987,2036.0
835.020999987,1992.0
835.021999987,1916.0
835.022999987,1938.0
835.023999987,2145.0
835.024999987,2273.0
835.025999987,2193.0
835.026999987,2058.0
835.027999987,2010.0
835.028999987,1989.0
835.029999987,1923.0
835.030999987,1934.0
835.031999987,2179.0
835.032999987,2272.0
835.033999987,2176.0
835.034999987,1994.0
835.035999987,1977.0
835.036999987,1987.0
835.037999987,1914.0
835.038999987,1955.0
835.039999987,2195.0
835.040999987,2266.0
835.041999987,2152.0
835.042999987,1968.0
835.043999987,1935.0
835.044999987,1959.0
835.045999987,1885.0
835.046999987,1995.0
835.047999987,2193.0
835.048999987,2264.0
835.049999987,2117.0
835.050999987,1970.0
835.051999987,1947.0
835.052999987,1967.0
835.053999987,1910.0
835.054999987,2044.0
835.055999987,2209.0
835.056999987,2239.0
835.057999987,2108.0
835.058999987,1972.0
835.059999987,1969.0
835.060999987,1963.0
835.061999987,1946.0
835.062999987,2103.0
835.063999987,2253.0
835.064999987,2224.0
835.065999987,2075.0
835.066999987,1978.0
835.067999987,1963.0
835.068999987,1971.0
835.069999987,1964.0
835.070999987,2148.0
835.071999987,2267.0
835.072999987,2213.0
835.073999987,2022.0
835.074999987,2016.0
835.075999987,2000.0
835.076999987,2002.0
835.077999987,1990.0
835.078999987,2185.0
835.079999987,2288.0
835.080999987,2197.0
835.081999987,2041.0
835.082999987,1972.0
835.083999987,2015.0
835.084999987,1996.0
835.085999987,2060.0
835.086999987,2200.0
835.087999987,2269.0
835.088999987,2237.0
835.089999987,2008.0
835.090999987,1933.0
835.091999987,1959.0
835.092999987,1967.0
835.093999987,2046.0
835.094999987,2100.0
835.095999987,2036.0
835.096999987,1912.0
835.097999987,1621.0
835.098999987,1490.0
835.099999987,1486.0
835.100999987,1690.0
835.101999987,2000.0
835.102999987,2314.0
835.103999987,2499.0
835.104999987,2606.0
835.105999987,2586.0
835.106999987,2632.0
835.107999987,2621.0
835.108999987,2693.0
835.109999987,2870.0
835.110999987,2881.0
835.111999987,2742.0
835.112999987,2568.0
835.113999987,2394.0
835.114999987,2329.0
835.115999987,2260.0
835.116999987,2301.0
835.117999987,2377.0
835.118999987,2332.0
835.119999987,2213.0
835.120999987,2030.0
835.121999987,1846.0
835.122999987,1782.0
835.123999987,1747.0
835.124999987,1894.0
835.125999987,1979.0
835.126999987,1989.0
835.127999987,1977.0
835.128999987,1827.0
835.129999987,1733.0
835.130999987,1721.0
835.131999987,1769.0
835.132999987,1934.0
835.133999987,2008.0
835.134999987,1964.0
835.135999987,1935.0
835.136999987,1865.0
835.137999987,1750.0
835.138999987,1725.0
835.139999987,1788.0
835.140999987,2003.0
835.141999987,2049.0
835.142999987,1991.0
835.143999987,1898.0
835.144999987,1899.0
835.145999987,1783.0
835.146999987,1747.0
835.147999987,1804.0
835.148999987,2066.0
835.149999987,2074.0
835.150999987,2014.0
835.151999987,1893.0
835.152999987,1863.0
835.153999987,1807.0
835.154999987,1742.0
835.155999987,1884.0
835.156999987,2085.0
835.157999987,2084.0
835.158999987,1993.0
835.159999987,1877.0
835.160999987,1870.0
835.161999987,1812.0
835.162999987,1804.0
835.163999987,1916.0
835.164999987,2103.0
835.165999987,2080.0
835.166999987,1951.0
835.167999987,1893.0
835.168999987,1848.0
835.169999987,1774.0
835.170999987,1788.0
835.171999987,1962.0
835.172999987,2110.0
835.173999987,2043.0
835.174999987,1928.0
835.175999987,1858.0
835.176999987,1854.0
835.177999987,1756.0
835.178999987,1786.0
835.179999987,1997.0
835.180999987,2112.0
835.181999987,2031.0
835.182999987,1870.0
835.183999987,1856.0
835.184999987,1861.0
835.185999987,1807.0
835.186999987,1841.0
835.187999987,2075.0
835.188999987,2181.0
835.189999987,2093.0
835.190999987,1932.0
835.191999987,1934.0
835.192999987,1979.0
835.193999987,1918.0
835.194999987,2012.0
835.195999987,2236.0
835.196999987,2317.0
835.197999987,2197.0
835.198999987,2045.0
835.199999987,2073.0
835.200999987,2109.0
835.201999987,2069.0
835.202999987,2185.0
835.203999987,2374.0
835.204999987,2415.0
835.205999987,2295.0
835.206999987,2120.0
835.207999987,2152.0
835.208999987,2156.0
835.209999987,2151.0
835.210999987,2286.0
835.211999987,2427.0
835.212999987,2417.0
835.213999987,2287.0
835.214999987,2133.0
835.215999987,2166.0
835.216999987,2169.0
835.217999987,2176.0
835.218999987,2346.0
835.219999987,2447.0
835.220999987,2386.0
835.221999987,2227.0
835.222999987,2109.0
835.223999987,2169.0
835.224999987,2163.0
835.225999987,2161.0
835.226999987,2339.0
835.227999987,2426.0
835.228999987,2361.0
835.229999987,2185.0
835.230999987,2072.0
835.231999987,2155.0
835.232999987,2149.0
835.233999987,2211.0
835.234999987,2338.0
835.235999987,2410.0
835.236999987,2333.0
835.237999987,2136.0
835.238999987,2049.0
835.239999987,2123.0
835.240999987,2114.0
835.241999987,2236.0
835.242999987,2322.0
835.243999987,2341.0
835.244999987,2286.0
835.245999987,2097.0
835.246999987,2018.0
835.247999987,2044.0
835.248999987,2128.0
835.249999987,2222.0
835.250999987,2319.0
835.251999987,2286.0
835.252999987,2203.0
835.253999987,2055.0
835.254999987,1978.0
835.255999987,1985.0
835.256999987,2054.0
835.257999987,2220.0
835.258999987,2264.0
835.259999987,2219.0
835.260999987,2089.0
835.261999987,1992.0
835.262999987,1932.0
835.263999987,1951.0
835.264999987,2078.0
835.265999987,2211.0
835.266999987,2229.0
835.267999987,2181.0
835.268999987,2080.0
835.269999987,1981.0
835.270999987,1925.0
835.271999987,1951.0
835.272999987,2120.0
835.273999987,2224.0
835.274999987,2242.0
835.275999987,2197.0
835.276999987,2075.0
835.277999987,1966.0
835.278999987,1933.0
835.279999987,1970.0
835.280999987,2163.0
835.281999987,2255.0
835.282999987,2217.0
835.283999987,2191.0
835.284999987,2088.0
835.285999987,1978.0
835.286999987,1930.0
835.287999987,2022.0
835.288999987,2228.0
835.289999987,2263.0
835.290999987,2216.0
835.291999987,2110.0
835.292999987,2105.0
835.293999987,1996.0
835.294999987,1944.0
835.295999987,2009.0
835.296999987,2262.0
835.297999987,2300.0
835.298999987,2219.0
835.299999987,2091.0
835.300999987,2083.0
835.301999987,2006.0
835.302999987,1944.0
835.303999987,2051.0
835.304999987,2280.0
835.305999987,2315.0
835.306999987,2201.0
835.307999987,2091.0
835.308999987,2076.0
835.309999987,2005.0
835.310999987,1964.0
835.311999987,2120.0
835.312999987,2304.0
835.313999987,2321.0
835.314999987,2190.0
835.315999987,2111.0
835.316999987,2049.0
835.317999987,1999.0
835.318999987,1980.0
835.319999987,2179.0
835.320999987,2319.0
835.321999987,2272.0
835.322999987,2160.0
835.323999987,2080.0
835.324999987,2079.0
835.325999987,1988.0
835.326999987,1995.0
835.327999987,2208.0
835.328999987,2334.0
835.329999987,2260.0
835.330999987,2093.0
835.331999987,2060.0
835.332999987,2054.0
835.333999987,1989.0
835.334999987,1996.0
835.335999987,2223.0
835.336999987,2317.0
835.337999987,2231.0
835.338999987,2046.0
835.339999987,2019.0
835.340999987,2043.0
835.341999987,1968.0
835.342999987,2038.0
835.343999987,2235.0
835.344999987,2329.0
835.345999987,2195.0
835.346999987,2050.0
835.347999987,2013.0
835.348999987,2034.0
835.349999987,1962.0
835.350999987,2083.0
835.351999987,2244.0
835.352999987,2294.0
835.353999987,2159.0
835.354999987,2019.0
835.355999987,1990.0
835.356999987,1985.0
835.357999987,1969.0
835.358999987,2086.0
835.359999987,2223.0
835.360999987,2213.0
835.361999987,2102.0
835.362999987,1974.0
835.363999987,1969.0
835.364999987,1965.0
835.365999987,1966.0
835.366999987,2117.0
835.367999987,2245.0
835.368999987,2199.0
835.369999987,2053.0
835.370999987,1971.0
835.371999987,1992.0
835.372999987,1948.0
835.373999987,1987.0
835.374999987,2158.0
835.375999987,2251.0
835.376999987,2220.0
835.377999987,2068.0
835.378999987,1993.0
835.379999987,2025.0
835.380999987,1987.0
835.381999987,2063.0
835.382999987,2198.0
835.383999987,2280.0
835.384999987,2233.0
835.385999987,2064.0
835.386999987,2008.0
835.387999987,2022.0
835.388999987,2030.0
835.389999987,2126.0
835.390999987,2233.0
835.391999987,2272.0
835.392999987,2231.0
835.393999987,2082.0
835.394999987,1997.0
835.395999987,1988.0
835.396999987,2046.0
835.397999987,2166.0
835.398999987,2253.0
835.399999987,2222.0
835.400999987,2174.0
835.401999987,2022.0
835.402999987,1984.0
835.403999987,1957.0
835.404999987,2022.0
835.405999987,2191.0
835.406999987,2213.0
835.407999987,2168.0
835.408999987,2049.0
835.409999987,1945.0
835.410999987,1869.0
835.411999987,1759.0
835.412999987,1761.0
835.413999987,1857.0
835.414999987,1770.0
835.415999987,1695.0
835.416999987,1703.0
835.417999987,1788.0
835.418999987,1982.0
835.419999987,2184.0
835.420999987,2513.0
835.421999987,2790.0
835.422999987,2842.0
835.423999987,2793.0
835.424999987,2728.0
835.425999987,2661.0
835.426999987,2606.0
835.427999987,2520.0
835.428999987,2623.0
835.429999987,2666.0
835.430999987,2583.0
835.431999987,2469.0
835.432999987,2320.0
835.433999987,2185.0
835.434999987,2053.0
835.435999987,2048.0
835.436999987,2150.0
835.437999987,2132.0
835.438999987,2025.0
835.439999987,1908.0
835.440999987,1820.0
835.441999987,1757.0
835.442999987,1690.0
835.443999987,1738.0
835.444999987,1975.0
835.445999987,2021.0
835.446999987,1937.0
835.447999987,1804.0
835.448999987,1800.0
835.449999987,1761.0
835.450999987,1719.0
835.451999987,1796.0
835.452999987,2016.0
835.453999987,2044.0
835.454999987,1963.0
835.455999987,1833.0
835.456999987,1835.0
835.457999987,1802.0
835.458999987,1755.0
835.459999987,1876.0
835.460999987,2073.0
835.461999987,2089.0
835.462999987,1975.0
835.463999987,1862.0
835.464999987,1846.0
835.465999987,1798.0
835.466999987,1786.0
835.467999987,1948.0
835.468999987,2102.0
835.469999987,2073.0
835.470999987,1961.0
835.471999987,1853.0
835.472999987,1881.0
835.473999987,1796.0
835.474999987,1797.0
835.475999987,1975.0
835.476999987,2102.0
835.477999987,2048.0
835.478999987,1898.0
835.479999987,1840.0
835.480999987,1843.0
835.481999987,1786.0
835.482999987,1784.0
835.483999987,1980.0
835.484999987,2081.0
835.485999987,2004.0
835.486999987,1813.0
835.487999987,1784.0
835.488999987,1807.0
835.489999987,1764.0
835.490999987,1808.0
835.491999987,1994.0
835.492999987,2096.0
835.493999987,1997.0
835.494999987,1803.0
835.495999987,1804.0
835.496999987,1819.0
835.497999987,1785.0
835.498999987,1868.0
835.499999987,2037.0
835.500999987,2115.0
835.501999987,2017.0
835.502999987,1831.0
835.503999987,1833.0
835.504999987,1883.0
835.505999987,1897.0
835.506999987,1993.0
835.507999987,2151.0
835.508999987,2172.0
835.509999987,2124.0
835.510999987,1948.0
835.511999987,1954.0
835.512999987,1989.0
835.513999987,2032.0
835.514999987,2164.0
835.515999987,2314.0
835.516999987,2287.0
835.517999987,2170.0
835.518999987,2046.0
835.519999987,2070.0
835.520999987,2075.0
835.521999987,2129.0
835.522999987,2292.0
835.523999987,2403.0
835.524999987,2359.0
835.525999987,2206.0
835.526999987,2099.0
835.527999987,2160.0
835.528999987,2149.0
835.529999987,2214.0
835.530999987,2342.0
835.531999987,2437.0
835.532999987,2372.0
835.533999987,2205.0
835.534999987,2114.0
835.535999987,2166.0
835.536999987,2166.0
835.537999987,2259.0
835.538999987,2376.0
835.539999987,2413.0
835.540999987,2344.0
835.541999987,2179.0
835.542999987,2068.0
835.543999987,2086.0
835.544999987,2140.0
835.545999987,2287.0
835.546999987,2378.0
835.547999987,2333.0
835.548999987,2297.0
835.549999987,2137.0
835.550999987,2055.0
835.551999987,2048.0
835.552999987,2143.0
835.553999987,2301.0
835.554999987,2342.0
835.555999987,2287.0
835.556999987,2185.0
835.557999987,2098.0
835.558999987,2023.0
835.559999987,2006.0
835.560999987,2095.0
835.561999987,2284.0
835.562999987,2304.0
835.563999987,2251.0
835.564999987,2149.0
835.565999987,2054.0
835.566999987,2005.0
835.567999987,2010.0
835.568999987,2142.0
835.569999987,2295.0
835.570999987,2296.0
835.571999987,2214.0
835.572999987,2128.0
835.573999987,2024.0
835.574999987,1982.0
835.575999987,2004.0
835.576999987,2173.0
835.577999987,2296.0
835.578999987,2270.0
835.579999987,2194.0
835.580999987,2090.0
835.581999987,2019.0
835.582999987,1947.0
835.583999987,1999.0
835.584999987,2206.0
835.585999987,2300.0
835.586999987,2224.0
835.587999987,2142.0
835.588999987,2052.0
835.589999987,2000.0
835.590999987,1926.0
835.591999987,1974.0
835.592999987,2213.0
835.593999987,2300.0
835.594999987,2195.0
835.595999987,2061.0
835.596999987,2042.0
835.597999987,1994.0
835.598999987,1925.0
835.599999987,1989.0
835.600999987,2242.0
835.601999987,2315.0
835.602999987,2196.0
835.603999987,2052.0
835.604999987,2043.0
835.605999987,2004.0
835.606999987,1937.0
835.607999987,2047.0
835.608999987,2267.0
835.609999987,2313.0
835.610999987,2178.0
835.611999987,2045.0
835.612999987,2038.0
835.613999987,2027.0
835.614999987,1957.0
835.615999987,2124.0
835.616999987,2280.0
835.617999987,2294.0
835.618999987,2143.0
835.619999987,2053.0
835.620999987,2047.0
835.621999987,1978.0
835.622999987,1970.0
835.623999987,2146.0
835.624999987,2290.0
835.625999987,2245.0
835.626999987,2099.0
835.627999987,2026.0
835.628999987,2030.0
835.629999987,1975.0
835.630999987,1975.0
835.631999987,2180.0
835.632999987,2288.0
835.633999987,2224.0
835.634999987,2027.0
835.635999987,2009.0
835.636999987,2013.0
835.637999987,1989.0
835.638999987,2002.0
835.639999987,2195.0
835.640999987,2297.0
835.641999987,2209.0
835.642999987,2049.0
835.643999987,1995.0
835.644999987,2011.0
835.645999987,2000.0
835.646999987,2047.0
835.647999987,2217.0
835.648999987,2306.0
835.649999987,2230.0
835.650999987,2030.0
835.651999987,1992.0
835.652999987,2010.0
835.653999987,1992.0
835.654999987,2090.0
835.655999987,2238.0
835.656999987,2245.0
835.657999987,2184.0
835.658999987,2005.0
835.659999987,1977.0
835.660999987,1975.0
835.661999987,2022.0
835.662999987,2126.0
835.663999987,2252.0
835.664999987,2209.0
835.665999987,2133.0
835.666999987,1998.0
835.667999987,1975.0
835.668999987,1962.0
835.669999987,2008.0
835.670999987,2169.0
835.671999987,2248.0
835.672999987,2215.0
835.673999987,2068.0
835.674999987,1960.0
835.675999987,1995.0
835.676999987,1959.0
835.677999987,2037.0
835.678999987,2185.0
835.679999987,2261.0
835.680999987,2200.0
835.681999987,2052.0
835.682999987,1946.0
835.683999987,1974.0
835.684999987,1973.0
835.685999987,2085.0
835.686999987,2199.0
835.687999987,2223.0
835.688999987,2172.0
835.689999987,2031.0
835.690999987,1923.0
835.691999987,1922.0
835.692999987,1950.0
835.693999987,2095.0
835.694999987,2165.0
835.695999987,2147.0
835.696999987,2132.0
835.697999987,2006.0
835.698999987,1923.0
835.699999987,1898.0
835.700999987,1958.0
835.701999987,2146.0
835.702999987,2195.0
835.703999987,2143.0
835.704999987,2073.0
835.705999987,2012.0
835.706999987,1933.0
835.707999987,1896.0
835.708999987,1969.0
835.709999987,2202.0
835.710999987,2215.0
835.711999987,2159.0
835.712999987,2046.0
835.713999987,2021.0
835.714999987,1955.0
835.715999987,1925.0
835.716999987,2061.0
835.717999987,2234.0
835.718999987,2227.0
835.719999987,2164.0
835.720999987,2064.0
835.721999987,2031.0
835.722999987,1964.0
835.723999987,1952.0
835.724999987,2110.0
835.725999987,2251.0
835.726999987,2229.0
835.727999987,2126.0
835.728999987,2066.0
835.729999987,2013.0
835.730999987,1957.0
835.731999987,1956.0
835.732999987,2130.0
835.733999987,2267.0
835.734999987,2202.0
835.735999987,2127.0
835.736999987,2020.0
835.737999987,2020.0
835.738999987,1904.0
835.739999987,1961.0
835.740999987,2190.0
835.741999987,2242.0
835.742999987,2144.0
835.743999987,1969.0
835.744999987,1918.0
835.745999987,1799.0
835.746999987,1633.0
835.747999987,1552.0
835.748999987,1746.0
835.749999987,1838.0
835.750999987,1907.0
835.751999987,1951.0
835.752999987,2195.0
835.753999987,2397.0
835.754999987,2460.0
835.755999987,2663.0
835.756999987,2916.0
835.757999987,2989.0
835.758999987,2863.0
835.759999987,2731.0
835.760999987,2641.0
835.761999987,2571.0
835.762999987,2420.0
835.763999987,2528.0
835.764999987,2589.0
835.765999987,2543.0
835.766999987,2334.0
835.767999987,2140.0
835.768999987,2026.0
835.769999987,1914.0
835.770999987,1814.0
835.771999987,1924.0
835.772999987,2022.0
835.773999987,1952.0
835.774999987,1815.0
835.775999987,1714.0
835.776999987,1706.0
835.777999987,1688.0
835.778999987,1686.0
835.779999987,1884.0
835.780999987,2017.0
835.781999987,1951.0
835.782999987,1775.0
835.783999987,1733.0
835.784999987,1756.0
835.785999987,1735.0
835.786999987,1735.0
835.787999987,1940.0
835.788999987,2049.0
835.789999987,1973.0
835.790999987,1784.0
835.791999987,1757.0
835.792999987,1781.0
835.793999987,1757.0
835.794999987,1833.0
835.795999987,1992.0
835.796999987,2067.0
835.797999987,1996.0
835.798999987,1812.0
835.799999987,1764.0
835.800999987,1809.0
835.801999987,1814.0
835.802999987,1885.0
835.803999987,2039.0
835.804999987,2060.0
835.805999987,2006.0
835.806999987,1810.0
835.807999987,1764.0
835.808999987,1785.0
835.809999987,1855.0
835.810999987,1942.0
835.811999987,2051.0
835.812999987,2020.0
835.813999987,1953.0
835.814999987,1786.0
835.815999987,1752.0
835.816999987,1763.0
835.817999987,1826.0
835.818999987,1963.0
835.819999987,2044.0
835.820999987,1994.0
835.821999987,1860.0
835.822999987,1742.0
835.823999987,1722.0
835.824999987,1746.0
835.825999987,1848.0
835.826999987,1986.0
835.827999987,2054.0
835.828999987,1991.0
835.829999987,1866.0
835.830999987,1749.0
835.831999987,1761.0
835.832999987,1781.0
835.833999987,1906.0
835.834999987,2047.0
835.835999987,2088.0
835.836999987,2039.0
835.837999987,1948.0
835.838999987,1817.0
835.839999987,1841.0
835.840999987,1897.0
835.841999987,2075.0
835.842999987,2155.0
835.843999987,2167.0
835.844999987,2141.0
835.845999987,2044.0
835.846999987,1957.0
835.847999987,1935.0
835.848999987,2057.0
835.849999987,2252.0
835.850999987,2316.0
835.851999987,2274.0
835.852999987,2233.0
835.853999987,2166.0
835.854999987,2074.0
835.855999987,2042.0
835.856999987,2145.0
835.857999987,2385.0
835.858999987,2404.0
835.859999987,2348.0
835.860999987,2233.0
835.861999987,2215.0
835.862999987,2134.0
835.863999987,2108.0
835.864999987,2233.0
835.865999987,2413.0
835.866999987,2431.0
835.867999987,2353.0
835.868999987,2264.0
835.869999987,2209.0
835.870999987,2128.0
835.871999987,2119.0
835.872999987,2269.0
835.873999987,2429.0
835.874999987,2404.0
835.875999987,2316.0
835.876999987,2206.0
835.877999987,2166.0
835.878999987,2105.0
835.879999987,2093.0
835.880999987,2280.0
835.881999987,2429.0
835.882999987,2359.0
835.883999987,2261.0
835.884999987,2174.0
835.885999987,2138.0
835.886999987,2049.0
835.887999987,2089.0
835.888999987,2287.0
835.889999987,2406.0
835.890999987,2309.0
835.891999987,2159.0
835.892999987,2133.0
835.893999987,2105.0
835.894999987,2012.0
835.895999987,2034.0
835.896999987,2296.0
835.897999987,2372.0
835.898999987,2268.0
835.899999987,2099.0
835.900999987,2082.0
835.901999987,2085.0
835.902999987,1990.0
835.903999987,2068.0
835.904999987,2279.0
835.905999987,2359.0
835.906999987,2220.0
835.907999987,2068.0
835.908999987,2044.0
835.909999987,2043.0
835.910999987,1972.0
835.911999987,2100.0
835.912999987,2264.0
835.913999987,2329.0
835.914999987,2168.0
835.915999987,2053.0
835.916999987,2025.0
835.917999987,2025.0
