425.044999997,3011.0
425.045999997,2395.0
425.046999997,1283.0
425.047999997,772.0
425.048999997,1178.0
425.049999997,1877.0
425.050999997,3019.0
425.051999997,3479.0
425.052999997,3053.0
425.053999997,2303.0
425.054999997,1258.0
425.055999997,934.0
425.056999997,1354.0
425.057999997,2167.0
425.058999997,3219.0
425.059999997,3450.0
425.060999997,2984.0
425.061999997,2096.0
425.062999997,1093.0
425.063999997,970.0
425.064999997,1417.0
425.065999997,2364.0
425.066999997,3348.0
425.067999997,3353.0
425.068999997,2864.0
425.069999997,1866.0
425.070999997,955.0
425.071999997,1036.0
425.072999997,1502.0
425.073999997,2553.0
425.074999997,3385.0
425.075999997,3212.0
425.076999997,2690.0
425.077999997,1543.0
425.078999997,837.0
425.079999997,1060.0
425.080999997,1624.0
425.081999997,2781.0
425.082999997,3407.0
425.083999997,3106.0
425.084999997,2499.0
425.085999997,1337.0
425.086999997,819.0
425.087999997,1152.0
425.088999997,1825.0
425.089999997,2967.0
425.090999997,3413.0
425.091999997,3034.0
425.092999997,2305.0
425.093999997,1223.0
425.094999997,875.0
425.095999997,1259.0
425.096999997,2065.0
425.097999997,3152.0
425.098999997,3387.0
425.099999997,3006.0
425.100999997,2146.0
425.101999997,1108.0
425.102999997,991.0
425.103999997,1360.0
425.104999997,2282.0
425.105999997,3250.0
425.106999997,3241.0
425.107999997,2818.0
425.108999997,1826.0
425.109999997,878.0
425.110999997,947.0
425.111999997,1370.0
425.112999997,2410.0
425.113999997,3288.0
425.114999997,3109.0
425.115999997,2663.0
425.116999997,1562.0
425.117999997,790.0
425.118999997,1039.0
425.119999997,1528.0
425.120999997,2689.0
425.121999997,3339.0
425.122999997,3033.0
425.123999997,2496.0
425.124999997,1352.0
425.125999997,770.0
425.126999997,1115.0
425.127999997,1721.0
425.128999997,2864.0
425.129999997,3338.0
425.130999997,2940.0
425.131999997,2288.0
425.132999997,1182.0
425.133999997,768.0
425.134999997,1187.0
425.135999997,1922.0
425.136999997,3001.0
425.137999997,3259.0
425.138999997,2847.0
425.139999997,2064.0
425.140999997,1024.0
425.141999997,870.0
425.142999997,1288.0
425.143999997,2152.0
425.144999997,3176.0
425.145999997,3217.0
425.146999997,2790.0
425.147999997,1900.0
425.148999997,951.0
425.149999997,1003.0
425.150999997,1453.0
425.151999997,2427.0
425.152999997,3312.0
425.153999997,3155.0
425.154999997,2696.0
425.155999997,1675.0
425.156999997,885.0
425.157999997,1088.0
425.158999997,1598.0
425.159999997,2684.0
425.160999997,3367.0
425.161999997,3071.0
425.162999997,2535.0
425.163999997,1449.0
425.164999997,860.0
425.165999997,1178.0
425.166999997,1775.0
425.167999997,2873.0
425.168999997,3362.0
425.169999997,2976.0
425.170999997,2310.0
425.171999997,1265.0
425.172999997,856.0
425.173999997,1220.0
425.174999997,1963.0
425.175999997,3017.0
425.176999997,3296.0
425.177999997,2896.0
425.178999997,2079.0
425.179999997,1088.0
425.180999997,896.0
425.181999997,1274.0
425.182999997,2135.0
425.183999997,3118.0
425.184999997,3154.0
425.185999997,2745.0
425.186999997,1829.0
425.187999997,929.0
425.188999997,966.0
425.189999997,1379.0
425.190999997,2355.0
425.191999997,3218.0
425.192999997,3066.0
425.193999997,2622.0
425.194999997,1578.0
425.195999997,849.0
425.196999997,1063.0
425.197999997,1533.0
425.198999997,2629.0
425.199999997,3294.0
425.200999997,2995.0
425.201999997,2482.0
425.202999997,1320.0
425.203999997,827.0
425.204999997,1138.0
425.205999997,1718.0
425.206999997,2833.0
425.207999997,3294.0
425.208999997,2914.0
425.209999997,2260.0
425.210999997,1185.0
425.211999997,813.0
425.212999997,1194.0
425.213999997,1893.0
425.214999997,2951.0
425.215999997,3216.0
425.216999997,2818.0
425.217999997,2048.0
425.218999997,1041.0
425.219999997,884.0
425.220999997,1289.0
425.221999997,2126.0
425.222999997,3127.0
425.223999997,3169.0
425.224999997,2753.0
425.225999997,1870.0
425.226999997,910.0
425.227999997,979.0
425.228999997,1407.0
425.229999997,2358.0
425.230999997,3248.0
425.231999997,3092.0
425.232999997,2632.0
425.233999997,1621.0
425.234999997,834.0
425.235999997,1071.0
425.236999997,1561.0
425.237999997,2627.0
425.238999997,3316.0
425.239999997,3006.0
425.240999997,2472.0
425.241999997,1372.0
425.242999997,787.0
425.243999997,1133.0
425.244999997,1729.0
425.245999997,2832.0
425.246999997,3327.0
425.247999997,2914.0
425.248999997,2273.0
425.249999997,1203.0
425.250999997,802.0
425.251999997,1220.0
425.252999997,1941.0
425.253999997,2988.0
425.254999997,3301.0
425.255999997,2861.0
425.256999997,2084.0
425.257999997,1085.0
425.258999997,883.0
425.259999997,1312.0
425.260999997,2163.0
425.261999997,3152.0
425.262999997,3235.0
425.263999997,2784.0
425.264999997,1865.0
425.265999997,934.0
425.266999997,945.0
425.267999997,1401.0
425.268999997,2371.0
425.269999997,3258.0
425.270999997,3120.0
425.271999997,2645.0
425.272999997,1619.0
425.273999997,812.0
425.274999997,1016.0
425.275999997,1530.0
425.276999997,2620.0
425.277999997,3319.0
425.278999997,3029.0
425.279999997,2466.0
425.280999997,1347.0
425.281999997,775.0
425.282999997,1098.0
425.283999997,1700.0
425.284999997,2842.0
425.285999997,3348.0
425.286999997,2950.0
425.287999997,2302.0
425.288999997,1182.0
425.289999997,767.0
425.290999997,1162.0
425.291999997,1882.0
425.292999997,2969.0
425.293999997,3275.0
425.294999997,2853.0
425.295999997,2079.0
425.296999997,1029.0
425.297999997,823.0
425.298999997,1243.0
425.299999997,2105.0
425.300999997,3141.0
425.301999997,3209.0
425.302999997,2778.0
425.303999997,1872.0
425.304999997,880.0
425.305999997,899.0
425.306999997,1334.0
425.307999997,2312.0
425.308999997,3269.0
425.309999997,3149.0
425.310999997,2690.0
425.311999997,1686.0
425.312999997,822.0
425.313999997,1000.0
425.314999997,1467.0
425.315999997,2530.0
425.316999997,3276.0
425.317999997,2960.0
425.318999997,2420.0
425.319999997,1280.0
425.320999997,625.0
425.321999997,942.0
425.322999997,1520.0
425.323999997,2683.0
425.324999997,3255.0
425.325999997,2870.0
425.326999997,2231.0
425.327999997,1118.0
425.328999997,657.0
425.329999997,1084.0
425.330999997,1789.0
425.331999997,2923.0
425.332999997,3296.0
425.333999997,2856.0
425.334999997,2083.0
425.335999997,1052.0
425.336999997,763.0
425.337999997,1201.0
425.338999997,2027.0
425.339999997,3083.0
425.340999997,3210.0
425.341999997,2769.0
425.342999997,1868.0
425.343999997,893.0
425.344999997,846.0
425.345999997,1303.0
425.346999997,2243.0
425.347999997,3212.0
425.348999997,3134.0
425.349999997,2639.0
425.350999997,1653.0
425.351999997,786.0
425.352999997,931.0
425.353999997,1433.0
425.354999997,2480.0
425.355999997,3284.0
425.356999997,3055.0
425.357999997,2517.0
425.358999997,1397.0
425.359999997,732.0
425.360999997,1015.0
425.361999997,1599.0
425.362999997,2740.0
425.363999997,3328.0
425.364999997,2978.0
425.365999997,2340.0
425.366999997,1218.0
425.367999997,737.0
425.368999997,1114.0
425.369999997,1803.0
425.370999997,2904.0
425.371999997,3316.0
425.372999997,2926.0
425.373999997,2150.0
425.374999997,1093.0
425.375999997,808.0
425.376999997,1200.0
425.377999997,2026.0
425.378999997,3081.0
425.379999997,3271.0
425.380999997,2864.0
425.381999997,1974.0
425.382999997,978.0
425.383999997,906.0
425.384999997,1328.0
425.385999997,2287.0
425.386999997,3232.0
425.387999997,3213.0
425.388999997,2783.0
425.389999997,1775.0
425.390999997,890.0
425.391999997,1004.0
425.392999997,1463.0
425.393999997,2516.0
425.394999997,3301.0
425.395999997,3133.0
425.396999997,2643.0
425.397999997,1524.0
425.398999997,827.0
425.399999997,1079.0
425.400999997,1602.0
425.401999997,2745.0
425.402999997,3348.0
425.403999997,3022.0
425.404999997,2470.0
425.405999997,1281.0
425.406999997,791.0
425.407999997,1138.0
425.408999997,1799.0
425.409999997,2890.0
425.410999997,3299.0
425.411999997,2927.0
425.412999997,2236.0
425.413999997,1115.0
425.414999997,798.0
425.415999997,1186.0
425.416999997,1957.0
425.417999997,2966.0
425.418999997,3236.0
425.419999997,2805.0
425.420999997,1981.0
425.421999997,964.0
425.422999997,860.0
425.423999997,1262.0
425.424999997,2161.0
425.425999997,3140.0
425.426999997,3129.0
425.427999997,2705.0
425.428999997,1755.0
425.429999997,842.0
425.430999997,939.0
425.431999997,1375.0
425.432999997,2386.0
425.433999997,3223.0
425.434999997,3035.0
425.435999997,2565.0
425.436999997,1516.0
425.437999997,784.0
425.438999997,1023.0
425.439999997,1545.0
425.440999997,2657.0
425.441999997,3288.0
425.442999997,2968.0
425.443999997,2410.0
425.444999997,1318.0
425.445999997,782.0
425.446999997,1126.0
425.447999997,1749.0
425.448999997,2838.0
425.449999997,3279.0
425.450999997,2897.0
425.451999997,2212.0
425.452999997,1167.0
425.453999997,816.0
425.454999997,1194.0
425.455999997,1946.0
425.456999997,2987.0
425.457999997,3208.0
425.458999997,2817.0
425.459999997,1995.0
425.460999997,1017.0
425.461999997,884.0
425.462999997,1289.0
425.463999997,2169.0
425.464999997,3134.0
425.465999997,3136.0
425.466999997,2719.0
425.467999997,1775.0
425.468999997,895.0
425.469999997,952.0
425.470999997,1399.0
425.471999997,2388.0
425.472999997,3200.0
425.473999997,3028.0
425.474999997,2565.0
425.475999997,1514.0
425.476999997,827.0
425.477999997,1050.0
425.478999997,1545.0
425.479999997,2648.0
425.480999997,3265.0
425.481999997,2944.0
425.482999997,2403.0
425.483999997,1308.0
425.484999997,802.0
425.485999997,1120.0
425.486999997,1718.0
425.487999997,2821.0
425.488999997,3248.0
425.489999997,2861.0
425.490999997,2199.0
425.491999997,1162.0
425.492999997,828.0
425.493999997,1204.0
425.494999997,1938.0
425.495999997,2977.0
425.496999997,3196.0
425.497999997,2793.0
425.498999997,1992.0
425.499999997,1016.0
425.500999997,897.0
425.501999997,1288.0
425.502999997,2145.0
425.503999997,3128.0
425.504999997,3110.0
425.505999997,2696.0
425.506999997,1772.0
425.507999997,872.0
425.508999997,981.0
425.509999997,1408.0
425.510999997,2369.0
425.511999997,3223.0
425.512999997,3028.0
425.513999997,2572.0
425.514999997,1531.0
425.515999997,822.0
425.516999997,1073.0
425.517999997,1569.0
425.518999997,2641.0
425.519999997,3284.0
425.520999997,2957.0
425.521999997,2405.0
425.522999997,1321.0
425.523999997,771.0
425.524999997,1146.0
425.525999997,1736.0
425.526999997,2825.0
425.527999997,3287.0
425.528999997,2867.0
425.529999997,2207.0
425.530999997,1162.0
425.531999997,798.0
425.532999997,1213.0
425.533999997,1944.0
425.534999997,2973.0
425.535999997,3244.0
425.536999997,2802.0
425.537999997,1999.0
425.538999997,1013.0
425.539999997,857.0
425.540999997,1302.0
425.541999997,2145.0
425.542999997,3114.0
425.543999997,3150.0
425.544999997,2695.0
425.545999997,1777.0
425.546999997,875.0
425.547999997,930.0
425.548999997,1394.0
425.549999997,2361.0
425.550999997,3212.0
425.551999997,3057.0
425.552999997,2563.0
425.553999997,1539.0
425.554999997,789.0
425.555999997,1010.0
425.556999997,1543.0
425.557999997,2626.0
425.558999997,3274.0
425.559999997,2980.0
425.560999997,2419.0
425.561999997,1302.0
425.562999997,780.0
425.563999997,1105.0
425.564999997,1725.0
425.565999997,2823.0
425.566999997,3276.0
425.567999997,2875.0
425.568999997,2206.0
425.569999997,1138.0
425.570999997,769.0
425.571999997,1160.0
425.572999997,1919.0
425.573999997,2966.0
425.574999997,3215.0
425.575999997,2804.0
425.576999997,1988.0
425.577999997,981.0
425.578999997,829.0
425.579999997,1238.0
425.580999997,2122.0
425.581999997,3096.0
425.582999997,3134.0
425.583999997,2700.0
425.584999997,1773.0
425.585999997,850.0
425.586999997,937.0
425.587999997,1393.0
425.588999997,2401.0
425.589999997,3272.0
425.590999997,3090.0
425.591999997,2594.0
425.592999997,1520.0
425.593999997,730.0
425.594999997,936.0
425.595999997,1425.0
425.596999997,2545.0
425.597999997,3222.0
425.598999997,2893.0
425.599999997,2362.0
425.600999997,1246.0
425.601999997,672.0
425.602999997,1049.0
425.603999997,1632.0
425.604999997,2788.0
425.605999997,3285.0
425.606999997,2878.0
425.607999997,2237.0
425.608999997,1146.0
425.609999997,752.0
425.610999997,1168.0
425.611999997,1912.0
425.612999997,3019.0
425.613999997,3311.0
425.614999997,2899.0
425.615999997,2084.0
425.616999997,1057.0
425.617999997,854.0
425.618999997,1282.0
425.619999997,2120.0
425.620999997,3165.0
425.621999997,3228.0
425.622999997,2783.0
425.623999997,1867.0
425.624999997,894.0
425.625999997,916.0
425.626999997,1382.0
425.627999997,2332.0
425.628999997,3282.0
425.629999997,3131.0
425.630999997,2650.0
425.631999997,1635.0
425.632999997,813.0
425.633999997,998.0
425.634999997,1513.0
425.635999997,2586.0
425.636999997,3349.0
425.637999997,3058.0
425.638999997,2502.0
425.639999997,1393.0
425.640999997,761.0
425.641999997,1087.0
425.642999997,1684.0
425.643999997,2807.0
425.644999997,3376.0
425.645999997,2973.0
425.646999997,2312.0
425.647999997,1222.0
425.648999997,746.0
425.649999997,1159.0
425.650999997,1881.0
425.651999997,2968.0
425.652999997,3337.0
425.653999997,2904.0
425.654999997,2106.0
425.655999997,1083.0
425.656999997,816.0
425.657999997,1241.0
425.658999997,2087.0
425.659999997,3109.0
425.660999997,3255.0
425.661999997,2813.0
425.662999997,1888.0
425.663999997,926.0
425.664999997,885.0
425.665999997,1329.0
425.666999997,2290.0
425.667999997,3228.0
425.668999997,3172.0
425.669999997,2688.0
425.670999997,1657.0
425.671999997,818.0
425.672999997,938.0
425.673999997,1443.0
425.674999997,2530.0
425.675999997,3285.0
425.676999997,3070.0
425.677999997,2529.0
425.678999997,1387.0
425.679999997,747.0
425.680999997,1016.0
425.681999997,1599.0
425.682999997,2748.0
425.683999997,3309.0
425.684999997,2974.0
425.685999997,2333.0
425.686999997,1199.0
425.687999997,734.0
425.688999997,1075.0
425.689999997,1782.0
425.690999997,2893.0
425.691999997,3276.0
425.692999997,2897.0
425.693999997,2097.0
425.694999997,1057.0
425.695999997,792.0
425.696999997,1157.0
425.697999997,2006.0
425.698999997,3055.0
425.699999997,3208.0
425.700999997,2823.0
425.701999997,1901.0
425.702999997,907.0
425.703999997,876.0
425.704999997,1260.0
425.705999997,2220.0
425.706999997,3183.0
425.707999997,3124.0
425.708999997,2711.0
425.709999997,1698.0
425.710999997,808.0
425.711999997,952.0
425.712999997,1399.0
425.713999997,2479.0
425.714999997,3260.0
425.715999997,3035.0
425.716999997,2564.0
425.717999997,1450.0
425.718999997,766.0
425.719999997,1045.0
425.720999997,1556.0
425.721999997,2712.0
425.722999997,3296.0
425.723999997,2956.0
425.724999997,2392.0
425.725999997,1266.0
425.726999997,757.0
425.727999997,1121.0
425.728999997,1750.0
425.729999997,2863.0
425.730999997,3276.0
425.731999997,2877.0
425.732999997,2179.0
425.733999997,1115.0
425.734999997,797.0
425.735999997,1189.0
425.736999997,1966.0
425.737999997,3021.0
425.738999997,3217.0
425.739999997,2809.0
425.740999997,1981.0
425.741999997,971.0
425.742999997,882.0
425.743999997,1300.0
425.744999997,2189.0
425.745999997,3146.0
425.746999997,3134.0
425.747999997,2695.0
425.748999997,1769.0
425.749999997,877.0
425.750999997,981.0
425.751999997,1439.0
425.752999997,2445.0
425.753999997,3252.0
425.754999997,3055.0
425.755999997,2558.0
425.756999997,1510.0
425.757999997,823.0
425.758999997,1062.0
425.759999997,1595.0
425.760999997,2693.0
425.761999997,3298.0
425.762999997,2964.0
425.763999997,2375.0
425.764999997,1303.0
425.765999997,789.0
425.766999997,1136.0
425.767999997,1779.0
425.768999997,2859.0
425.769999997,3268.0
425.770999997,2854.0
425.771999997,2177.0
425.772999997,1176.0
425.773999997,845.0
425.774999997,1205.0
425.775999997,1991.0
425.776999997,2999.0
425.777999997,3198.0
425.778999997,2813.0
425.779999997,1957.0
425.780999997,1019.0
425.781999997,918.0
425.782999997,1291.0
425.783999997,2188.0
425.784999997,3127.0
425.785999997,3109.0
425.786999997,2688.0
425.787999997,1730.0
425.788999997,873.0
425.789999997,977.0
425.790999997,1407.0
425.791999997,2411.0
425.792999997,3219.0
425.793999997,3013.0
425.794999997,2555.0
425.795999997,1477.0
425.796999997,810.0
425.797999997,1066.0
425.798999997,1573.0
425.799999997,2686.0
425.800999997,3255.0
425.801999997,2924.0
425.802999997,2369.0
425.803999997,1264.0
425.804999997,787.0
425.805999997,1126.0
425.806999997,1762.0
425.807999997,2843.0
425.808999997,3259.0
425.809999997,2848.0
425.810999997,2170.0
425.811999997,1131.0
425.812999997,824.0
425.813999997,1227.0
425.814999997,1959.0
425.815999997,3000.0
425.816999997,3185.0
425.817999997,2771.0
425.818999997,1960.0
425.819999997,982.0
425.820999997,899.0
425.821999997,1298.0
425.822999997,2171.0
425.823999997,3144.0
425.824999997,3106.0
425.825999997,2679.0
425.826999997,1748.0
425.827999997,866.0
425.828999997,982.0
425.829999997,1418.0
425.830999997,2407.0
425.831999997,3231.0
425.832999997,3033.0
425.833999997,2558.0
425.834999997,1514.0
425.835999997,806.0
425.836999997,1069.0
425.837999997,1599.0
425.838999997,2684.0
425.839999997,3297.0
425.840999997,2965.0
425.841999997,2391.0
425.842999997,1303.0
425.843999997,775.0
425.844999997,1157.0
425.845999997,1790.0
425.846999997,2831.0
425.847999997,3307.0
425.848999997,2886.0
425.849999997,2192.0
425.850999997,1162.0
425.851999997,824.0
425.852999997,1238.0
425.853999997,1987.0
425.854999997,3002.0
425.855999997,3234.0
425.856999997,2816.0
425.857999997,1998.0
425.858999997,1045.0
425.859999997,934.0
425.860999997,1365.0
425.861999997,2252.0
425.862999997,3178.0
425.863999997,3155.0
425.864999997,2690.0
425.865999997,1731.0
425.866999997,825.0
425.867999997,888.0
425.868999997,1355.0
425.869999997,2345.0
425.870999997,3175.0
425.871999997,2993.0
425.872999997,2523.0
425.873999997,1472.0
425.874999997,763.0
425.875999997,971.0
425.876999997,1530.0
425.877999997,2663.0
425.878999997,3293.0
425.879999997,2983.0
425.880999997,2437.0
425.881999997,1322.0
425.882999997,817.0
425.883999997,1165.0
425.884999997,1803.0
425.885999997,2921.0
425.886999997,3361.0
425.887999997,2946.0
425.888999997,2271.0
425.889999997,1189.0
425.890999997,843.0
425.891999997,1242.0
425.892999997,2004.0
425.893999997,3066.0
425.894999997,3303.0
425.895999997,2880.0
425.896999997,2051.0
425.897999997,1030.0
425.898999997,897.0
425.899999997,1323.0
425.900999997,2208.0
425.901999997,3205.0
425.902999997,3204.0
425.903999997,2753.0
425.904999997,1825.0
425.905999997,861.0
425.906999997,968.0
425.907999997,1439.0
425.908999997,2416.0
425.909999997,3297.0
425.910999997,3125.0
425.911999997,2625.0
425.912999997,1594.0
425.913999997,820.0
425.914999997,1052.0
425.915999997,1566.0
425.916999997,2687.0
425.917999997,3363.0
425.918999997,3043.0
425.919999997,2485.0
425.920999997,1363.0
425.921999997,776.0
425.922999997,1123.0
425.923999997,1746.0
425.924999997,2877.0
425.925999997,3379.0
425.926999997,2962.0
425.927999997,2273.0
425.928999997,1215.0
425.929999997,804.0
425.930999997,1211.0
425.931999997,1952.0
425.932999997,3028.0
425.933999997,3327.0
425.934999997,2903.0
425.935999997,2091.0
425.936999997,1061.0
425.937999997,861.0
425.938999997,1289.0
425.939999997,2151.0
425.940999997,3178.0
425.941999997,3241.0
425.942999997,2801.0
425.943999997,1863.0
425.944999997,926.0
425.945999997,931.0
425.946999997,1383.0
425.947999997,2355.0
425.948999997,3274.0
425.949999997,3147.0
425.950999997,2655.0
425.951999997,1591.0
425.952999997,815.0
425.953999997,994.0
425.954999997,1504.0
425.955999997,2589.0
425.956999997,3312.0
425.957999997,3035.0
425.958999997,2482.0
425.959999997,1346.0
425.960999997,752.0
425.961999997,1054.0
425.962999997,1666.0
425.963999997,2794.0
425.964999997,3325.0
425.965999997,2957.0
425.966999997,2268.0
425.967999997,1193.0
425.968999997,751.0
425.969999997,1130.0
425.970999997,1852.0
425.971999997,2937.0
425.972999997,3279.0
425.973999997,2875.0
425.974999997,2075.0
425.975999997,1039.0
425.976999997,822.0
425.977999997,1206.0
425.978999997,2064.0
425.979999997,3098.0
425.980999997,3205.0
425.981999997,2802.0
425.982999997,1866.0
425.983999997,905.0
425.984999997,894.0
425.985999997,1314.0
425.986999997,2286.0
425.987999997,3216.0
425.988999997,3120.0
425.989999997,2683.0
425.990999997,1642.0
425.991999997,811.0
425.992999997,974.0
425.993999997,1448.0
425.994999997,2539.0
425.995999997,3276.0
425.996999997,3029.0
425.997999997,2525.0
425.998999997,1401.0
425.999999997,776.0
426.000999997,1053.0
426.001999997,1627.0
426.002999997,2768.0
426.003999997,3271.0
426.004999997,2952.0
426.005999997,2350.0
426.006999997,1224.0
426.007999997,776.0
426.008999997,1132.0
426.009999997,1826.0
426.010999997,2913.0
426.011999997,3272.0
426.012999997,2874.0
426.013999997,2133.0
426.014999997,1081.0
426.015999997,827.0
426.016999997,1222.0
426.017999997,2031.0
426.018999997,3062.0
426.019999997,3202.0
426.020999997,2799.0
426.021999997,1923.0
426.022999997,943.0
426.023999997,903.0
426.024999997,1314.0
426.025999997,2246.0
426.026999997,3193.0
426.027999997,3123.0
426.028999997,2685.0
426.029999997,1704.0
426.030999997,845.0
426.031999997,993.0
426.032999997,1461.0
426.033999997,2507.0
426.034999997,3270.0
426.035999997,3041.0
426.036999997,2542.0
426.037999997,1437.0
426.038999997,827.0
426.039999997,1089.0
426.040999997,1641.0
426.041999997,2754.0
426.042999997,3310.0
426.043999997,2963.0
426.044999997,2356.0
426.045999997,1285.0
426.046999997,802.0
426.047999997,1163.0
426.048999997,1837.0
426.049999997,2891.0
426.050999997,3266.0
426.051999997,2887.0
426.052999997,2151.0
426.053999997,1137.0
426.054999997,852.0
426.055999997,1234.0
426.056999997,2041.0
426.057999997,3044.0
426.058999997,3186.0
426.059999997,2795.0
426.060999997,1943.0
426.061999997,993.0
426.062999997,946.0
426.063999997,1337.0
426.064999997,2256.0
426.065999997,3170.0
426.066999997,3105.0
426.067999997,2685.0
426.068999997,1713.0
426.069999997,894.0
426.070999997,1017.0
426.071999997,1474.0
426.072999997,2501.0
426.073999997,3251.0
426.074999997,3026.0
426.075999997,2537.0
426.076999997,1450.0
426.077999997,833.0
426.078999997,1097.0
426.079999997,1628.0
426.080999997,2747.0
426.081999997,3285.0
426.082999997,2948.0
426.083999997,2362.0
426.084999997,1284.0
426.085999997,830.0
426.086999997,1183.0
426.087999997,1823.0
426.088999997,2907.0
426.089999997,3264.0
426.090999997,2865.0
426.091999997,2159.0
426.092999997,1145.0
426.093999997,881.0
426.094999997,1268.0
426.095999997,2022.0
426.096999997,3044.0
426.097999997,3187.0
426.098999997,2795.0
426.099999997,1946.0
426.100999997,994.0
426.101999997,958.0
426.102999997,1352.0
426.103999997,2252.0
426.104999997,3188.0
426.105999997,3114.0
426.106999997,2690.0
426.107999997,1724.0
426.108999997,883.0
426.109999997,1026.0
426.110999997,1484.0
426.111999997,2484.0
426.112999997,3268.0
426.113999997,3031.0
426.114999997,2557.0
426.115999997,1491.0
426.116999997,834.0
426.117999997,1131.0
426.118999997,1655.0
426.119999997,2747.0
426.120999997,3327.0
426.121999997,2959.0
426.122999997,2380.0
426.123999997,1297.0
426.124999997,813.0
426.125999997,1204.0
426.126999997,1836.0
426.127999997,2904.0
426.128999997,3312.0
426.129999997,2876.0
426.130999997,2179.0
426.131999997,1152.0
426.132999997,853.0
426.133999997,1278.0
426.134999997,2038.0
426.135999997,3044.0
426.136999997,3242.0
426.137999997,2799.0
426.138999997,1947.0
426.139999997,993.0
426.140999997,914.0
426.141999997,1352.0
426.142999997,2244.0
426.143999997,3181.0
426.144999997,3172.0
426.145999997,2720.0
426.146999997,1786.0
426.147999997,921.0
426.148999997,1029.0
426.149999997,1475.0
426.150999997,2447.0
426.151999997,3206.0
426.152999997,2994.0
426.153999997,2480.0
426.154999997,1406.0
426.155999997,725.0
426.156999997,973.0
426.157999997,1525.0
426.158999997,2629.0
426.159999997,3215.0
426.160999997,2884.0
426.161999997,2273.0
426.162999997,1203.0
426.163999997,733.0
426.164999997,1099.0
426.165999997,1783.0
426.166999997,2867.0
426.167999997,3290.0
426.168999997,2890.0
426.169999997,2181.0
426.170999997,1154.0
426.171999997,845.0
426.172999997,1241.0
426.173999997,2041.0
426.174999997,3055.0
426.175999997,3240.0
426.176999997,2822.0
426.177999997,1974.0
426.178999997,990.0
426.179999997,915.0
426.180999997,1325.0
426.181999997,2246.0
426.182999997,3196.0
426.183999997,3155.0
426.184999997,2718.0
426.185999997,1743.0
426.186999997,872.0
426.187999997,985.0
426.188999997,1438.0
426.189999997,2468.0
426.190999997,3278.0
426.191999997,3055.0
426.192999997,2575.0
426.193999997,1501.0
426.194999997,785.0
426.195999997,1063.0
426.196999997,1579.0
426.197999997,2715.0
426.198999997,3316.0
426.199999997,2976.0
426.200999997,2411.0
426.201999997,1277.0
426.202999997,768.0
426.203999997,1142.0
426.204999997,1770.0
426.205999997,2889.0
426.206999997,3296.0
426.207999997,2899.0
426.208999997,2208.0
426.209999997,1137.0
426.210999997,797.0
426.211999997,1210.0
426.212999997,1970.0
426.213999997,3050.0
426.214999997,3266.0
426.215999997,2833.0
426.216999997,2016.0
426.217999997,990.0
426.218999997,882.0
426.219999997,1310.0
426.220999997,2190.0
426.221999997,3201.0
426.222999997,3190.0
426.223999997,2734.0
426.224999997,1800.0
426.225999997,866.0
426.226999997,951.0
426.227999997,1436.0
426.228999997,2411.0
426.229999997,3262.0
426.230999997,3102.0
426.231999997,2611.0
426.232999997,1550.0
426.233999997,789.0
426.234999997,1047.0
426.235999997,1571.0
426.236999997,2671.0
426.237999997,3347.0
426.238999997,3020.0
426.239999997,2439.0
426.240999997,1326.0
426.241999997,757.0
426.242999997,1109.0
426.243999997,1743.0
426.244999997,2831.0
426.245999997,3333.0
426.246999997,2923.0
426.247999997,2223.0
426.248999997,1168.0
426.249999997,755.0
426.250999997,1167.0
426.251999997,1922.0
426.252999997,2967.0
426.253999997,3274.0
426.254999997,2846.0
426.255999997,2003.0
426.256999997,1022.0
426.257999997,827.0
426.258999997,1250.0
426.259999997,2136.0
426.260999997,3118.0
426.261999997,3189.0
426.262999997,2753.0
426.263999997,1801.0
426.264999997,893.0
426.265999997,899.0
426.266999997,1365.0
426.267999997,2358.0
426.268999997,3227.0
426.269999997,3110.0
426.270999997,2619.0
426.271999997,1563.0
426.272999997,803.0
426.273999997,987.0
426.274999997,1525.0
426.275999997,2600.0
426.276999997,3287.0
426.277999997,3033.0
426.278999997,2472.0
426.279999997,1310.0
426.280999997,776.0
426.281999997,1067.0
426.282999997,1686.0
426.283999997,2815.0
426.284999997,3309.0
426.285999997,2954.0
426.286999997,2282.0
426.287999997,1144.0
426.288999997,777.0
426.289999997,1145.0
426.290999997,1884.0
426.291999997,2972.0
426.292999997,3257.0
426.293999997,2879.0
426.294999997,2070.0
426.295999997,1044.0
426.296999997,844.0
426.297999997,1203.0
426.298999997,2083.0
426.299999997,3089.0
426.300999997,3175.0
426.301999997,2778.0
426.302999997,1848.0
426.303999997,902.0
426.304999997,914.0
426.305999997,1311.0
426.306999997,2296.0
426.307999997,3201.0
426.308999997,3070.0
426.309999997,2656.0
426.310999997,1622.0
426.311999997,811.0
426.312999997,989.0
426.313999997,1461.0
426.314999997,2566.0
426.315999997,3267.0
426.316999997,2996.0
426.317999997,2508.0
426.318999997,1381.0
426.319999997,767.0
426.320999997,1077.0
426.321999997,1634.0
426.322999997,2761.0
426.323999997,3282.0
426.324999997,2908.0
426.325999997,2310.0
426.326999997,1210.0
426.327999997,774.0
426.328999997,1158.0
426.329999997,1830.0
426.330999997,2902.0
426.331999997,3238.0
426.332999997,2822.0
426.333999997,2095.0
426.334999997,1068.0
426.335999997,829.0
426.336999997,1234.0
426.337999997,2043.0
426.338999997,3052.0
426.339999997,3151.0
426.340999997,2740.0
426.341999997,1887.0
426.342999997,930.0
426.343999997,915.0
426.344999997,1329.0
426.345999997,2250.0
426.346999997,3160.0
426.347999997,3073.0
426.348999997,2620.0
426.349999997,1665.0
426.350999997,840.0
426.351999997,990.0
426.352999997,1472.0
426.353999997,2511.0
426.354999997,3239.0
426.355999997,2989.0
426.356999997,2482.0
426.357999997,1424.0
426.358999997,807.0
426.359999997,1083.0
426.360999997,1649.0
426.361999997,2739.0
426.362999997,3276.0
426.363999997,2925.0
426.364999997,2299.0
426.365999997,1264.0
426.366999997,797.0
426.367999997,1170.0
426.368999997,1850.0
426.369999997,2896.0
426.370999997,3230.0
426.371999997,2847.0
426.372999997,2093.0
426.373999997,1119.0
426.374999997,886.0
426.375999997,1246.0
426.376999997,2059.0
426.377999997,3045.0
426.378999997,3158.0
426.379999997,2760.0
426.380999997,1885.0
426.381999997,974.0
426.382999997,956.0
426.383999997,1350.0
426.384999997,2282.0
426.385999997,3178.0
426.386999997,3076.0
426.387999997,2606.0
426.388999997,1664.0
426.389999997,883.0
426.390999997,1040.0
426.391999997,1487.0
426.392999997,2531.0
426.393999997,3257.0
426.394999997,2994.0
426.395999997,2513.0
426.396999997,1425.0
426.397999997,835.0
426.398999997,1118.0
426.399999997,1661.0
426.400999997,2757.0
426.401999997,3291.0
426.402999997,2920.0
426.403999997,2329.0
426.404999997,1257.0
426.405999997,813.0
426.406999997,1195.0
426.407999997,1845.0
426.408999997,2899.0
426.409999997,3285.0
426.410999997,2842.0
426.411999997,2093.0
426.412999997,1109.0
426.413999997,868.0
426.414999997,1291.0
426.415999997,2048.0
426.416999997,3063.0
426.417999997,3182.0
426.418999997,2766.0
426.419999997,1906.0
426.420999997,939.0
426.421999997,940.0
426.422999997,1371.0
426.423999997,2264.0
426.424999997,3183.0
426.425999997,3096.0
426.426999997,2655.0
426.427999997,1698.0
426.428999997,859.0
426.429999997,1025.0
426.430999997,1497.0
426.431999997,2514.0
426.432999997,3221.0
426.433999997,3026.0
426.434999997,2521.0
426.435999997,1453.0
426.436999997,828.0
426.437999997,1122.0
426.438999997,1681.0
426.439999997,2760.0
426.440999997,3319.0
426.441999997,2978.0
426.442999997,2393.0
426.443999997,1335.0
426.444999997,892.0
426.445999997,1257.0
426.446999997,1918.0
426.447999997,2948.0
426.448999997,3290.0
426.449999997,2863.0
426.450999997,2121.0
426.451999997,1105.0
426.452999997,824.0
426.453999997,1233.0
426.454999997,2031.0
426.455999997,2991.0
426.456999997,3198.0
426.457999997,2792.0
426.458999997,1933.0
426.459999997,978.0
426.460999997,937.0
426.461999997,1374.0
426.462999997,2321.0
426.463999997,3251.0
426.464999997,3215.0
426.465999997,2778.0
426.466999997,1809.0
426.467999997,974.0
426.468999997,1122.0
426.469999997,1589.0
426.470999997,2632.0
426.471999997,3385.0
426.472999997,3148.0
426.473999997,2652.0
426.474999997,1562.0
426.475999997,909.0
426.476999997,1188.0
426.477999997,1745.0
426.478999997,2854.0
426.479999997,3403.0
426.480999997,3055.0
426.481999997,2467.0
426.482999997,1347.0
426.483999997,883.0
426.484999997,1252.0
426.485999997,1908.0
426.486999997,2992.0
426.487999997,3372.0
426.488999997,2957.0
426.489999997,2252.0
426.490999997,1194.0
426.491999997,905.0
426.492999997,1315.0
426.493999997,2101.0
426.494999997,3139.0
426.495999997,3299.0
426.496999997,2876.0
426.497999997,2026.0
426.498999997,1029.0
426.499999997,959.0
426.500999997,1379.0
426.501999997,2294.0
426.502999997,3260.0
426.503999997,3190.0
426.504999997,2746.0
426.505999997,1780.0
426.506999997,891.0
426.507999997,1015.0
426.508999997,1484.0
426.509999997,2510.0
426.510999997,3328.0
426.511999997,3092.0
426.512999997,2594.0
426.513999997,1511.0
426.514999997,816.0
426.515999997,1079.0
426.516999997,1626.0
426.517999997,2743.0
426.518999997,3357.0
426.519999997,3003.0
426.520999997,2405.0
426.521999997,1294.0
426.522999997,776.0
426.523999997,1142.0
426.524999997,1785.0
426.525999997,2893.0
426.526999997,3331.0
426.527999997,2899.0
426.528999997,2187.0
426.529999997,1146.0
426.530999997,796.0
426.531999997,1200.0
426.532999997,1974.0
426.533999997,3020.0
426.534999997,3245.0
426.535999997,2816.0
426.536999997,1968.0
426.537999997,985.0
426.538999997,851.0
426.539999997,1277.0
426.540999997,2166.0
426.541999997,3150.0
426.542999997,3154.0
426.543999997,2706.0
426.544999997,1744.0
426.545999997,840.0
426.546999997,937.0
426.547999997,1380.0
426.548999997,2380.0
426.549999997,3235.0
426.550999997,3054.0
426.551999997,2558.0
426.552999997,1484.0
426.553999997,755.0
426.554999997,981.0
426.555999997,1535.0
426.556999997,2624.0
426.557999997,3264.0
426.558999997,2963.0
426.559999997,2384.0
426.560999997,1269.0
426.561999997,729.0
426.562999997,1069.0
426.563999997,1706.0
426.564999997,2811.0
426.565999997,3281.0
426.566999997,2895.0
426.567999997,2191.0
426.568999997,1132.0
426.569999997,757.0
426.570999997,1133.0
426.571999997,1906.0
426.572999997,2962.0
426.573999997,3214.0
426.574999997,2830.0
426.575999997,1986.0
426.576999997,997.0
426.577999997,823.0
426.578999997,1235.0
426.579999997,2133.0
426.580999997,3109.0
426.581999997,3155.0
426.582999997,2743.0
426.583999997,1787.0
426.584999997,872.0
426.585999997,928.0
426.586999997,1354.0
426.587999997,2357.0
426.588999997,3212.0
426.589999997,3075.0
426.590999997,2626.0
426.591999997,1574.0
426.592999997,814.0
426.593999997,1012.0
426.594999997,1514.0
426.595999997,2626.0
426.596999997,3281.0
426.597999997,2993.0
426.598999997,2461.0
426.599999997,1351.0
426.600999997,774.0
426.601999997,1095.0
426.602999997,1699.0
426.603999997,2819.0
426.604999997,3298.0
426.605999997,2914.0
426.606999997,2278.0
426.607999997,1201.0
426.608999997,795.0
426.609999997,1198.0
426.610999997,1905.0
426.611999997,2970.0
426.612999997,3250.0
426.613999997,2853.0
426.614999997,2077.0
426.615999997,1067.0
426.616999997,896.0
426.617999997,1289.0
426.618999997,2129.0
426.619999997,3121.0
426.620999997,3176.0
426.621999997,2767.0
426.622999997,1873.0
426.623999997,933.0
426.624999997,974.0
426.625999997,1394.0
426.626999997,2345.0
426.627999997,3238.0
426.628999997,3091.0
426.629999997,2651.0
426.630999997,1651.0
426.631999997,869.0
426.632999997,1056.0
426.633999997,1538.0
426.634999997,2607.0
426.635999997,3282.0
426.636999997,3014.0
426.637999997,2483.0
426.638999997,1411.0
426.639999997,827.0
426.640999997,1105.0
426.641999997,1716.0
426.642999997,2797.0
426.643999997,3296.0
426.644999997,2932.0
426.645999997,2291.0
426.646999997,1252.0
426.647999997,820.0
426.648999997,1197.0
426.649999997,1907.0
426.650999997,2930.0
426.651999997,3232.0
426.652999997,2846.0
426.653999997,2076.0
426.654999997,1098.0
426.655999997,891.0
426.656999997,1276.0
426.657999997,2118.0
426.658999997,3092.0
426.659999997,3164.0
426.660999997,2759.0
426.661999997,1872.0
426.662999997,977.0
426.663999997,992.0
426.664999997,1390.0
426.665999997,2336.0
426.666999997,3201.0
426.667999997,3082.0
426.668999997,2642.0
426.669999997,1639.0
426.670999997,893.0
426.671999997,1071.0
426.672999997,1536.0
426.673999997,2601.0
426.674999997,3268.0
426.675999997,3019.0
426.676999997,2503.0
426.677999997,1417.0
426.678999997,870.0
426.679999997,1145.0
426.680999997,1718.0
426.681999997,2824.0
426.682999997,3300.0
426.683999997,2943.0
426.684999997,2315.0
426.685999997,1258.0
426.686999997,879.0
426.687999997,1241.0
426.688999997,1925.0
426.689999997,2965.0
426.690999997,3259.0
426.691999997,2874.0
426.692999997,2106.0
426.693999997,1121.0
426.694999997,943.0
426.695999997,1316.0
426.696999997,2124.0
426.697999997,3109.0
426.698999997,3170.0
426.699999997,2766.0
426.700999997,1886.0
426.701999997,972.0
426.702999997,1002.0
426.703999997,1411.0
426.704999997,2324.0
426.705999997,3219.0
426.706999997,3093.0
426.707999997,2638.0
426.708999997,1654.0
426.709999997,867.0
426.710999997,1071.0
426.711999997,1531.0
426.712999997,2559.0
426.713999997,3264.0
426.714999997,2985.0
426.715999997,2477.0
426.716999997,1384.0
426.717999997,805.0
426.718999997,1140.0
426.719999997,1682.0
426.720999997,2767.0
426.721999997,3284.0
426.722999997,2900.0
426.723999997,2290.0
426.724999997,1233.0
426.725999997,797.0
426.726999997,1203.0
426.727999997,1877.0
426.728999997,2911.0
426.729999997,3254.0
426.730999997,2829.0
426.731999997,2084.0
426.732999997,1090.0
426.733999997,859.0
426.734999997,1275.0
426.735999997,2085.0
426.736999997,3067.0
426.737999997,3179.0
426.738999997,2757.0
426.739999997,1880.0
426.740999997,948.0
426.741999997,930.0
426.742999997,1372.0
426.743999997,2295.0
426.744999997,3196.0
426.745999997,3129.0
426.746999997,2667.0
426.747999997,1698.0
426.748999997,895.0
426.749999997,1059.0
426.750999997,1528.0
426.751999997,2540.0
426.752999997,3228.0
426.753999997,2974.0
426.754999997,2433.0
426.755999997,1342.0
426.756999997,737.0
426.757999997,1011.0
426.758999997,1603.0
426.759999997,2699.0
426.760999997,3225.0
426.761999997,2866.0
426.762999997,2260.0
426.763999997,1199.0
426.764999997,772.0
426.765999997,1161.0
426.766999997,1874.0
426.767999997,2934.0
426.768999997,3288.0
426.769999997,2892.0
426.770999997,2137.0
426.771999997,1130.0
426.772999997,909.0
426.773999997,1300.0
426.774999997,2134.0
426.775999997,3133.0
426.776999997,3243.0
426.777999997,2839.0
426.778999997,1946.0
426.779999997,1025.0
426.780999997,1001.0
426.781999997,1415.0
426.782999997,2374.0
426.783999997,3295.0
426.784999997,3195.0
426.785999997,2758.0
426.786999997,1757.0
426.787999997,936.0
426.788999997,1103.0
426.789999997,1578.0
426.790999997,2646.0
426.791999997,3398.0
426.792999997,3135.0
426.793999997,2642.0
426.794999997,1534.0
426.795999997,899.0
426.796999997,1197.0
426.797999997,1748.0
426.798999997,2884.0
426.799999997,3433.0
426.800999997,3055.0
426.801999997,2455.0
426.802999997,1338.0
426.803999997,881.0
426.804999997,1277.0
426.805999997,1947.0
426.806999997,3044.0
426.807999997,3403.0
426.808999997,2988.0
426.809999997,2262.0
426.810999997,1209.0
426.811999997,944.0
426.812999997,1343.0
426.813999997,2136.0
426.814999997,3184.0
426.815999997,3322.0
426.816999997,2898.0
426.817999997,2031.0
426.818999997,1042.0
426.819999997,991.0
426.820999997,1420.0
426.821999997,2321.0
426.822999997,3302.0
426.823999997,3224.0
426.824999997,2762.0
426.825999997,1782.0
426.826999997,896.0
426.827999997,1032.0
426.828999997,1508.0
426.829999997,2536.0
426.830999997,3343.0
426.831999997,3101.0
426.832999997,2589.0
426.833999997,1501.0
426.834999997,803.0
426.835999997,1087.0
426.836999997,1637.0
426.837999997,2736.0
426.838999997,3344.0
426.839999997,2987.0
426.840999997,2363.0
426.841999997,1272.0
426.842999997,755.0
426.843999997,1126.0
426.844999997,1789.0
426.845999997,2856.0
426.846999997,3281.0
426.847999997,2872.0
426.848999997,2109.0
426.849999997,1089.0
426.850999997,753.0
426.851999997,1163.0
426.852999997,1957.0
426.853999997,2988.0
426.854999997,3209.0
426.855999997,2793.0
426.856999997,1897.0
426.857999997,935.0
426.858999997,807.0
426.859999997,1236.0
426.860999997,2155.0
426.861999997,3093.0
426.862999997,3115.0
426.863999997,2663.0
426.864999997,1684.0
426.865999997,822.0
426.866999997,889.0
426.867999997,1352.0
426.868999997,2385.0
426.869999997,3196.0
426.870999997,3034.0
426.871999997,2515.0
426.872999997,1436.0
426.873999997,741.0
426.874999997,965.0
426.875999997,1510.0
426.876999997,2639.0
426.877999997,3236.0
426.878999997,2955.0
426.879999997,2367.0
426.880999997,1243.0
426.881999997,730.0
426.882999997,1042.0
426.883999997,1694.0
426.884999997,2806.0
426.885999997,3232.0
426.886999997,2882.0
426.887999997,2171.0
426.888999997,1098.0
426.889999997,762.0
426.890999997,1131.0
426.891999997,1904.0
426.892999997,2955.0
426.893999997,3177.0
426.894999997,2812.0
426.895999997,1962.0
426.896999997,961.0
426.897999997,843.0
426.898999997,1211.0
426.899999997,2118.0
426.900999997,3092.0
426.901999997,3093.0
426.902999997,2702.0
426.903999997,1759.0
426.904999997,843.0
426.905999997,910.0
426.906999997,1330.0
426.907999997,2312.0
426.908999997,3187.0
426.909999997,3015.0
426.910999997,2580.0
426.911999997,1525.0
426.912999997,784.0
426.913999997,1034.0
426.914999997,1479.0
426.915999997,2604.0
426.916999997,3233.0
426.917999997,2938.0
426.918999997,2414.0
426.919999997,1318.0
426.920999997,759.0
426.921999997,1107.0
426.922999997,1678.0
426.923999997,2796.0
426.924999997,3268.0
426.925999997,2853.0
426.926999997,2225.0
426.927999997,1159.0
426.928999997,781.0
426.929999997,1155.0
426.930999997,1883.0
426.931999997,2929.0
426.932999997,3186.0
426.933999997,2786.0
426.934999997,2010.0
426.935999997,998.0
426.936999997,846.0
426.937999997,1244.0
426.938999997,2083.0
426.939999997,3075.0
426.940999997,3106.0
426.941999997,2668.0
426.942999997,1807.0
426.943999997,888.0
426.944999997,938.0
426.945999997,1372.0
426.946999997,2322.0
426.947999997,3169.0
426.948999997,3027.0
426.949999997,2559.0
426.950999997,1573.0
426.951999997,818.0
426.952999997,1014.0
426.953999997,1511.0
426.954999997,2583.0
426.955999997,3229.0
426.956999997,2944.0
426.957999997,2406.0
426.958999997,1344.0
426.959999997,804.0
426.960999997,1099.0
426.961999997,1697.0
426.962999997,2771.0
426.963999997,3247.0
426.964999997,2884.0
426.965999997,2225.0
426.966999997,1208.0
426.967999997,828.0
426.968999997,1177.0
426.969999997,1907.0
426.970999997,2929.0
426.971999997,3193.0
426.972999997,2815.0
426.973999997,2019.0
426.974999997,1059.0
426.975999997,893.0
426.976999997,1275.0
426.977999997,2116.0
426.978999997,3074.0
426.979999997,3117.0
426.980999997,2715.0
426.981999997,1822.0
426.982999997,928.0
426.983999997,984.0
426.984999997,1401.0
426.985999997,2348.0
426.986999997,3195.0
426.987999997,3046.0
426.988999997,2604.0
426.989999997,1582.0
426.990999997,871.0
426.991999997,1077.0
426.992999997,1544.0
426.993999997,2617.0
426.994999997,3271.0
426.995999997,2978.0
426.996999997,2461.0
426.997999997,1381.0
426.998999997,853.0
426.999999997,1180.0
427.000999997,1749.0
427.001999997,2828.0
427.002999997,3298.0
427.003999997,2920.0
427.004999997,2288.0
427.005999997,1254.0
427.006999997,885.0
427.007999997,1257.0
427.008999997,1955.0
427.009999997,2994.0
427.010999997,3267.0
427.011999997,2875.0
427.012999997,2090.0
427.013999997,1106.0
427.014999997,945.0
427.015999997,1339.0
427.016999997,2159.0
427.017999997,3137.0
427.018999997,3187.0
427.019999997,2770.0
427.020999997,1871.0
427.021999997,955.0
427.022999997,994.0
427.023999997,1427.0
427.024999997,2356.0
427.025999997,3233.0
427.026999997,3084.0
427.027999997,2624.0
427.028999997,1618.0
427.029999997,827.0
427.030999997,1054.0
427.031999997,1552.0
427.032999997,2597.0
427.033999997,3272.0
427.034999997,2980.0
427.035999997,2451.0
427.036999997,1370.0
427.037999997,795.0
427.038999997,1123.0
427.039999997,1717.0
427.040999997,2791.0
427.041999997,3292.0
427.042999997,2898.0
427.043999997,2257.0
427.044999997,1206.0
427.045999997,782.0
427.046999997,1189.0
427.047999997,1906.0
427.048999997,2929.0
427.049999997,3227.0
427.050999997,2820.0
427.051999997,2045.0
427.052999997,1036.0
427.053999997,851.0
427.054999997,1254.0
427.055999997,2100.0
427.056999997,3083.0
427.057999997,3180.0
427.058999997,2775.0
427.059999997,1876.0
427.060999997,962.0
427.061999997,971.0
427.062999997,1378.0
427.063999997,2306.0
427.064999997,3164.0
427.065999997,3029.0
427.066999997,2559.0
427.067999997,1528.0
427.068999997,743.0
427.069999997,918.0
427.070999997,1398.0
427.071999997,2490.0
427.072999997,3193.0
427.073999997,2913.0
427.074999997,2404.0
427.075999997,1306.0
427.076999997,738.0
427.077999997,1070.0
427.078999997,1643.0
427.079999997,2783.0
427.080999997,3295.0
427.081999997,2913.0
427.082999997,2305.0
427.083999997,1216.0
427.084999997,809.0
427.085999997,1187.0
427.086999997,1896.0
427.087999997,2965.0
427.088999997,3273.0
427.089999997,2856.0
427.090999997,2100.0
427.091999997,1063.0
427.092999997,857.0
427.093999997,1262.0
427.094999997,2097.0
427.095999997,3109.0
427.096999997,3208.0
427.097999997,2784.0
427.098999997,1891.0
427.099999997,928.0
427.100999997,932.0
427.101999997,1367.0
427.102999997,2310.0
427.103999997,3239.0
427.104999997,3129.0
427.105999997,2672.0
427.106999997,1676.0
427.107999997,845.0
427.108999997,1026.0
427.109999997,1498.0
427.110999997,2558.0
427.111999997,3322.0
427.112999997,3050.0
427.113999997,2526.0
427.114999997,1426.0
427.115999997,797.0
427.116999997,1103.0
427.117999997,1671.0
427.118999997,2798.0
427.119999997,3363.0
427.120999997,2984.0
427.121999997,2351.0
427.122999997,1265.0
427.123999997,780.0
427.124999997,1170.0
427.125999997,1854.0
427.126999997,2932.0
427.127999997,3308.0
427.128999997,2895.0
427.129999997,2136.0
427.130999997,1111.0
427.131999997,842.0
427.132999997,1252.0
427.133999997,2063.0
427.134999997,3091.0
427.135999997,3240.0
427.136999997,2819.0
427.137999997,1932.0
427.138999997,968.0
427.139999997,909.0
427.140999997,1332.0
427.141999997,2267.0
427.142999997,3213.0
427.143999997,3150.0
427.144999997,2701.0
427.145999997,1705.0
427.146999997,865.0
427.147999997,989.0
427.148999997,1463.0
427.149999997,2505.0
427.150999997,3278.0
427.151999997,3062.0
427.152999997,2546.0
427.153999997,1446.0
427.154999997,799.0
427.155999997,1047.0
427.156999997,1605.0
427.157999997,2720.0
427.158999997,3297.0
427.159999997,2972.0
427.160999997,2361.0
427.161999997,1254.0
427.162999997,770.0
427.163999997,1114.0
427.164999997,1788.0
427.165999997,2864.0
427.166999997,3273.0
427.167999997,2894.0
427.168999997,2151.0
427.169999997,1103.0
427.170999997,813.0
427.171999997,1189.0
427.172999997,1994.0
427.173999997,3019.0
427.174999997,3201.0
427.175999997,2810.0
427.176999997,1928.0
427.177999997,965.0
427.178999997,888.0
427.179999997,1271.0
427.180999997,2200.0
427.181999997,3147.0
427.182999997,3127.0
427.183999997,2714.0
427.184999997,1733.0
427.185999997,862.0
427.186999997,974.0
427.187999997,1410.0
427.188999997,2453.0
427.189999997,3238.0
427.190999997,3045.0
427.191999997,2585.0
427.192999997,1486.0
427.193999997,821.0
427.194999997,1065.0
427.195999997,1575.0
427.196999997,2682.0
427.197999997,3279.0
427.198999997,2973.0
427.199999997,2412.0
427.200999997,1311.0
427.201999997,792.0
427.202999997,1134.0
427.203999997,1759.0
427.204999997,2851.0
427.205999997,3285.0
427.206999997,2897.0
427.207999997,2214.0
427.208999997,1157.0
427.209999997,829.0
427.210999997,1220.0
427.211999997,1976.0
427.212999997,3007.0
427.213999997,3211.0
427.214999997,2820.0
427.215999997,2015.0
427.216999997,1027.0
427.217999997,909.0
427.218999997,1311.0
427.219999997,2188.0
427.220999997,3147.0
427.221999997,3134.0
427.222999997,2718.0
427.223999997,1803.0
427.224999997,905.0
427.225999997,992.0
427.226999997,1428.0
427.227999997,2425.0
427.228999997,3231.0
427.229999997,3047.0
427.230999997,2581.0
427.231999997,1555.0
427.232999997,851.0
427.233999997,1074.0
427.234999997,1585.0
427.235999997,2668.0
427.236999997,3275.0
427.237999997,2969.0
427.238999997,2423.0
427.239999997,1361.0
427.240999997,828.0
427.241999997,1149.0
427.242999997,1779.0
427.243999997,2829.0
427.244999997,3270.0
427.245999997,2901.0
427.246999997,2216.0
427.247999997,1200.0
427.248999997,848.0
427.249999997,1229.0
427.250999997,1967.0
427.251999997,2975.0
427.252999997,3198.0
427.253999997,2818.0
427.254999997,2005.0
427.255999997,1041.0
427.256999997,920.0
427.257999997,1302.0
427.258999997,2165.0
427.259999997,3123.0
427.260999997,3119.0
427.261999997,2707.0
427.262999997,1782.0
427.263999997,931.0
427.264999997,993.0
427.265999997,1413.0
427.266999997,2389.0
427.267999997,3209.0
427.268999997,3029.0
427.269999997,2578.0
427.270999997,1529.0
427.271999997,863.0
427.272999997,1076.0
427.273999997,1566.0
427.274999997,2665.0
427.275999997,3242.0
427.276999997,2949.0
427.277999997,2398.0
427.278999997,1343.0
427.279999997,832.0
427.280999997,1153.0
427.281999997,1752.0
427.282999997,2825.0
427.283999997,3242.0
427.284999997,2870.0
427.285999997,2202.0
427.286999997,1179.0
427.287999997,858.0
427.288999997,1218.0
427.289999997,1943.0
427.290999997,2965.0
427.291999997,3181.0
427.292999997,2807.0
427.293999997,2009.0
427.294999997,1039.0
427.295999997,937.0
427.296999997,1320.0
427.297999997,2159.0
427.298999997,3124.0
427.299999997,3122.0
427.300999997,2712.0
427.301999997,1800.0
427.302999997,924.0
427.303999997,1007.0
427.304999997,1419.0
427.305999997,2387.0
427.306999997,3222.0
427.307999997,3041.0
427.308999997,2585.0
427.309999997,1565.0
427.310999997,839.0
427.311999997,1092.0
427.312999997,1584.0
427.313999997,2643.0
427.314999997,3270.0
427.315999997,2951.0
427.316999997,2426.0
427.317999997,1341.0
427.318999997,820.0
427.319999997,1165.0
427.320999997,1757.0
427.321999997,2825.0
427.322999997,3291.0
427.323999997,2890.0
427.324999997,2225.0
427.325999997,1202.0
427.326999997,834.0
427.327999997,1247.0
427.328999997,1948.0
427.329999997,2978.0
427.330999997,3236.0
427.331999997,2803.0
427.332999997,2019.0
427.333999997,1047.0
427.334999997,899.0
427.335999997,1326.0
427.336999997,2168.0
427.337999997,3116.0
427.338999997,3165.0
427.339999997,2724.0
427.340999997,1815.0
427.341999997,928.0
427.342999997,969.0
427.343999997,1430.0
427.344999997,2376.0
427.345999997,3207.0
427.346999997,3065.0
427.347999997,2589.0
427.348999997,1588.0
427.349999997,874.0
427.350999997,1102.0
427.351999997,1636.0
427.352999997,2711.0
427.353999997,3328.0
427.354999997,3019.0
427.355999997,2439.0
427.356999997,1329.0
427.357999997,768.0
427.358999997,1089.0
427.359999997,1692.0
427.360999997,2762.0
427.361999997,3209.0
427.362999997,2828.0
427.363999997,2158.0
427.364999997,1118.0
427.365999997,760.0
427.366999997,1146.0
427.367999997,1892.0
427.368999997,2932.0
427.369999997,3203.0
427.370999997,2798.0
427.371999997,2008.0
427.372999997,1037.0
427.373999997,892.0
427.374999997,1302.0
427.375999997,2181.0
427.376999997,3143.0
427.377999997,3174.0
427.378999997,2776.0
427.379999997,1845.0
427.380999997,938.0
427.381999997,978.0
427.382999997,1411.0
427.383999997,2395.0
427.384999997,3253.0
427.385999997,3098.0
427.386999997,2642.0
427.387999997,1612.0
427.388999997,837.0
427.389999997,1068.0
427.390999997,1533.0
427.391999997,2640.0
427.392999997,3303.0
427.393999997,3014.0
427.394999997,2489.0
427.395999997,1363.0
427.396999997,802.0
427.397999997,1121.0
427.398999997,1710.0
427.399999997,2843.0
427.400999997,3321.0
427.401999997,2920.0
427.402999997,2284.0
427.403999997,1192.0
427.404999997,798.0
427.405999997,1183.0
427.406999997,1893.0
427.407999997,2985.0
427.408999997,3254.0
427.409999997,2863.0
427.410999997,2098.0
427.411999997,1052.0
427.412999997,865.0
427.413999997,1273.0
427.414999997,2098.0
427.415999997,3168.0
427.416999997,3194.0
427.417999997,2769.0
427.418999997,1872.0
427.419999997,909.0
427.420999997,932.0
427.421999997,1340.0
427.422999997,2312.0
427.423999997,3249.0
427.424999997,3120.0
427.425999997,2639.0
427.426999997,1643.0
427.427999997,824.0
427.428999997,1008.0
427.429999997,1501.0
427.430999997,2566.0
427.431999997,3304.0
427.432999997,3023.0
427.433999997,2498.0
427.434999997,1396.0
427.435999997,777.0
427.436999997,1076.0
427.437999997,1664.0
427.438999997,2756.0
427.439999997,3315.0
427.440999997,2932.0
427.441999997,2288.0
427.442999997,1221.0
427.443999997,744.0
427.444999997,1135.0
427.445999997,1833.0
427.446999997,2895.0
427.447999997,3264.0
427.448999997,2845.0
427.449999997,2052.0
427.450999997,1057.0
427.451999997,789.0
427.452999997,1199.0
427.453999997,2025.0
427.454999997,3032.0
427.455999997,3189.0
427.456999997,2766.0
427.457999997,1840.0
427.458999997,909.0
427.459999997,861.0
427.460999997,1294.0
427.461999997,2241.0
427.462999997,3147.0
427.463999997,3100.0
427.464999997,2644.0
427.465999997,1639.0
427.466999997,806.0
427.467999997,934.0
427.468999997,1424.0
427.469999997,2490.0
427.470999997,3225.0
427.471999997,3023.0
427.472999997,2500.0
427.473999997,1384.0
427.474999997,767.0
427.475999997,1008.0
427.476999997,1591.0
427.477999997,2713.0
427.478999997,3250.0
427.479999997,2953.0
427.480999997,2321.0
427.481999997,1224.0
427.482999997,768.0
427.483999997,1091.0
427.484999997,1767.0
427.485999997,2855.0
427.486999997,3236.0
427.487999997,2887.0
427.488999997,2121.0
427.489999997,1077.0
427.490999997,810.0
427.491999997,1171.0
427.492999997,1984.0
427.493999997,3040.0
427.494999997,3168.0
427.495999997,2802.0
427.496999997,1933.0
427.497999997,943.0
427.498999997,886.0
427.499999997,1272.0
427.500999997,2207.0
427.501999997,3138.0
427.502999997,3087.0
427.503999997,2696.0
427.504999997,1710.0
427.505999997,854.0
427.506999997,986.0
427.507999997,1420.0
427.508999997,2472.0
427.509999997,3253.0
427.510999997,3035.0
427.511999997,2577.0
427.512999997,1496.0
427.513999997,812.0
427.514999997,1090.0
427.515999997,1606.0
427.516999997,2724.0
427.517999997,3301.0
427.518999997,2969.0
427.519999997,2415.0
427.520999997,1316.0
427.521999997,814.0
427.522999997,1165.0
427.523999997,1803.0
427.524999997,2884.0
427.525999997,3280.0
427.526999997,2896.0
427.527999997,2222.0
427.528999997,1182.0
427.529999997,862.0
427.530999997,1252.0
427.531999997,2026.0
427.532999997,3051.0
427.533999997,3241.0
427.534999997,2842.0
427.535999997,2029.0
427.536999997,1056.0
427.537999997,959.0
427.538999997,1366.0
427.539999997,2247.0
427.540999997,3195.0
427.541999997,3156.0
427.542999997,2736.0
427.543999997,1815.0
427.544999997,935.0
427.545999997,1016.0
427.546999997,1476.0
427.547999997,2479.0
427.548999997,3248.0
427.549999997,3068.0
427.550999997,2583.0
427.551999997,1543.0
427.552999997,872.0
427.553999997,1105.0
427.554999997,1637.0
427.555999997,2705.0
427.556999997,3293.0
427.557999997,2990.0
427.558999997,2398.0
427.559999997,1342.0
427.560999997,845.0
427.561999997,1176.0
427.562999997,1808.0
427.563999997,2860.0
427.564999997,3278.0
427.565999997,2902.0
427.566999997,2202.0
427.567999997,1206.0
427.568999997,887.0
427.569999997,1252.0
427.570999997,2017.0
427.571999997,3012.0
427.572999997,3191.0
427.573999997,2811.0
427.574999997,1973.0
427.575999997,1045.0
427.576999997,945.0
427.577999997,1338.0
427.578999997,2206.0
427.579999997,3136.0
427.580999997,3099.0
427.581999997,2698.0
427.582999997,1742.0
427.583999997,897.0
427.584999997,1014.0
427.585999997,1432.0
427.586999997,2422.0
427.587999997,3199.0
427.588999997,2989.0
427.589999997,2523.0
427.590999997,1451.0
427.591999997,803.0
427.592999997,1056.0
427.593999997,1547.0
427.594999997,2635.0
427.595999997,3216.0
427.596999997,2889.0
427.597999997,2327.0
427.598999997,1258.0
427.599999997,767.0
427.600999997,1130.0
427.601999997,1741.0
427.602999997,2792.0
427.603999997,3202.0
427.604999997,2812.0
427.605999997,2134.0
427.606999997,1117.0
427.607999997,808.0
427.608999997,1211.0
427.609999997,1942.0
427.610999997,2953.0
427.611999997,3165.0
427.612999997,2748.0
427.613999997,1939.0
427.614999997,983.0
427.615999997,897.0
427.616999997,1296.0
427.617999997,2169.0
427.618999997,3119.0
427.619999997,3130.0
427.620999997,2708.0
427.621999997,1816.0
427.622999997,944.0
427.623999997,1036.0
427.624999997,1455.0
427.625999997,2387.0
427.626999997,3181.0
427.627999997,2982.0
427.628999997,2481.0
427.629999997,1456.0
427.630999997,737.0
427.631999997,975.0
427.632999997,1496.0
427.633999997,2581.0
427.634999997,3190.0
427.635999997,2878.0
427.636999997,2333.0
427.637999997,1256.0
427.638999997,756.0
427.639999997,1108.0
427.640999997,1754.0
427.641999997,2824.0
427.642999997,3272.0
427.643999997,2884.0
427.644999997,2201.0
427.645999997,1186.0
427.646999997,828.0
427.647999997,1245.0
427.648999997,2002.0
427.649999997,3007.0
427.650999997,3247.0
427.651999997,2823.0
427.652999997,1998.0
427.653999997,1036.0
427.654999997,921.0
427.655999997,1328.0
427.656999997,2211.0
427.657999997,3146.0
427.658999997,3152.0
427.659999997,2711.0
427.660999997,1779.0
427.661999997,907.0
427.662999997,990.0
427.663999997,1435.0
427.664999997,2434.0
427.665999997,3237.0
427.666999997,3063.0
427.667999997,2590.0
427.668999997,1548.0
427.669999997,847.0
427.670999997,1071.0
427.671999997,1580.0
427.672999997,2684.0
427.673999997,3279.0
427.674999997,2979.0
427.675999997,2430.0
427.676999997,1322.0
427.677999997,815.0
427.678999997,1158.0
427.679999997,1763.0
427.680999997,2861.0
427.681999997,3304.0
427.682999997,2918.0
427.683999997,2247.0
427.684999997,1194.0
427.685999997,837.0
427.686999997,1225.0
427.687999997,1978.0
427.688999997,3018.0
427.689999997,3248.0
427.690999997,2826.0
427.691999997,2063.0
427.692999997,1062.0
427.693999997,925.0
427.694999997,1335.0
427.695999997,2198.0
427.696999997,3197.0
427.697999997,3186.0
427.698999997,2767.0
427.699999997,1852.0
427.700999997,941.0
427.701999997,1006.0
427.702999997,1445.0
427.703999997,2408.0
427.704999997,3274.0
427.705999997,3110.0
427.706999997,2634.0
427.707999997,1615.0
427.708999997,866.0
427.709999997,1079.0
427.710999997,1575.0
427.711999997,2659.0
427.712999997,3317.0
427.713999997,2990.0
427.714999997,2473.0
427.715999997,1380.0
427.716999997,813.0
427.717999997,1144.0
427.718999997,1733.0
427.719999997,2834.0
427.720999997,3326.0
427.721999997,2909.0
427.722999997,2273.0
427.723999997,1230.0
427.724999997,813.0
427.725999997,1206.0
427.726999997,1914.0
427.727999997,2965.0
427.728999997,3275.0
427.729999997,2868.0
427.730999997,2069.0
427.731999997,1082.0
427.732999997,870.0
427.733999997,1273.0
427.734999997,2123.0
427.735999997,3113.0
427.736999997,3178.0
427.737999997,2772.0
427.738999997,1848.0
427.739999997,940.0
427.740999997,940.0
427.741999997,1382.0
427.742999997,2333.0
427.743999997,3211.0
427.744999997,3104.0
427.745999997,2642.0
427.746999997,1614.0
427.747999997,863.0
427.748999997,1025.0
427.749999997,1518.0
427.750999997,2583.0
427.751999997,3279.0
427.752999997,3028.0
427.753999997,2495.0
427.754999997,1393.0
427.755999997,817.0
427.756999997,1102.0
427.757999997,1687.0
427.758999997,2773.0
427.759999997,3289.0
427.760999997,2957.0
427.761999997,2304.0
427.762999997,1238.0
427.763999997,799.0
427.764999997,1154.0
427.765999997,1863.0
427.766999997,2926.0
427.767999997,3241.0
427.768999997,2877.0
427.769999997,2088.0
427.770999997,1085.0
427.771999997,864.0
427.772999997,1224.0
427.773999997,2056.0
427.774999997,3051.0
427.775999997,3165.0
427.776999997,2774.0
427.777999997,1876.0
427.778999997,947.0
427.779999997,932.0
427.780999997,1321.0
427.781999997,2261.0
427.782999997,3159.0
427.783999997,3082.0
427.784999997,2655.0
427.785999997,1656.0
427.786999997,853.0
427.787999997,1005.0
427.788999997,1460.0
427.789999997,2514.0
427.790999997,3235.0
427.791999997,2993.0
427.792999997,2506.0
427.793999997,1422.0
427.794999997,808.0
427.795999997,1076.0
427.796999997,1628.0
427.797999997,2721.0
427.798999997,3245.0
427.799999997,2908.0
427.800999997,2342.0
427.801999997,1255.0
427.802999997,812.0
427.803999997,1144.0
427.804999997,1793.0
427.805999997,2853.0
427.806999997,3217.0
427.807999997,2822.0
427.808999997,2112.0
427.809999997,1103.0
427.810999997,856.0
427.811999997,1215.0
427.812999997,2003.0
427.813999997,2998.0
427.814999997,3122.0
427.815999997,2749.0
427.816999997,1914.0
427.817999997,961.0
427.818999997,908.0
427.819999997,1307.0
427.820999997,2201.0
427.821999997,3108.0
427.822999997,3049.0
427.823999997,2630.0
427.824999997,1684.0
427.825999997,862.0
427.826999997,987.0
427.827999997,1433.0
427.828999997,2455.0
427.829999997,3185.0
427.830999997,2968.0
427.831999997,2484.0
427.832999997,1448.0
427.833999997,813.0
427.834999997,1072.0
427.835999997,1613.0
427.836999997,2678.0
427.837999997,3221.0
427.838999997,2901.0
427.839999997,2318.0
427.840999997,1294.0
427.841999997,817.0
427.842999997,1171.0
427.843999997,1819.0
427.844999997,2831.0
427.845999997,3199.0
427.846999997,2846.0
427.847999997,2114.0
427.848999997,1150.0
427.849999997,880.0
427.850999997,1238.0
427.851999997,2021.0
427.852999997,2977.0
427.853999997,3123.0
427.854999997,2754.0
427.855999997,1909.0
427.856999997,1011.0
427.857999997,953.0
427.858999997,1334.0
427.859999997,2221.0
427.860999997,3111.0
427.861999997,3060.0
427.862999997,2653.0
427.863999997,1708.0
427.864999997,927.0
427.865999997,1036.0
427.866999997,1464.0
427.867999997,2472.0
427.868999997,3193.0
427.869999997,2982.0
427.870999997,2503.0
427.871999997,1464.0
427.872999997,876.0
427.873999997,1107.0
427.874999997,1624.0
427.875999997,2692.0
427.876999997,3237.0
427.877999997,2893.0
427.878999997,2324.0
427.879999997,1286.0
427.880999997,859.0
427.881999997,1217.0
427.882999997,1816.0
427.883999997,2861.0
427.884999997,3212.0
427.885999997,2838.0
427.886999997,2132.0
427.887999997,1151.0
427.888999997,917.0
427.889999997,1284.0
427.890999997,2050.0
427.891999997,3076.0
427.892999997,3194.0
427.893999997,2815.0
427.894999997,1973.0
427.895999997,1029.0
427.896999997,978.0
427.897999997,1333.0
427.898999997,2186.0
427.899999997,3087.0
427.900999997,2998.0
427.901999997,2572.0
427.902999997,1641.0
427.903999997,824.0
427.904999997,986.0
427.905999997,1424.0
427.906999997,2384.0
427.907999997,3164.0
427.908999997,2955.0
427.909999997,2488.0
427.910999997,1463.0
427.911999997,844.0
427.912999997,1146.0
427.913999997,1668.0
427.914999997,2726.0
427.915999997,3300.0
427.916999997,2967.0
427.917999997,2432.0
427.918999997,1330.0
427.919999997,873.0
427.920999997,1247.0
427.921999997,1873.0
427.922999997,2908.0
427.923999997,3300.0
427.924999997,2885.0
427.925999997,2206.0
427.926999997,1202.0
427.927999997,915.0
427.928999997,1323.0
427.929999997,2063.0
427.930999997,3043.0
427.931999997,3223.0
427.932999997,2802.0
427.933999997,1981.0
427.934999997,1046.0
427.935999997,964.0
427.936999997,1391.0
427.937999997,2264.0
427.938999997,3167.0
427.939999997,3137.0
427.940999997,2689.0
427.941999997,1764.0
427.942999997,930.0
427.943999997,1037.0
427.944999997,1509.0
427.945999997,2485.0
427.946999997,3237.0
427.947999997,3051.0
427.948999997,2547.0
427.949999997,1509.0
427.950999997,870.0
427.951999997,1118.0
427.952999997,1653.0
427.953999997,2717.0
427.954999997,3275.0
427.955999997,2966.0
427.956999997,2385.0
427.957999997,1307.0
427.958999997,830.0
427.959999997,1170.0
427.960999997,1831.0
427.961999997,2876.0
427.962999997,3264.0
427.963999997,2886.0
427.964999997,2172.0
427.965999997,1164.0
427.966999997,851.0
427.967999997,1232.0
427.968999997,2017.0
427.969999997,3012.0
427.970999997,3192.0
427.971999997,2787.0
427.972999997,1949.0
427.973999997,993.0
427.974999997,907.0
427.975999997,1310.0
427.976999997,2204.0
427.977999997,3140.0
427.978999997,3098.0
427.979999997,2683.0
427.980999997,1724.0
427.981999997,860.0
427.982999997,984.0
427.983999997,1409.0
427.984999997,2416.0
427.985999997,3202.0
427.986999997,2994.0
427.987999997,2518.0
427.988999997,1471.0
427.989999997,782.0
427.990999997,1026.0
427.991999997,1539.0
427.992999997,2657.0
427.993999997,3248.0
427.994999997,2911.0
427.995999997,2358.0
427.996999997,1254.0
427.997999997,749.0
427.998999997,1106.0
427.999999997,1722.0
428.000999997,2815.0
428.001999997,3244.0
428.002999997,2842.0
428.003999997,2172.0
428.004999997,1119.0
428.005999997,792.0
428.006999997,1187.0
428.007999997,1923.0
428.008999997,2981.0
428.009999997,3192.0
428.010999997,2782.0
428.011999997,1972.0
428.012999997,985.0
428.013999997,870.0
428.014999997,1285.0
428.015999997,2129.0
428.016999997,3128.0
428.017999997,3123.0
428.018999997,2688.0
428.019999997,1773.0
428.020999997,863.0
428.021999997,939.0
428.022999997,1390.0
428.023999997,2356.0
428.024999997,3217.0
428.025999997,3040.0
428.026999997,2549.0
428.027999997,1519.0
428.028999997,783.0
428.029999997,1013.0
428.030999997,1516.0
428.031999997,2584.0
428.032999997,3244.0
428.033999997,2928.0
428.034999997,2327.0
428.035999997,1296.0
428.036999997,729.0
428.037999997,1065.0
428.038999997,1675.0
428.039999997,2733.0
428.040999997,3221.0
428.041999997,2821.0
428.042999997,2139.0
428.043999997,1113.0
428.044999997,718.0
428.045999997,1097.0
428.046999997,1828.0
428.047999997,2827.0
428.048999997,3109.0
428.049999997,2702.0
428.050999997,1891.0
428.051999997,926.0
428.052999997,726.0
428.053999997,1122.0
428.054999997,1968.0
428.055999997,2920.0
428.056999997,2987.0
428.057999997,2554.0
428.058999997,1628.0
428.059999997,745.0
428.060999997,746.0
428.061999997,1175.0
428.062999997,2128.0
428.063999997,2960.0
428.064999997,2852.0
428.065999997,2382.0
428.066999997,1369.0
428.067999997,626.0
428.068999997,775.0
428.069999997,1260.0
428.070999997,2325.0
428.071999997,2954.0
428.072999997,2700.0
428.073999997,2149.0
428.074999997,1054.0
428.075999997,529.0
428.076999997,772.0
428.077999997,1355.0
428.078999997,2427.0
428.079999997,2890.0
428.080999997,2564.0
428.081999997,1913.0
428.082999997,888.0
428.083999997,508.0
428.084999997,844.0
428.085999997,1544.0
428.086999997,2551.0
428.087999997,2810.0
428.088999997,2464.0
428.089999997,1686.0
428.090999997,731.0
428.091999997,559.0
428.092999997,907.0
428.093999997,1731.0
428.094999997,2688.0
428.095999997,2748.0
428.096999997,2406.0
428.097999997,1528.0
428.098999997,642.0
428.099999997,671.0
428.100999997,1031.0
428.101999997,1955.0
428.102999997,2795.0
428.103999997,2652.0
428.104999997,2264.0
428.105999997,1311.0
428.106999997,571.0
428.107999997,760.0
428.108999997,1182.0
428.109999997,2198.0
428.110999997,2824.0
428.111999997,2555.0
428.112999997,2111.0
428.113999997,1109.0
428.114999997,545.0
428.115999997,851.0
428.116999997,1381.0
428.117999997,2410.0
428.118999997,2869.0
428.119999997,2529.0
428.120999997,1979.0
428.121999997,1003.0
428.122999997,630.0
428.123999997,982.0
428.124999997,1609.0
428.125999997,2578.0
428.126999997,2847.0
428.127999997,2469.0
428.128999997,1811.0
428.129999997,901.0
428.130999997,730.0
428.131999997,1098.0
428.132999997,1840.0
428.133999997,2746.0
428.134999997,2808.0
428.135999997,2429.0
428.136999997,1674.0
428.137999997,848.0
428.138999997,874.0
428.139999997,1267.0
428.140999997,2104.0
428.141999997,2909.0
428.142999997,2811.0
428.143999997,2412.0
428.144999997,1559.0
428.145999997,869.0
428.146999997,1044.0
428.147999997,1491.0
428.148999997,2434.0
428.149999997,3065.0
428.150999997,2821.0
428.151999997,2370.0
428.152999997,1421.0
428.153999997,915.0
428.154999997,1192.0
428.155999997,1703.0
428.156999997,2680.0
428.157999997,3138.0
428.158999997,2812.0
428.159999997,2261.0
428.160999997,1356.0
428.161999997,1002.0
428.162999997,1358.0
428.163999997,1990.0
428.164999997,2912.0
428.165999997,3165.0
428.166999997,2810.0
428.167999997,2099.0
428.168999997,1227.0
428.169999997,1046.0
428.170999997,1381.0
428.171999997,2101.0
428.172999997,2960.0
428.173999997,3028.0
428.174999997,2677.0
428.175999997,1899.0
428.176999997,1116.0
428.177999997,1150.0
428.178999997,1508.0
428.179999997,2349.0
428.180999997,3147.0
428.181999997,3035.0
428.182999997,2671.0
428.183999997,1799.0
428.184999997,1142.0
428.185999997,1309.0
428.186999997,1740.0
428.187999997,2681.0
428.188999997,3292.0
428.189999997,3047.0
428.190999997,2598.0
428.191999997,1627.0
428.192999997,1123.0
428.193999997,1422.0
428.194999997,1906.0
428.195999997,2890.0
428.196999997,3342.0
428.197999997,2994.0
428.198999997,2460.0
428.199999997,1511.0
428.200999997,1141.0
428.201999997,1504.0
428.202999997,2099.0
428.203999997,3020.0
428.204999997,3315.0
428.205999997,2950.0
428.206999997,2280.0
428.207999997,1381.0
428.208999997,1215.0
428.209999997,1586.0
428.210999997,2302.0
428.211999997,3183.0
428.212999997,3269.0
428.213999997,2882.0
428.214999997,2095.0
428.215999997,1263.0
428.216999997,1280.0
428.217999997,1672.0
428.218999997,2487.0
428.219999997,3298.0
428.220999997,3186.0
428.221999997,2776.0
428.222999997,1900.0
428.223999997,1183.0
428.224999997,1360.0
428.225999997,1799.0
428.226999997,2723.0
428.227999997,3371.0
428.228999997,3113.0
428.229999997,2654.0
428.230999997,1690.0
428.231999997,1152.0
428.232999997,1439.0
428.233999997,1961.0
428.234999997,2925.0
428.235999997,3398.0
428.236999997,3048.0
428.237999997,2483.0
428.238999997,1543.0
428.239999997,1158.0
428.240999997,1512.0
428.241999997,2134.0
428.242999997,3058.0
428.243999997,3368.0
428.244999997,2978.0
428.245999997,2300.0
428.246999997,1389.0
428.247999997,1187.0
428.248999997,1562.0
428.249999997,2312.0
428.250999997,3187.0
428.251999997,3281.0
428.252999997,2894.0
428.253999997,2094.0
428.254999997,1253.0
428.255999997,1235.0
428.256999997,1629.0
428.257999997,2477.0
428.258999997,3282.0
428.259999997,3190.0
428.260999997,2763.0
428.261999997,1878.0
428.262999997,1142.0
428.263999997,1293.0
428.264999997,1723.0
428.265999997,2679.0
428.266999997,3346.0
428.267999997,3094.0
428.268999997,2627.0
428.269999997,1627.0
428.270999997,1078.0
428.271999997,1351.0
428.272999997,1861.0
428.273999997,2865.0
428.274999997,3348.0
428.275999997,3010.0
428.276999997,2458.0
428.277999997,1454.0
428.278999997,1057.0
428.279999997,1421.0
428.280999997,2034.0
428.281999997,3007.0
428.282999997,3303.0
428.283999997,2932.0
428.284999997,2266.0
428.285999997,1318.0
428.286999997,1092.0
428.287999997,1486.0
428.288999997,2197.0
428.289999997,3128.0
428.290999997,3237.0
428.291999997,2844.0
428.292999997,2069.0
428.293999997,1182.0
428.294999997,1148.0
428.295999997,1540.0
428.296999997,2381.0
428.297999997,3231.0
428.298999997,3155.0
428.299999997,2742.0
428.300999997,1865.0
428.301999997,1075.0
428.302999997,1209.0
428.303999997,1645.0
428.304999997,2593.0
428.305999997,3324.0
428.306999997,3072.0
428.307999997,2617.0
428.308999997,1630.0
428.309999997,1014.0
428.310999997,1287.0
428.311999997,1784.0
428.312999997,2796.0
428.313999997,3331.0
428.314999997,2986.0
428.315999997,2442.0
428.316999997,1442.0
428.317999997,986.0
428.318999997,1339.0
428.319999997,1930.0
428.320999997,2921.0
428.321999997,3285.0
428.322999997,2906.0
428.323999997,2236.0
428.324999997,1307.0
428.325999997,1017.0
428.326999997,1385.0
428.327999997,2080.0
428.328999997,3036.0
428.329999997,3212.0
428.330999997,2822.0
428.331999997,2043.0
428.332999997,1158.0
428.333999997,1080.0
428.334999997,1466.0
428.335999997,2283.0
428.336999997,3154.0
428.337999997,3131.0
428.338999997,2732.0
428.339999997,1851.0
428.340999997,1037.0
428.341999997,1146.0
428.342999997,1568.0
428.343999997,2482.0
428.344999997,3226.0
428.345999997,3047.0
428.346999997,2586.0
428.347999997,1604.0
428.348999997,979.0
428.349999997,1206.0
428.350999997,1690.0
428.351999997,2750.0
428.352999997,3240.0
428.353999997,2971.0
428.354999997,2422.0
428.355999997,1412.0
428.356999997,958.0
428.357999997,1265.0
428.358999997,1858.0
428.359999997,2839.0
428.360999997,3238.0
428.361999997,2886.0
428.362999997,2239.0
428.363999997,1292.0
428.364999997,978.0
428.365999997,1320.0
428.366999997,2039.0
428.367999997,2966.0
428.368999997,3167.0
428.369999997,2808.0
428.370999997,2040.0
428.371999997,1143.0
428.372999997,1035.0
428.373999997,1397.0
428.374999997,2210.0
428.375999997,3085.0
428.376999997,3082.0
428.377999997,2711.0
428.378999997,1846.0
428.379999997,1037.0
428.380999997,1097.0
428.381999997,1492.0
428.382999997,2398.0
428.383999997,3155.0
428.384999997,3011.0
428.385999997,2602.0
428.386999997,1623.0
428.387999997,974.0
428.388999997,1176.0
428.389999997,1622.0
428.390999997,2627.0
428.391999997,3197.0
428.392999997,2920.0
428.393999997,2430.0
428.394999997,1433.0
428.395999997,938.0
428.396999997,1237.0
428.397999997,1781.0
428.398999997,2777.0
428.399999997,3190.0
428.400999997,2845.0
428.401999997,2259.0
428.402999997,1294.0
428.403999997,978.0
428.404999997,1312.0
428.405999997,1958.0
428.406999997,2907.0
428.407999997,3130.0
428.408999997,2762.0
428.409999997,2053.0
428.410999997,1151.0
428.411999997,974.0
428.412999997,1368.0
428.413999997,2132.0
428.414999997,3007.0
428.415999997,3047.0
428.416999997,2679.0
428.417999997,1836.0
428.418999997,1020.0
428.419999997,1109.0
428.420999997,1462.0
428.421999997,2327.0
428.422999997,3096.0
428.423999997,2947.0
428.424999997,2540.0
428.425999997,1634.0
428.426999997,953.0
428.427999997,1094.0
428.428999997,1615.0
428.429999997,2586.0
428.430999997,3180.0
428.431999997,2943.0
428.432999997,2426.0
428.433999997,1451.0
428.434999997,913.0
428.435999997,1195.0
428.436999997,1712.0
428.437999997,2670.0
428.438999997,3080.0
428.439999997,2734.0
428.440999997,2138.0
428.441999997,1216.0
428.442999997,880.0
428.443999997,1220.0
428.444999997,1874.0
428.445999997,2797.0
428.446999997,3030.0
428.447999997,2692.0
428.448999997,2004.0
428.449999997,1152.0
428.450999997,1004.0
428.451999997,1370.0
428.452999997,2136.0
428.453999997,2998.0
428.454999997,3035.0
428.455999997,2687.0
428.456999997,1856.0
428.457999997,1067.0
428.458999997,1100.0
428.459999997,1479.0
428.460999997,2330.0
428.461999997,3082.0
428.462999997,2961.0
428.463999997,2552.0
428.464999997,1639.0
428.465999997,996.0
428.466999997,1175.0
428.467999997,1606.0
428.468999997,2567.0
428.469999997,3141.0
428.470999997,2879.0
428.471999997,2409.0
428.472999997,1434.0
428.473999997,964.0
428.474999997,1247.0
428.475999997,1756.0
428.476999997,2738.0
428.477999997,3140.0
428.478999997,2810.0
428.479999997,2237.0
428.480999997,1300.0
428.481999997,986.0
428.482999997,1325.0
428.483999997,1944.0
428.484999997,2878.0
428.485999997,3103.0
428.486999997,2748.0
428.487999997,2061.0
428.488999997,1180.0
428.489999997,1038.0
428.490999997,1375.0
428.491999997,2132.0
428.492999997,3008.0
428.493999997,3043.0
428.494999997,2674.0
428.495999997,1883.0
428.496999997,1065.0
428.497999997,1122.0
428.498999997,1497.0
428.499999997,2335.0
428.500999997,3115.0
428.501999997,2963.0
428.502999997,2565.0
428.503999997,1670.0
428.504999997,985.0
428.505999997,1206.0
428.506999997,1632.0
428.507999997,2559.0
428.508999997,3167.0
428.509999997,2883.0
428.510999997,2413.0
428.511999997,1445.0
428.512999997,951.0
428.513999997,1257.0
428.514999997,1773.0
428.515999997,2738.0
428.516999997,3164.0
428.517999997,2804.0
428.518999997,2238.0
428.519999997,1299.0
428.520999997,922.0
428.521999997,1325.0
428.522999997,1945.0
428.523999997,2864.0
428.524999997,3133.0
428.525999997,2738.0
428.526999997,2053.0
428.527999997,1169.0
428.528999997,1001.0
428.529999997,1395.0
428.530999997,2130.0
428.531999997,2998.0
428.532999997,3076.0
428.533999997,2672.0
428.534999997,1866.0
428.535999997,1052.0
428.536999997,1070.0
428.537999997,1483.0
428.538999997,2330.0
428.539999997,3112.0
428.540999997,3004.0
428.541999997,2566.0
428.542999997,1670.0
428.543999997,977.0
428.544999997,1148.0
428.545999997,1615.0
428.546999997,2560.0
428.547999997,3169.0
428.548999997,2922.0
428.549999997,2428.0
428.550999997,1447.0
428.551999997,940.0
428.552999997,1228.0
428.553999997,1768.0
428.554999997,2752.0
428.555999997,3183.0
428.556999997,2850.0
428.557999997,2258.0
428.558999997,1306.0
428.559999997,944.0
428.560999997,1287.0
428.561999997,1947.0
428.562999997,2880.0
428.563999997,3137.0
428.564999997,2758.0
428.565999997,2060.0
428.566999997,1162.0
428.567999997,984.0
428.568999997,1334.0
428.569999997,2117.0
428.570999997,3001.0
428.571999997,3068.0
428.572999997,2682.0
428.573999997,1867.0
428.574999997,1027.0
428.575999997,1047.0
428.576999997,1425.0
428.577999997,2304.0
428.578999997,3103.0
428.579999997,2989.0
428.580999997,2567.0
428.581999997,1651.0
428.582999997,925.0
428.583999997,1106.0
428.584999997,1542.0
428.585999997,2521.0
428.586999997,3171.0
428.587999997,2898.0
428.588999997,2432.0
428.589999997,1421.0
428.590999997,869.0
428.591999997,1173.0
428.592999997,1700.0
428.593999997,2730.0
428.594999997,3205.0
428.595999997,2843.0
428.596999997,2285.0
428.597999997,1275.0
428.598999997,896.0
428.599999997,1254.0
428.600999997,1885.0
428.601999997,2880.0
428.602999997,3175.0
428.603999997,2791.0
428.604999997,2105.0
428.605999997,1164.0
428.606999997,959.0
428.607999997,1341.0
428.608999997,2068.0
428.609999997,3012.0
428.610999997,3100.0
428.611999997,2710.0
428.612999997,1919.0
428.613999997,1038.0
428.614999997,1022.0
428.615999997,1432.0
428.616999997,2259.0
428.617999997,3134.0
428.618999997,3038.0
428.619999997,2622.0
428.620999997,1733.0
428.621999997,952.0
428.622999997,1106.0
428.623999997,1568.0
428.624999997,2489.0
428.625999997,3216.0
428.626999997,2976.0
428.627999997,2501.0
428.628999997,1519.0
428.629999997,918.0
428.630999997,1184.0
428.631999997,1708.0
428.632999997,2712.0
428.633999997,3259.0
428.634999997,2910.0
428.635999997,2330.0
428.636999997,1350.0
428.637999997,899.0
428.638999997,1249.0
428.639999997,1881.0
428.640999997,2845.0
428.641999997,3219.0
428.642999997,2840.0
428.643999997,2146.0
428.644999997,1224.0
428.645999997,938.0
428.646999997,1328.0
428.647999997,2065.0
428.648999997,2973.0
428.649999997,3147.0
428.650999997,2764.0
428.651999997,1950.0
428.652999997,1090.0
428.653999997,1006.0
428.654999997,1403.0
428.655999997,2249.0
428.656999997,3094.0
428.657999997,3074.0
428.658999997,2646.0
428.659999997,1763.0
428.660999997,996.0
428.661999997,1079.0
428.662999997,1516.0
428.663999997,2458.0
428.664999997,3160.0
428.665999997,2994.0
428.666999997,2533.0
428.667999997,1530.0
428.668999997,936.0
428.669999997,1145.0
428.670999997,1647.0
428.671999997,2667.0
428.672999997,3182.0
428.673999997,2922.0
428.674999997,2373.0
428.675999997,1351.0
428.676999997,918.0
428.677999997,1198.0
428.678999997,1808.0
428.679999997,2799.0
428.680999997,3168.0
428.681999997,2844.0
428.682999997,2177.0
428.683999997,1218.0
428.684999997,942.0
428.685999997,1266.0
428.686999997,1989.0
428.687999997,2925.0
428.688999997,3109.0
428.689999997,2771.0
428.690999997,1980.0
428.691999997,1073.0
428.692999997,1005.0
428.693999997,1336.0
428.694999997,2169.0
428.695999997,3033.0
428.696999997,3015.0
428.697999997,2660.0
428.698999997,1802.0
428.699999997,1007.0
428.700999997,1115.0
428.701999997,1518.0
428.702999997,2444.0
428.703999997,3164.0
428.704999997,2981.0
428.705999997,2548.0
428.706999997,1559.0
428.707999997,896.0
428.708999997,1115.0
428.709999997,1540.0
428.710999997,2543.0
428.711999997,3081.0
428.712999997,2786.0
428.713999997,2326.0
428.714999997,1330.0
428.715999997,850.0
428.716999997,1164.0
428.717999997,1717.0
428.718999997,2717.0
428.719999997,3124.0
428.720999997,2782.0
428.721999997,2209.0
428.722999997,1267.0
428.723999997,961.0
428.724999997,1312.0
428.725999997,1973.0
428.726999997,2923.0
428.727999997,3139.0
428.728999997,2756.0
428.729999997,2053.0
428.730999997,1147.0
428.731999997,1031.0
428.732999997,1399.0
428.733999997,2171.0
428.734999997,3044.0
428.735999997,3051.0
428.736999997,2672.0
428.737999997,1854.0
428.738999997,1037.0
428.739999997,1105.0
428.740999997,1501.0
428.741999997,2376.0
428.742999997,3124.0
428.743999997,2970.0
428.744999997,2543.0
428.745999997,1641.0
428.746999997,986.0
428.747999997,1183.0
428.748999997,1645.0
428.749999997,2610.0
428.750999997,3175.0
428.751999997,2891.0
428.752999997,2394.0
428.753999997,1440.0
428.754999997,963.0
428.755999997,1253.0
428.756999997,1807.0
428.757999997,2754.0
428.758999997,3160.0
428.759999997,2822.0
428.760999997,2205.0
428.761999997,1306.0
428.762999997,1000.0
428.763999997,1315.0
428.764999997,1979.0
428.765999997,2885.0
428.766999997,3104.0
428.767999997,2758.0
428.768999997,2024.0
428.769999997,1183.0
428.770999997,1061.0
428.771999997,1389.0
428.772999997,2176.0
428.773999997,3033.0
428.774999997,3038.0
428.775999997,2683.0
428.776999997,1855.0
428.777999997,1081.0
428.778999997,1140.0
428.779999997,1516.0
428.780999997,2393.0
428.781999997,3112.0
428.782999997,2960.0
428.783999997,2560.0
428.784999997,1627.0
428.785999997,1007.0
428.786999997,1216.0
428.787999997,1651.0
428.788999997,2621.0
428.789999997,3177.0
428.790999997,2894.0
428.791999997,2410.0
428.792999997,1426.0
428.793999997,969.0
428.794999997,1285.0
428.795999997,1807.0
428.796999997,2780.0
428.797999997,3161.0
428.798999997,2805.0
428.799999997,2232.0
428.800999997,1304.0
428.801999997,995.0
428.802999997,1353.0
428.803999997,2007.0
428.804999997,2959.0
428.805999997,3110.0
428.806999997,2735.0
428.807999997,2040.0
428.808999997,1168.0
428.809999997,1055.0
428.810999997,1419.0
428.811999997,2170.0
428.812999997,3029.0
428.813999997,3051.0
428.814999997,2664.0
428.815999997,1853.0
428.816999997,1042.0
428.817999997,1117.0
428.818999997,1511.0
428.819999997,2367.0
428.820999997,3129.0
428.821999997,2960.0
428.822999997,2533.0
428.823999997,1617.0
428.824999997,953.0
428.825999997,1170.0
428.826999997,1630.0
428.827999997,2571.0
428.828999997,3164.0
428.829999997,2893.0
428.830999997,2395.0
428.831999997,1411.0
428.832999997,919.0
428.833999997,1251.0
428.834999997,1792.0
428.835999997,2758.0
428.836999997,3181.0
428.837999997,2814.0
428.838999997,2213.0
428.839999997,1283.0
428.840999997,946.0
428.841999997,1331.0
428.842999997,1988.0
428.843999997,2910.0
428.844999997,3152.0
428.845999997,2763.0
428.846999997,2043.0
428.847999997,1169.0
428.848999997,1023.0
428.849999997,1403.0
428.850999997,2179.0
428.851999997,3050.0
428.852999997,3087.0
428.853999997,2682.0
428.854999997,1861.0
428.855999997,1045.0
428.856999997,1086.0
428.857999997,1494.0
428.858999997,2366.0
428.859999997,3133.0
428.860999997,3001.0
428.861999997,2567.0
428.862999997,1631.0
428.863999997,963.0
428.864999997,1142.0
428.865999997,1605.0
428.866999997,2590.0
428.867999997,3184.0
428.868999997,2910.0
428.869999997,2404.0
428.870999997,1384.0
428.871999997,889.0
428.872999997,1170.0
428.873999997,1716.0
428.874999997,2724.0
428.875999997,3153.0
428.876999997,2775.0
428.877999997,2183.0
428.878999997,1197.0
428.879999997,850.0
428.880999997,1207.0
428.881999997,1869.0
428.882999997,2836.0
428.883999997,3070.0
428.884999997,2694.0
428.885999997,1981.0
428.886999997,1052.0
428.887999997,907.0
428.888999997,1280.0
428.889999997,2049.0
428.890999997,2955.0
428.891999997,2989.0
428.892999997,2606.0
428.893999997,1782.0
428.894999997,932.0
428.895999997,973.0
428.896999997,1372.0
428.897999997,2244.0
428.898999997,3072.0
428.899999997,2939.0
428.900999997,2506.0
428.901999997,1590.0
428.902999997,854.0
428.903999997,1029.0
428.904999997,1492.0
428.905999997,2469.0
428.906999997,3137.0
428.907999997,2867.0
428.908999997,2383.0
428.909999997,1375.0
428.910999997,826.0
428.911999997,1122.0
428.912999997,1647.0
428.913999997,2671.0
428.914999997,3165.0
428.915999997,2816.0
428.916999997,2243.0
428.917999997,1234.0
428.918999997,821.0
428.919999997,1168.0
428.920999997,1828.0
428.921999997,2825.0
428.922999997,3101.0
428.923999997,2725.0
428.924999997,2014.0
428.925999997,1094.0
428.926999997,865.0
428.927999997,1231.0
428.928999997,2016.0
428.929999997,2939.0
428.930999997,3039.0
428.931999997,2650.0
428.932999997,1855.0
428.933999997,958.0
428.934999997,969.0
428.935999997,1379.0
428.936999997,2212.0
428.937999997,3061.0
428.938999997,2980.0
428.939999997,2551.0
428.940999997,1638.0
428.941999997,897.0
428.942999997,1034.0
428.943999997,1486.0
428.944999997,2449.0
428.945999997,3134.0
428.946999997,2929.0
428.947999997,2445.0
428.948999997,1445.0
428.949999997,879.0
428.950999997,1128.0
428.951999997,1667.0
428.952999997,2668.0
428.953999997,3178.0
428.954999997,2869.0
428.955999997,2292.0
428.956999997,1299.0
428.957999997,873.0
428.958999997,1208.0
428.959999997,1836.0
428.960999997,2816.0
428.961999997,3180.0
428.962999997,2827.0
428.963999997,2147.0
428.964999997,1234.0
428.965999997,992.0
428.966999997,1339.0
428.967999997,2078.0
428.968999997,2988.0
428.969999997,3096.0
428.970999997,2727.0
428.971999997,1891.0
428.972999997,998.0
428.973999997,948.0
428.974999997,1299.0
428.975999997,2148.0
428.976999997,3002.0
428.977999997,2975.0
428.978999997,2591.0
428.979999997,1687.0
428.980999997,926.0
428.981999997,1051.0
428.982999997,1469.0
428.983999997,2433.0
428.984999997,3133.0
428.985999997,2956.0
428.986999997,2524.0
428.987999997,1552.0
428.988999997,958.0
428.989999997,1201.0
428.990999997,1687.0
428.991999997,2711.0
428.992999997,3217.0
428.993999997,2924.0
428.994999997,2409.0
428.995999997,1400.0
428.996999997,958.0
428.997999997,1271.0
428.998999997,1856.0
428.999999997,2840.0
429.000999997,3192.0
429.001999997,2852.0
429.002999997,2221.0
429.003999997,1262.0
429.004999997,1005.0
429.005999997,1337.0
429.006999997,2036.0
429.007999997,2973.0
429.008999997,3139.0
429.009999997,2784.0
429.010999997,2022.0
429.011999997,1128.0
429.012999997,1050.0
429.013999997,1407.0
429.014999997,2222.0
429.015999997,3089.0
429.016999997,3052.0
429.017999997,2679.0
429.018999997,1827.0
429.019999997,1022.0
429.020999997,1130.0
429.021999997,1525.0
429.022999997,2440.0
429.023999997,3153.0
429.024999997,2974.0
429.025999997,2541.0
429.026999997,1590.0
429.027999997,958.0
429.028999997,1195.0
429.029999997,1670.0
429.030999997,2650.0
429.031999997,3193.0
429.032999997,2896.0
429.033999997,2381.0
429.034999997,1421.0
429.035999997,955.0
429.036999997,1275.0
429.037999997,1840.0
429.038999997,2799.0
429.039999997,3171.0
429.040999997,2809.0
429.041999997,2206.0
429.042999997,1293.0
429.043999997,992.0
429.044999997,1329.0
429.045999997,2019.0
429.046999997,2921.0
429.047999997,3102.0
429.048999997,2753.0
429.049999997,2000.0
429.050999997,1136.0
429.051999997,1044.0
429.052999997,1390.0
429.053999997,2189.0
429.054999997,3030.0
429.055999997,3006.0
429.056999997,2632.0
429.057999997,1791.0
429.058999997,1027.0
429.059999997,1111.0
429.060999997,1481.0
429.061999997,2391.0
429.062999997,3105.0
429.063999997,2920.0
429.064999997,2520.0
429.065999997,1547.0
429.066999997,956.0
429.067999997,1169.0
429.068999997,1617.0
429.069999997,2610.0
429.070999997,3126.0
429.071999997,2844.0
429.072999997,2337.0
429.073999997,1361.0
429.074999997,930.0
429.075999997,1239.0
429.076999997,1783.0
429.077999997,2756.0
429.078999997,3106.0
429.079999997,2770.0
429.080999997,2150.0
429.081999997,1234.0
429.082999997,969.0
429.083999997,1312.0
429.084999997,1970.0
429.085999997,2891.0
429.086999997,3057.0
429.087999997,2704.0
429.088999997,1969.0
429.089999997,1100.0
429.090999997,1023.0
429.091999997,1381.0
429.092999997,2153.0
429.093999997,3015.0
429.094999997,2985.0
429.095999997,2617.0
429.096999997,1780.0
429.097999997,996.0
429.098999997,1114.0
429.099999997,1503.0
429.100999997,2368.0
429.101999997,3116.0
429.102999997,2920.0
429.103999997,2507.0
429.104999997,1563.0
429.105999997,939.0
429.106999997,1182.0
429.107999997,1641.0
429.108999997,2611.0
429.109999997,3156.0
429.110999997,2848.0
429.111999997,2352.0
429.112999997,1371.0
429.113999997,910.0
429.114999997,1266.0
429.115999997,1806.0
429.116999997,2761.0
429.117999997,3160.0
429.118999997,2774.0
429.119999997,2168.0
429.120999997,1244.0
429.121999997,945.0
429.122999997,1330.0
429.123999997,1987.0
429.124999997,2900.0
429.125999997,3115.0
429.126999997,2715.0
429.127999997,1968.0
429.128999997,1109.0
429.129999997,1009.0
429.130999997,1398.0
429.131999997,2173.0
429.132999997,3028.0
429.133999997,3031.0
429.134999997,2618.0
429.135999997,1785.0
429.136999997,999.0
429.137999997,1072.0
429.138999997,1507.0
429.139999997,2375.0
429.140999997,3102.0
429.141999997,2955.0
429.142999997,2505.0
429.143999997,1567.0
429.144999997,942.0
429.145999997,1153.0
429.146999997,1639.0
429.147999997,2608.0
429.148999997,3153.0
429.149999997,2874.0
429.150999997,2352.0
429.151999997,1358.0
429.152999997,898.0
429.153999997,1213.0
429.154999997,1806.0
429.155999997,2773.0
429.156999997,3163.0
429.157999997,2802.0
429.158999997,2177.0
429.159999997,1229.0
429.160999997,916.0
429.161999997,1281.0
429.162999997,1976.0
429.163999997,2909.0
429.164999997,3084.0
429.165999997,2732.0
429.166999997,1978.0
429.167999997,1098.0
429.168999997,984.0
429.169999997,1357.0
429.170999997,2171.0
429.171999997,3045.0
429.172999997,3060.0
429.173999997,2656.0
429.174999997,1808.0
429.175999997,1002.0
429.176999997,1063.0
429.177999997,1464.0
429.178999997,2380.0
429.179999997,3139.0
429.180999997,2966.0
429.181999997,2546.0
429.182999997,1592.0
429.183999997,925.0
429.184999997,1145.0
429.185999997,1599.0
429.186999997,2614.0
429.187999997,3189.0
429.188999997,2893.0
429.189999997,2399.0
429.190999997,1373.0
429.191999997,888.0
429.192999997,1210.0
429.193999997,1761.0
429.194999997,2785.0
429.195999997,3207.0
429.196999997,2835.0
429.197999997,2241.0
429.198999997,1246.0
429.199999997,906.0
429.200999997,1282.0
429.201999997,1956.0
429.202999997,2925.0
429.203999997,3158.0
429.204999997,2755.0
429.205999997,2050.0
429.206999997,1111.0
429.207999997,970.0
429.208999997,1359.0
429.209999997,2132.0
429.210999997,3065.0
429.211999997,3089.0
429.212999997,2684.0
429.213999997,1848.0
429.214999997,990.0
429.215999997,1041.0
429.216999997,1466.0
429.217999997,2339.0
429.218999997,3172.0
429.219999997,3022.0
429.220999997,2578.0
429.221999997,1652.0
429.222999997,924.0
429.223999997,1122.0
429.224999997,1581.0
429.225999997,2557.0
429.226999997,3216.0
429.227999997,2944.0
429.228999997,2456.0
429.229999997,1468.0
429.230999997,941.0
429.231999997,1242.0
429.232999997,1780.0
429.233999997,2756.0
429.234999997,3211.0
429.235999997,2847.0
429.236999997,2220.0
429.237999997,1233.0
429.238999997,815.0
429.239999997,1172.0
429.240999997,1833.0
429.241999997,2783.0
429.242999997,3106.0
429.243999997,2731.0
429.244999997,2002.0
429.245999997,1098.0
429.246999997,888.0
429.247999997,1283.0
429.248999997,2069.0
429.249999997,2992.0
429.250999997,3112.0
429.251999997,2735.0
429.252999997,1897.0
429.253999997,1063.0
429.254999997,1041.0
429.255999997,1452.0
429.256999997,2332.0
429.257999997,3152.0
429.258999997,3078.0
429.259999997,2651.0
429.260999997,1722.0
429.261999997,989.0
429.262999997,1125.0
429.263999997,1582.0
429.264999997,2564.0
429.265999997,3220.0
429.266999997,3011.0
429.267999997,2515.0
429.268999997,1497.0
429.269999997,943.0
429.270999997,1189.0
429.271999997,1739.0
429.272999997,2759.0
429.273999997,3245.0
429.274999997,2940.0
429.275999997,2355.0
429.276999997,1353.0
429.277999997,939.0
429.278999997,1255.0
429.279999997,1914.0
429.280999997,2895.0
429.281999997,3202.0
429.282999997,2863.0
429.283999997,2150.0
429.284999997,1212.0
429.285999997,991.0
429.286999997,1308.0
429.287999997,2072.0
429.288999997,2997.0
429.289999997,3118.0
429.290999997,2749.0
429.291999997,1944.0
429.292999997,1057.0
429.293999997,1033.0
429.294999997,1381.0
429.295999997,2261.0
429.296999997,3079.0
429.297999997,3028.0
429.298999997,2671.0
429.299999997,1756.0
429.300999997,984.0
429.301999997,1118.0
429.302999997,1547.0
429.303999997,2509.0
429.304999997,3193.0
429.305999997,2985.0
429.306999997,2550.0
429.307999997,1550.0
429.308999997,946.0
429.309999997,1205.0
429.310999997,1681.0
429.311999997,2711.0
429.312999997,3218.0
429.313999997,2897.0
429.314999997,2375.0
429.315999997,1380.0
429.316999997,936.0
429.317999997,1276.0
429.318999997,1854.0
429.319999997,2839.0
429.320999997,3168.0
429.321999997,2815.0
429.322999997,2183.0
429.323999997,1228.0
429.324999997,971.0
429.325999997,1323.0
429.326999997,2015.0
429.327999997,2944.0
429.328999997,3085.0
429.329999997,2718.0
429.330999997,1970.0
429.331999997,1079.0
429.332999997,1016.0
429.333999997,1390.0
429.334999997,2190.0
429.335999997,3044.0
429.336999997,3000.0
429.337999997,2609.0
429.338999997,1763.0
429.339999997,971.0
429.340999997,1073.0
429.341999997,1499.0
429.342999997,2412.0
429.343999997,3107.0
429.344999997,2914.0
429.345999997,2474.0
429.346999997,1543.0
429.347999997,922.0
429.348999997,1159.0
429.349999997,1652.0
429.350999997,2627.0
429.351999997,3143.0
429.352999997,2848.0
429.353999997,2313.0
429.354999997,1366.0
429.355999997,918.0
429.356999997,1220.0
429.357999997,1808.0
429.358999997,2767.0
429.359999997,3123.0
429.360999997,2782.0
429.361999997,2117.0
429.362999997,1247.0
429.363999997,972.0
429.364999997,1305.0
429.365999997,2007.0
429.366999997,2913.0
429.367999997,3115.0
429.368999997,2720.0
429.369999997,1950.0
429.370999997,1119.0
429.371999997,1048.0
429.372999997,1389.0
429.373999997,2211.0
429.374999997,3030.0
429.375999997,2982.0
429.376999997,2615.0
429.377999997,1750.0
429.378999997,1009.0
429.379999997,1115.0
429.380999997,1504.0
429.381999997,2421.0
429.382999997,3114.0
429.383999997,2920.0
429.384999997,2500.0
429.385999997,1525.0
429.386999997,961.0
429.387999997,1191.0
429.388999997,1652.0
429.389999997,2652.0
429.390999997,3152.0
429.391999997,2855.0
429.392999997,2330.0
429.393999997,1320.0
429.394999997,947.0
429.395999997,1270.0
429.396999997,1831.0
429.397999997,2807.0
429.398999997,3135.0
429.399999997,2792.0
429.400999997,2158.0
429.401999997,1218.0
429.402999997,988.0
429.403999997,1351.0
429.404999997,2022.0
429.405999997,2937.0
429.406999997,3077.0
429.407999997,2721.0
429.408999997,1964.0
429.409999997,1105.0
429.410999997,1060.0
429.411999997,1411.0
429.412999997,2205.0
429.413999997,3055.0
429.414999997,3006.0
429.415999997,2630.0
429.416999997,1791.0
429.417999997,980.0
429.418999997,1128.0
429.419999997,1514.0
429.420999997,2424.0
429.421999997,3132.0
429.422999997,2907.0
429.423999997,2493.0
429.424999997,1540.0
429.425999997,939.0
429.426999997,1194.0
429.427999997,1673.0
429.428999997,2641.0
429.429999997,3163.0
429.430999997,2848.0
429.431999997,2328.0
429.432999997,1355.0
429.433999997,913.0
429.434999997,1268.0
429.435999997,1827.0
429.436999997,2782.0
429.437999997,3169.0
429.438999997,2784.0
429.439999997,2152.0
429.440999997,1247.0
429.441999997,931.0
429.442999997,1317.0
429.443999997,2015.0
429.444999997,2913.0
429.445999997,3090.0
429.446999997,2702.0
429.447999997,1946.0
429.448999997,1069.0
429.449999997,996.0
429.450999997,1390.0
429.451999997,2198.0
429.452999997,3044.0
429.453999997,3025.0
429.454999997,2616.0
429.455999997,1755.0
429.456999997,981.0
429.457999997,1074.0
429.458999997,1511.0
429.459999997,2409.0
429.460999997,3129.0
429.461999997,2950.0
429.462999997,2500.0
429.463999997,1547.0
429.464999997,932.0
429.465999997,1152.0
429.466999997,1644.0
429.467999997,2649.0
429.468999997,3167.0
429.469999997,2876.0
429.470999997,2352.0
429.471999997,1349.0
429.472999997,901.0
429.473999997,1206.0
429.474999997,1806.0
429.475999997,2795.0
429.476999997,3164.0
429.477999997,2814.0
429.478999997,2163.0
429.479999997,1207.0
429.480999997,914.0
429.481999997,1279.0
429.482999997,1982.0
429.483999997,2928.0
429.484999997,3105.0
429.485999997,2728.0
429.486999997,1973.0
429.487999997,1070.0
429.488999997,969.0
429.489999997,1354.0
429.490999997,2172.0
429.491999997,3059.0
429.492999997,3032.0
429.493999997,2650.0
429.494999997,1786.0
429.495999997,959.0
429.496999997,1059.0
429.497999997,1458.0
429.498999997,2379.0
429.499999997,3155.0
429.500999997,2959.0
429.501999997,2529.0
429.502999997,1560.0
429.503999997,907.0
429.504999997,1126.0
429.505999997,1588.0
429.506999997,2608.0
429.507999997,3191.0
429.508999997,2886.0
429.509999997,2371.0
429.510999997,1358.0
429.511999997,862.0
429.512999997,1190.0
429.513999997,1743.0
429.514999997,2759.0
429.515999997,3189.0
429.516999997,2811.0
429.517999997,2211.0
429.518999997,1257.0
429.519999997,919.0
429.520999997,1299.0
429.521999997,1951.0
429.522999997,2898.0
429.523999997,3102.0
429.524999997,2694.0
429.525999997,1936.0
429.526999997,1015.0
429.527999997,864.0
429.528999997,1237.0
429.529999997,2015.0
429.530999997,2936.0
429.531999997,2962.0
429.532999997,2580.0
429.533999997,1734.0
429.534999997,902.0
429.535999997,908.0
429.536999997,1386.0
429.537999997,2283.0
429.538999997,3096.0
429.539999997,2990.0
429.540999997,2560.0
429.541999997,1612.0
429.542999997,924.0
429.543999997,1122.0
429.544999997,1612.0
429.545999997,2586.0
429.546999997,3213.0
429.547999997,2952.0
429.548999997,2427.0
429.549999997,1419.0
429.550999997,903.0
429.551999997,1197.0
429.552999997,1765.0
429.553999997,2771.0
429.554999997,3235.0
429.555999997,2883.0
429.556999997,2261.0
429.557999997,1293.0
429.558999997,922.0
429.559999997,1267.0
429.560999997,1931.0
429.561999997,2895.0
429.562999997,3184.0
429.563999997,2820.0
429.564999997,2084.0
429.565999997,1167.0
429.566999997,970.0
429.567999997,1329.0
429.568999997,2130.0
429.569999997,3028.0
429.570999997,3111.0
429.571999997,2733.0
429.572999997,1887.0
429.573999997,1043.0
429.574999997,1051.0
429.575999997,1425.0
429.576999997,2323.0
429.577999997,3116.0
429.578999997,3047.0
429.579999997,2637.0
429.580999997,1675.0
429.581999997,972.0
429.582999997,1127.0
429.583999997,1568.0
429.584999997,2564.0
429.585999997,3202.0
429.586999997,2970.0
429.587999997,2502.0
429.588999997,1490.0
429.589999997,946.0
429.590999997,1202.0
429.591999997,1736.0
429.592999997,2757.0
429.593999997,3241.0
429.594999997,2913.0
429.595999997,2332.0
429.596999997,1328.0
429.597999997,951.0
429.598999997,1265.0
429.599999997,1909.0
429.600999997,2878.0
429.601999997,3169.0
429.602999997,2829.0
429.603999997,2140.0
429.604999997,1196.0
429.605999997,990.0
429.606999997,1339.0
429.607999997,2091.0
429.608999997,3002.0
429.609999997,3093.0
429.610999997,2746.0
429.611999997,1938.0
429.612999997,1061.0
429.613999997,1048.0
429.614999997,1417.0
429.615999997,2263.0
429.616999997,3100.0
429.617999997,3009.0
429.618999997,2618.0
429.619999997,1719.0
429.620999997,968.0
429.621999997,1116.0
429.622999997,1526.0
429.623999997,2483.0
429.624999997,3147.0
429.625999997,2922.0
429.626999997,2470.0
429.627999997,1497.0
429.628999997,919.0
429.629999997,1176.0
429.630999997,1679.0
429.631999997,2678.0
429.632999997,3165.0
429.633999997,2828.0
429.634999997,2305.0
429.635999997,1343.0
429.636999997,922.0
429.637999997,1254.0
429.638999997,1875.0
429.639999997,2828.0
429.640999997,3132.0
429.641999997,2781.0
429.642999997,2124.0
429.643999997,1217.0
429.644999997,988.0
429.645999997,1331.0
429.646999997,2069.0
429.647999997,2972.0
429.648999997,3086.0
429.649999997,2725.0
429.650999997,1947.0
429.651999997,1103.0
429.652999997,1078.0
429.653999997,1442.0
429.654999997,2269.0
429.655999997,3083.0
429.656999997,3012.0
429.657999997,2621.0
429.658999997,1753.0
429.659999997,1023.0
429.660999997,1146.0
429.661999997,1560.0
429.662999997,2504.0
429.663999997,3155.0
429.664999997,2946.0
429.665999997,2495.0
429.666999997,1516.0
429.667999997,986.0
429.668999997,1216.0
429.669999997,1712.0
429.670999997,2707.0
429.671999997,3186.0
429.672999997,2876.0
429.673999997,2330.0
429.674999997,1349.0
429.675999997,976.0
429.676999997,1282.0
429.677999997,1882.0
429.678999997,2834.0
429.679999997,3151.0
429.680999997,2795.0
429.681999997,2130.0
429.682999997,1235.0
429.683999997,1016.0
429.684999997,1359.0
429.685999997,2068.0
429.686999997,2976.0
429.687999997,3084.0
429.688999997,2725.0
429.689999997,1939.0
429.690999997,1102.0
429.691999997,1089.0
429.692999997,1448.0
429.693999997,2260.0
429.694999997,3084.0
429.695999997,2989.0
429.696999997,2610.0
429.697999997,1729.0
429.698999997,995.0
429.699999997,1145.0
429.700999997,1551.0
429.701999997,2444.0
429.702999997,3138.0
429.703999997,2909.0
429.704999997,2471.0
429.705999997,1498.0
429.706999997,937.0
429.707999997,1212.0
429.708999997,1691.0
429.709999997,2668.0
429.710999997,3168.0
429.711999997,2834.0
429.712999997,2295.0
429.713999997,1324.0
429.714999997,913.0
429.715999997,1267.0
429.716999997,1852.0
429.717999997,2807.0
429.718999997,3149.0
429.719999997,2760.0
429.720999997,2114.0
429.721999997,1201.0
429.722999997,958.0
429.723999997,1328.0
429.724999997,2039.0
429.725999997,2931.0
429.726999997,3076.0
429.727999997,2692.0
429.728999997,1916.0
429.729999997,1055.0
429.730999997,1020.0
429.731999997,1422.0
429.732999997,2228.0
429.733999997,3045.0
429.734999997,3016.0
429.735999997,2580.0
429.736999997,1706.0
429.737999997,965.0
429.738999997,1083.0
429.739999997,1518.0
429.740999997,2457.0
429.741999997,3114.0
429.742999997,2918.0
429.743999997,2449.0
429.744999997,1479.0
429.745999997,916.0
429.746999997,1155.0
429.747999997,1672.0
429.748999997,2660.0
429.749999997,3151.0
429.750999997,2839.0
429.751999997,2292.0
429.752999997,1311.0
429.753999997,899.0
429.754999997,1225.0
429.755999997,1840.0
429.756999997,2796.0
429.757999997,3144.0
429.758999997,2767.0
429.759999997,2106.0
429.760999997,1185.0
429.761999997,931.0
429.762999997,1298.0
429.763999997,2036.0
429.764999997,2943.0
429.765999997,3084.0
429.766999997,2710.0
429.767999997,1923.0
429.768999997,1054.0
429.769999997,1008.0
429.770999997,1384.0
429.771999997,2232.0
429.772999997,3073.0
429.773999997,3021.0
429.774999997,2620.0
429.775999997,1735.0
429.776999997,956.0
429.777999997,1085.0
429.778999997,1507.0
429.779999997,2451.0
429.780999997,3164.0
429.781999997,2947.0
429.782999997,2502.0
429.783999997,1514.0
429.784999997,912.0
429.785999997,1163.0
429.786999997,1645.0
429.787999997,2683.0
429.788999997,3193.0
429.789999997,2872.0
429.790999997,2343.0
429.791999997,1334.0
429.792999997,891.0
429.793999997,1233.0
429.794999997,1820.0
429.795999997,2826.0
429.796999997,3193.0
429.797999997,2803.0
429.798999997,2162.0
429.799999997,1198.0
429.800999997,925.0
429.801999997,1244.0
429.802999997,2015.0
429.803999997,2963.0
429.804999997,3131.0
429.805999997,2736.0
429.806999997,1960.0
429.807999997,1067.0
429.808999997,985.0
429.809999997,1373.0
429.810999997,2175.0
429.811999997,3076.0
429.812999997,3041.0
429.813999997,2627.0
429.814999997,1761.0
429.815999997,934.0
429.816999997,1023.0
429.817999997,1449.0
429.818999997,2373.0
429.819999997,3139.0
429.820999997,2937.0
429.821999997,2479.0
429.822999997,1512.0
429.823999997,853.0
429.824999997,1088.0
429.825999997,1587.0
429.826999997,2581.0
429.827999997,3176.0
429.828999997,2866.0
429.829999997,2323.0
429.830999997,1320.0
429.831999997,835.0
429.832999997,1154.0
429.833999997,1733.0
429.834999997,2734.0
429.835999997,3175.0
429.836999997,2793.0
429.837999997,2146.0
429.838999997,1191.0
429.839999997,851.0
429.840999997,1230.0
429.841999997,1928.0
429.842999997,2874.0
429.843999997,3115.0
429.844999997,2741.0
429.845999997,1956.0
429.846999997,1068.0
429.847999997,923.0
429.848999997,1306.0
429.849999997,2121.0
429.850999997,3007.0
429.851999997,3057.0
429.852999997,2657.0
429.853999997,1785.0
429.854999997,973.0
429.855999997,998.0
429.856999997,1414.0
429.857999997,2322.0
429.858999997,3116.0
429.859999997,3000.0
429.860999997,2570.0
429.861999997,1602.0
429.862999997,944.0
429.863999997,1108.0
429.864999997,1550.0
429.865999997,2555.0
429.866999997,3125.0
429.867999997,2879.0
429.868999997,2344.0
429.869999997,1309.0
429.870999997,805.0
429.871999997,1067.0
429.872999997,1635.0
429.873999997,2658.0
429.874999997,3105.0
429.875999997,2789.0
429.876999997,2165.0
429.877999997,1166.0
429.878999997,868.0
429.879999997,1196.0
429.880999997,1902.0
429.881999997,2886.0
429.882999997,3142.0
429.883999997,2813.0
429.884999997,2063.0
429.885999997,1143.0
429.886999997,1009.0
429.887999997,1337.0
429.888999997,2141.0
429.889999997,3042.0
429.890999997,3088.0
429.891999997,2738.0
429.892999997,1886.0
429.893999997,1037.0
429.894999997,1072.0
429.895999997,1442.0
429.896999997,2343.0
429.897999997,3137.0
429.898999997,3013.0
429.899999997,2622.0
429.900999997,1672.0
429.901999997,966.0
429.902999997,1149.0
429.903999997,1567.0
429.904999997,2543.0
429.905999997,3185.0
429.906999997,2942.0
429.907999997,2484.0
429.908999997,1475.0
429.909999997,939.0
429.910999997,1217.0
429.911999997,1729.0
429.912999997,2755.0
429.913999997,3204.0
429.914999997,2869.0
429.915999997,2308.0
429.916999997,1302.0
429.917999997,949.0
429.918999997,1276.0
429.919999997,1908.0
429.920999997,2884.0
429.921999997,3140.0
429.922999997,2803.0
429.923999997,2103.0
429.924999997,1186.0
429.925999997,1034.0
429.926999997,1360.0
429.927999997,2123.0
429.928999997,3020.0
429.929999997,3124.0
429.930999997,2717.0
429.931999997,1924.0
429.932999997,1062.0
429.933999997,1079.0
429.934999997,1469.0
429.935999997,2302.0
429.936999997,3117.0
429.937999997,3015.0
429.938999997,2609.0
429.939999997,1731.0
429.940999997,996.0
429.941999997,1154.0
429.942999997,1581.0
429.943999997,2530.0
429.944999997,3162.0
429.945999997,2931.0
429.946999997,2466.0
429.947999997,1510.0
429.948999997,947.0
429.949999997,1205.0
429.950999997,1725.0
429.951999997,2700.0
429.952999997,3168.0
429.953999997,2849.0
429.954999997,2280.0
429.955999997,1345.0
429.956999997,937.0
429.957999997,1249.0
429.958999997,1881.0
429.959999997,2814.0
429.960999997,3103.0
429.961999997,2756.0
429.962999997,2070.0
429.963999997,1182.0
429.964999997,978.0
429.965999997,1311.0
429.966999997,2060.0
429.967999997,2936.0
429.968999997,3015.0
429.969999997,2679.0
429.970999997,1871.0
429.971999997,1054.0
429.972999997,1042.0
429.973999997,1412.0
429.974999997,2248.0
429.975999997,3044.0
429.976999997,2954.0
429.977999997,2537.0
429.978999997,1669.0
429.979999997,984.0
429.980999997,1126.0
429.981999997,1539.0
429.982999997,2492.0
429.983999997,3109.0
429.984999997,2885.0
429.985999997,2437.0
429.986999997,1452.0
429.987999997,953.0
429.988999997,1196.0
429.989999997,1697.0
429.990999997,2684.0
429.991999997,3140.0
429.992999997,2814.0
429.993999997,2270.0
429.994999997,1321.0
429.995999997,950.0
429.996999997,1283.0
429.997999997,1882.0
429.998999997,2823.0
429.999999997,3099.0
430.000999997,2756.0
430.001999997,2085.0
430.002999997,1179.0
430.003999997,1010.0
430.004999997,1352.0
430.005999997,2063.0
430.006999997,2961.0
430.007999997,3045.0
430.008999997,2690.0
430.009999997,1897.0
430.010999997,1052.0
430.011999997,1062.0
430.012999997,1443.0
430.013999997,2253.0
430.014999997,3069.0
430.015999997,2963.0
430.016999997,2569.0
430.017999997,1682.0
430.018999997,957.0
430.019999997,1134.0
430.020999997,1543.0
430.021999997,2476.0
430.022999997,3132.0
430.023999997,2880.0
430.024999997,2431.0
430.025999997,1456.0
430.026999997,921.0
430.027999997,1211.0
430.028999997,1706.0
430.029999997,2686.0
430.030999997,3167.0
430.031999997,2805.0
430.032999997,2268.0
430.033999997,1314.0
430.034999997,909.0
430.035999997,1277.0
430.036999997,1883.0
430.037999997,2818.0
430.038999997,3125.0
430.039999997,2745.0
430.040999997,2091.0
430.041999997,1184.0
430.042999997,968.0
430.043999997,1354.0
