438.406999997,1997.0
438.407999997,1818.0
438.408999997,1803.0
438.409999997,1921.0
438.410999997,2068.0
438.411999997,2286.0
438.412999997,2288.0
438.413999997,2151.0
438.414999997,1954.0
438.415999997,1821.0
438.416999997,1853.0
438.417999997,1959.0
438.418999997,2146.0
438.419999997,2315.0
438.420999997,2252.0
438.421999997,2129.0
438.422999997,1930.0
438.423999997,1798.0
438.424999997,1887.0
438.425999997,2000.0
438.426999997,2205.0
438.427999997,2336.0
438.428999997,2233.0
438.429999997,2126.0
438.430999997,1910.0
438.431999997,1811.0
438.432999997,1922.0
438.433999997,2054.0
438.434999997,2280.0
438.435999997,2336.0
438.436999997,2231.0
438.437999997,2115.0
438.438999997,1893.0
438.439999997,1847.0
438.440999997,1950.0
438.441999997,2098.0
438.442999997,2312.0
438.443999997,2343.0
438.444999997,2223.0
438.445999997,2059.0
438.446999997,1859.0
438.447999997,1844.0
438.448999997,1962.0
438.449999997,2136.0
438.450999997,2316.0
438.451999997,2300.0
438.452999997,2197.0
438.453999997,2021.0
438.454999997,1847.0
438.455999997,1886.0
438.456999997,2000.0
438.457999997,2186.0
438.458999997,2359.0
438.459999997,2287.0
438.460999997,2186.0
438.461999997,1991.0
438.462999997,1827.0
438.463999997,1907.0
438.464999997,2022.0
438.465999997,2225.0
438.466999997,2362.0
438.467999997,2244.0
438.468999997,2166.0
438.469999997,1943.0
438.470999997,1846.0
438.471999997,1928.0
438.472999997,2053.0
438.473999997,2284.0
438.474999997,2357.0
438.475999997,2233.0
438.476999997,2132.0
438.477999997,1909.0
438.478999997,1843.0
438.479999997,1971.0
438.480999997,2103.0
438.481999997,2317.0
438.482999997,2339.0
438.483999997,2227.0
438.484999997,2095.0
438.485999997,1884.0
438.486999997,1856.0
438.487999997,1969.0
438.488999997,2128.0
438.489999997,2316.0
438.490999997,2300.0
438.491999997,2189.0
438.492999997,2034.0
438.493999997,1865.0
438.494999997,1875.0
438.495999997,1988.0
438.496999997,2173.0
438.497999997,2339.0
438.498999997,2261.0
438.499999997,2161.0
438.500999997,1981.0
438.501999997,1822.0
438.502999997,1889.0
438.503999997,2011.0
438.504999997,2220.0
438.505999997,2344.0
438.506999997,2253.0
438.507999997,2142.0
438.508999997,1952.0
438.509999997,1828.0
438.510999997,1897.0
438.511999997,2047.0
438.512999997,2272.0
438.513999997,2342.0
438.514999997,2218.0
438.515999997,2126.0
438.516999997,1929.0
438.517999997,1857.0
438.518999997,1973.0
438.519999997,2088.0
438.520999997,2304.0
438.521999997,2315.0
438.522999997,2207.0
438.523999997,2060.0
438.524999997,1873.0
438.525999997,1853.0
438.526999997,1958.0
438.527999997,2121.0
438.528999997,2291.0
438.529999997,2289.0
438.530999997,2181.0
438.531999997,2005.0
438.532999997,1841.0
438.533999997,1860.0
438.534999997,1951.0
438.535999997,2138.0
438.536999997,2307.0
438.537999997,2253.0
438.538999997,2144.0
438.539999997,1958.0
438.540999997,1805.0
438.541999997,1865.0
438.542999997,1976.0
438.543999997,2174.0
438.544999997,2308.0
438.545999997,2222.0
438.546999997,2109.0
438.547999997,1911.0
438.548999997,1807.0
438.549999997,1890.0
438.550999997,2013.0
438.551999997,2216.0
438.552999997,2267.0
438.553999997,2188.0
438.554999997,2062.0
438.555999997,1850.0
438.556999997,1803.0
438.557999997,1910.0
438.558999997,2034.0
438.559999997,2261.0
438.560999997,2282.0
438.561999997,2178.0
438.562999997,2030.0
438.563999997,1855.0
438.564999997,1848.0
438.565999997,1948.0
438.566999997,2104.0
438.567999997,2323.0
438.568999997,2350.0
438.569999997,2255.0
438.570999997,2103.0
438.571999997,1929.0
438.572999997,1941.0
438.573999997,2004.0
438.574999997,2108.0
438.575999997,2231.0
438.576999997,2131.0
438.577999997,1987.0
438.578999997,1776.0
438.579999997,1616.0
438.580999997,1715.0
438.581999997,1814.0
438.582999997,1999.0
438.583999997,2182.0
438.584999997,2112.0
438.585999997,2032.0
438.586999997,1842.0
438.587999997,1741.0
438.588999997,1867.0
438.589999997,1979.0
438.590999997,2213.0
438.591999997,2356.0
438.592999997,2250.0
438.593999997,2140.0
438.594999997,1923.0
438.595999997,1865.0
438.596999997,2010.0
438.597999997,2117.0
438.598999997,2338.0
438.599999997,2386.0
438.600999997,2246.0
438.601999997,2115.0
438.602999997,1914.0
438.603999997,1878.0
438.604999997,2029.0
438.605999997,2164.0
438.606999997,2345.0
438.607999997,2341.0
438.608999997,2217.0
438.609999997,2066.0
438.610999997,1889.0
438.611999997,1894.0
438.612999997,2034.0
438.613999997,2202.0
438.614999997,2362.0
438.615999997,2305.0
438.616999997,2213.0
438.617999997,2015.0
438.618999997,1860.0
438.619999997,1921.0
438.620999997,2042.0
438.621999997,2235.0
438.622999997,2388.0
438.623999997,2309.0
438.624999997,2207.0
438.625999997,2000.0
438.626999997,1859.0
438.627999997,1951.0
438.628999997,2083.0
438.629999997,2293.0
438.630999997,2383.0
438.631999997,2262.0
438.632999997,2153.0
438.633999997,1943.0
438.634999997,1878.0
438.635999997,1974.0
438.636999997,2130.0
438.637999997,2343.0
438.638999997,2382.0
438.639999997,2260.0
438.640999997,2083.0
438.641999997,1911.0
438.642999997,1886.0
438.643999997,1999.0
438.644999997,2179.0
438.645999997,2374.0
438.646999997,2361.0
438.647999997,2245.0
438.648999997,2094.0
438.649999997,1925.0
438.650999997,1925.0
438.651999997,2041.0
438.652999997,2243.0
438.653999997,2415.0
438.654999997,2363.0
438.655999997,2284.0
438.656999997,2075.0
438.657999997,1915.0
438.658999997,1984.0
438.659999997,2080.0
438.660999997,2301.0
438.661999997,2443.0
438.662999997,2337.0
438.663999997,2232.0
438.664999997,2039.0
438.665999997,1903.0
438.666999997,1997.0
438.667999997,2123.0
438.668999997,2349.0
438.669999997,2444.0
438.670999997,2338.0
438.671999997,2222.0
438.672999997,1989.0
438.673999997,1897.0
438.674999997,2028.0
438.675999997,2150.0
438.676999997,2387.0
438.677999997,2431.0
438.678999997,2292.0
438.679999997,2159.0
438.680999997,1938.0
438.681999997,1896.0
438.682999997,2023.0
438.683999997,2168.0
438.684999997,2386.0
438.685999997,2402.0
438.686999997,2240.0
438.687999997,2078.0
438.688999997,1882.0
438.689999997,1879.0
438.690999997,1996.0
438.691999997,2165.0
438.692999997,2366.0
438.693999997,2317.0
438.694999997,2183.0
438.695999997,2004.0
438.696999997,1839.0
438.697999997,1879.0
438.698999997,2004.0
438.699999997,2171.0
438.700999997,2369.0
438.701999997,2272.0
438.702999997,2143.0
438.703999997,1945.0
438.704999997,1799.0
438.705999997,1900.0
438.706999997,2011.0
438.707999997,2221.0
438.708999997,2344.0
438.709999997,2210.0
438.710999997,2089.0
438.711999997,1879.0
438.712999997,1798.0
438.713999997,1911.0
438.714999997,2042.0
438.715999997,2272.0
438.716999997,2341.0
438.717999997,2213.0
438.718999997,2078.0
438.719999997,1863.0
438.720999997,1833.0
438.721999997,1938.0
438.722999997,2094.0
438.723999997,2296.0
438.724999997,2324.0
438.725999997,2204.0
438.726999997,2046.0
438.727999997,1870.0
438.728999997,1859.0
438.729999997,1991.0
438.730999997,2158.0
438.731999997,2353.0
438.732999997,2340.0
438.733999997,2221.0
438.734999997,2028.0
438.735999997,1863.0
438.736999997,1930.0
438.737999997,2068.0
438.738999997,2288.0
438.739999997,2421.0
438.740999997,2334.0
438.741999997,2218.0
438.742999997,2005.0
438.743999997,1872.0
438.744999997,1943.0
438.745999997,2067.0
438.746999997,2266.0
438.747999997,2373.0
438.748999997,2289.0
438.749999997,2167.0
438.750999997,1939.0
438.751999997,1845.0
438.752999997,1944.0
438.753999997,2078.0
438.754999997,2311.0
438.755999997,2356.0
438.756999997,2250.0
438.757999997,2117.0
438.758999997,1895.0
438.759999997,1846.0
438.760999997,1963.0
438.761999997,2106.0
438.762999997,2332.0
438.763999997,2317.0
438.764999997,2225.0
438.765999997,2065.0
438.766999997,1866.0
438.767999997,1848.0
438.768999997,1994.0
438.769999997,2182.0
438.770999997,2383.0
438.771999997,2362.0
438.772999997,2276.0
438.773999997,2091.0
438.774999997,1918.0
438.775999997,1975.0
438.776999997,2092.0
438.777999997,2313.0
438.778999997,2551.0
438.779999997,2416.0
438.780999997,2326.0
438.781999997,2115.0
438.782999997,1945.0
438.783999997,2012.0
438.784999997,2127.0
438.785999997,2333.0
438.786999997,2447.0
438.787999997,2323.0
438.788999997,2238.0
438.789999997,2026.0
438.790999997,1908.0
438.791999997,2003.0
438.792999997,2121.0
438.793999997,2357.0
438.794999997,2416.0
438.795999997,2269.0
438.796999997,2166.0
438.797999997,1944.0
438.798999997,1855.0
438.799999997,1977.0
438.800999997,2128.0
438.801999997,2338.0
438.802999997,2379.0
438.803999997,2244.0
438.804999997,2119.0
438.805999997,1912.0
438.806999997,1877.0
438.807999997,1997.0
438.808999997,2173.0
438.809999997,2361.0
438.810999997,2352.0
438.811999997,2233.0
438.812999997,2077.0
438.813999997,1888.0
438.814999997,1906.0
438.815999997,2012.0
438.816999997,2210.0
438.817999997,2378.0
438.818999997,2308.0
438.819999997,2205.0
438.820999997,2028.0
438.821999997,1858.0
438.822999997,1917.0
438.823999997,2043.0
438.824999997,2237.0
438.825999997,2372.0
438.826999997,2253.0
438.827999997,2160.0
438.828999997,1986.0
438.829999997,1854.0
438.830999997,1920.0
438.831999997,2078.0
438.832999997,2299.0
438.833999997,2370.0
438.834999997,2246.0
438.835999997,2113.0
438.836999997,1893.0
438.837999997,1830.0
438.838999997,1931.0
438.839999997,2066.0
438.840999997,2284.0
438.841999997,2316.0
438.842999997,2184.0
438.843999997,2035.0
438.844999997,1850.0
438.845999997,1820.0
438.846999997,1925.0
438.847999997,2092.0
438.848999997,2301.0
438.849999997,2274.0
438.850999997,2148.0
438.851999997,1948.0
438.852999997,1839.0
438.853999997,1855.0
438.854999997,1960.0
438.855999997,2141.0
438.856999997,2319.0
438.857999997,2246.0
438.858999997,2149.0
438.859999997,1945.0
438.860999997,1813.0
438.861999997,1878.0
438.862999997,1926.0
438.863999997,2165.0
438.864999997,2307.0
438.865999997,2265.0
438.866999997,2099.0
438.867999997,1889.0
438.868999997,1790.0
438.869999997,1873.0
438.870999997,1992.0
438.871999997,2204.0
438.872999997,2276.0
438.873999997,2163.0
438.874999997,2038.0
438.875999997,1813.0
438.876999997,1772.0
438.877999997,1859.0
438.878999997,1990.0
438.879999997,2194.0
438.880999997,2216.0
438.881999997,2097.0
438.882999997,1935.0
438.883999997,1744.0
438.884999997,1726.0
438.885999997,1837.0
438.886999997,2015.0
438.887999997,2191.0
438.888999997,2174.0
438.889999997,2074.0
438.890999997,1894.0
438.891999997,1729.0
438.892999997,1784.0
438.893999997,1871.0
438.894999997,2051.0
438.895999997,2226.0
438.896999997,2169.0
438.897999997,2092.0
438.898999997,1902.0
438.899999997,1783.0
438.900999997,1895.0
438.901999997,2012.0
438.902999997,2200.0
438.903999997,2333.0
438.904999997,2177.0
438.905999997,2028.0
438.906999997,1762.0
438.907999997,1596.0
438.908999997,1666.0
438.909999997,1758.0
438.910999997,1961.0
438.911999997,2026.0
438.912999997,1917.0
438.913999997,1803.0
438.914999997,1620.0
438.915999997,1562.0
438.916999997,1712.0
438.917999997,1872.0
438.918999997,2109.0
438.919999997,2167.0
438.920999997,2047.0
438.921999997,1920.0
438.922999997,1746.0
438.923999997,1747.0
438.924999997,1880.0
438.925999997,2030.0
438.926999997,2247.0
438.927999997,2258.0
438.928999997,2147.0
438.929999997,2001.0
438.930999997,1805.0
438.931999997,1829.0
438.932999997,1957.0
438.933999997,2143.0
438.934999997,2305.0
438.935999997,2294.0
438.936999997,2156.0
438.937999997,1955.0
438.938999997,1791.0
438.939999997,1848.0
438.940999997,1963.0
438.941999997,2154.0
438.942999997,2275.0
438.943999997,2168.0
438.944999997,2074.0
438.945999997,1880.0
438.946999997,1743.0
438.947999997,1836.0
438.948999997,1965.0
438.949999997,2176.0
438.950999997,2262.0
438.951999997,2154.0
438.952999997,2037.0
438.953999997,1823.0
438.954999997,1763.0
438.955999997,1874.0
438.956999997,2034.0
438.957999997,2264.0
438.958999997,2270.0
438.959999997,2144.0
438.960999997,2016.0
438.961999997,1816.0
438.962999997,1785.0
438.963999997,1912.0
438.964999997,2092.0
438.965999997,2294.0
438.966999997,2275.0
438.967999997,2160.0
438.968999997,1993.0
438.969999997,1815.0
438.970999997,1822.0
438.971999997,1936.0
438.972999997,2142.0
438.973999997,2308.0
438.974999997,2271.0
438.975999997,2176.0
438.976999997,1997.0
438.977999997,1839.0
438.978999997,1906.0
438.979999997,2014.0
438.980999997,2232.0
438.981999997,2374.0
438.982999997,2278.0
438.983999997,2144.0
438.984999997,1953.0
438.985999997,1821.0
438.986999997,1925.0
438.987999997,2023.0
438.988999997,2248.0
438.989999997,2340.0
438.990999997,2209.0
438.991999997,2079.0
438.992999997,1861.0
438.993999997,1774.0
438.994999997,1890.0
438.995999997,2019.0
438.996999997,2255.0
438.997999997,2284.0
438.998999997,2148.0
438.999999997,1997.0
439.000999997,1813.0
439.001999997,1765.0
439.002999997,1878.0
439.003999997,2032.0
439.004999997,2239.0
439.005999997,2255.0
439.006999997,2119.0
439.007999997,1945.0
439.008999997,1766.0
439.009999997,1774.0
439.010999997,1879.0
439.011999997,2052.0
439.012999997,2268.0
439.013999997,2204.0
439.014999997,2093.0
439.015999997,1898.0
439.016999997,1730.0
439.017999997,1786.0
439.018999997,1904.0
439.019999997,2077.0
439.020999997,2272.0
439.021999997,2180.0
439.022999997,2059.0
439.023999997,1843.0
439.024999997,1719.0
439.025999997,1812.0
439.026999997,1919.0
439.027999997,2146.0
439.028999997,2253.0
439.029999997,2144.0
439.030999997,2018.0
439.031999997,1838.0
439.032999997,1724.0
439.033999997,1850.0
439.034999997,1965.0
439.035999997,2186.0
439.036999997,2248.0
439.037999997,2121.0
439.038999997,1972.0
439.039999997,1755.0
439.040999997,1692.0
439.041999997,1843.0
439.042999997,1995.0
439.043999997,2232.0
439.044999997,2225.0
439.045999997,2110.0
439.046999997,1933.0
439.047999997,1776.0
439.048999997,1749.0
439.049999997,1877.0
439.050999997,2051.0
439.051999997,2188.0
439.052999997,2230.0
439.053999997,2057.0
439.054999997,1889.0
439.055999997,1726.0
439.056999997,1786.0
439.057999997,1890.0
439.058999997,2076.0
439.059999997,2245.0
439.060999997,2162.0
439.061999997,2065.0
439.062999997,1842.0
439.063999997,1703.0
439.064999997,1808.0
439.065999997,1909.0
439.066999997,2128.0
439.067999997,2254.0
439.068999997,2156.0
439.069999997,2037.0
439.070999997,1806.0
439.071999997,1712.0
439.072999997,1824.0
439.073999997,1955.0
439.074999997,2191.0
439.075999997,2230.0
439.076999997,2117.0
439.077999997,1992.0
439.078999997,1770.0
439.079999997,1718.0
439.080999997,1836.0
439.081999997,1996.0
439.082999997,2218.0
439.083999997,2231.0
439.084999997,2115.0
439.085999997,1953.0
439.086999997,1738.0
439.087999997,1749.0
439.088999997,1870.0
439.089999997,2045.0
439.090999997,2233.0
439.091999997,2195.0
439.092999997,2096.0
439.093999997,1918.0
439.094999997,1734.0
439.095999997,1780.0
439.096999997,1889.0
439.097999997,2082.0
439.098999997,2248.0
439.099999997,2163.0
439.100999997,2081.0
439.101999997,1878.0
439.102999997,1729.0
439.103999997,1795.0
439.104999997,1923.0
439.105999997,2129.0
439.106999997,2256.0
439.107999997,2135.0
439.108999997,2047.0
439.109999997,1822.0
439.110999997,1716.0
439.111999997,1823.0
439.112999997,1954.0
439.113999997,2200.0
439.114999997,2222.0
439.115999997,2128.0
439.116999997,2011.0
439.117999997,1786.0
439.118999997,1743.0
439.119999997,1854.0
439.120999997,2000.0
439.121999997,2215.0
439.122999997,2229.0
439.123999997,2116.0
439.124999997,1965.0
439.125999997,1774.0
439.126999997,1751.0
439.127999997,1870.0
439.128999997,2045.0
439.129999997,2230.0
439.130999997,2209.0
439.131999997,2090.0
439.132999997,1932.0
439.133999997,1761.0
439.134999997,1781.0
439.135999997,1897.0
439.136999997,2087.0
439.137999997,2245.0
439.138999997,2192.0
439.139999997,2076.0
439.140999997,1887.0
439.141999997,1748.0
439.142999997,1810.0
439.143999997,1931.0
439.144999997,2146.0
439.145999997,2264.0
439.146999997,2176.0
439.147999997,2045.0
439.148999997,1862.0
439.149999997,1747.0
439.150999997,1842.0
439.151999997,1939.0
439.152999997,2197.0
439.153999997,2262.0
439.154999997,2143.0
439.155999997,2024.0
439.156999997,1822.0
439.157999997,1769.0
439.158999997,1875.0
439.159999997,2012.0
439.160999997,2247.0
439.161999997,2255.0
439.162999997,2146.0
439.163999997,1984.0
439.164999997,1807.0
439.165999997,1804.0
439.166999997,1903.0
439.167999997,2070.0
439.168999997,2268.0
439.169999997,2247.0
439.170999997,2132.0
439.171999997,1959.0
439.172999997,1804.0
439.173999997,1852.0
439.174999997,1930.0
439.175999997,2133.0
439.176999997,2306.0
439.177999997,2232.0
439.178999997,2099.0
439.179999997,1941.0
439.180999997,1812.0
439.181999997,1889.0
439.182999997,1998.0
439.183999997,2197.0
439.184999997,2328.0
439.185999997,2213.0
439.186999997,2109.0
439.187999997,1913.0
439.188999997,1819.0
439.189999997,1937.0
439.190999997,2038.0
439.191999997,2256.0
439.192999997,2336.0
439.193999997,2205.0
439.194999997,2082.0
439.195999997,1871.0
439.196999997,1828.0
439.197999997,1941.0
439.198999997,2044.0
439.199999997,2288.0
439.200999997,2310.0
439.201999997,2187.0
439.202999997,2038.0
439.203999997,1848.0
439.204999997,1827.0
439.205999997,1950.0
439.206999997,2098.0
439.207999997,2292.0
439.208999997,2290.0
439.209999997,2161.0
439.210999997,1982.0
439.211999997,1807.0
439.212999997,1854.0
439.213999997,1963.0
439.214999997,2124.0
439.215999997,2297.0
439.216999997,2244.0
439.217999997,2129.0
439.218999997,1934.0
439.219999997,1768.0
439.220999997,1861.0
439.221999997,1970.0
439.222999997,2166.0
439.223999997,2301.0
439.224999997,2202.0
439.225999997,2091.0
439.226999997,1887.0
439.227999997,1771.0
439.228999997,1878.0
439.229999997,1995.0
439.230999997,2222.0
439.231999997,2285.0
439.232999997,2172.0
439.233999997,2047.0
439.234999997,1827.0
439.235999997,1760.0
439.236999997,1888.0
439.237999997,2019.0
439.238999997,2220.0
439.239999997,2267.0
439.240999997,2137.0
439.241999997,1993.0
439.242999997,1796.0
439.243999997,1789.0
439.244999997,1901.0
439.245999997,2062.0
439.246999997,2251.0
439.247999997,2232.0
439.248999997,2117.0
439.249999997,1948.0
439.250999997,1775.0
439.251999997,1797.0
439.252999997,1921.0
439.253999997,2106.0
439.254999997,2278.0
439.255999997,2218.0
439.256999997,2132.0
439.257999997,1943.0
439.258999997,1803.0
439.259999997,1877.0
439.260999997,2026.0
439.261999997,2251.0
439.262999997,2398.0
439.263999997,2248.0
439.264999997,2104.0
439.265999997,1840.0
439.266999997,1672.0
439.267999997,1727.0
439.268999997,1821.0
439.269999997,2032.0
439.270999997,2096.0
439.271999997,1983.0
439.272999997,1876.0
439.273999997,1667.0
439.274999997,1628.0
439.275999997,1758.0
439.276999997,1922.0
439.277999997,2171.0
439.278999997,2217.0
439.279999997,2107.0
439.280999997,1985.0
439.281999997,1805.0
439.282999997,1796.0
439.283999997,1929.0
439.284999997,2135.0
439.285999997,2337.0
439.286999997,2333.0
439.287999997,2211.0
439.288999997,2051.0
439.289999997,1888.0
439.290999997,1888.0
439.291999997,2007.0
439.292999997,2209.0
439.293999997,2391.0
439.294999997,2328.0
439.295999997,2204.0
439.296999997,2020.0
439.297999997,1859.0
439.298999997,1921.0
439.299999997,2043.0
439.300999997,2257.0
439.301999997,2409.0
439.302999997,2303.0
439.303999997,2210.0
439.304999997,1982.0
439.305999997,1850.0
439.306999997,1946.0
439.307999997,2058.0
439.308999997,2302.0
439.309999997,2398.0
439.310999997,2267.0
439.311999997,2128.0
439.312999997,1920.0
439.313999997,1851.0
439.314999997,1975.0
439.315999997,2104.0
439.316999997,2337.0
439.317999997,2385.0
439.318999997,2250.0
439.319999997,2106.0
439.320999997,1910.0
439.321999997,1867.0
439.322999997,1988.0
439.323999997,2155.0
439.324999997,2367.0
439.325999997,2376.0
439.326999997,2249.0
439.327999997,2090.0
439.328999997,1903.0
439.329999997,1922.0
439.330999997,2029.0
439.331999997,2201.0
439.332999997,2395.0
439.333999997,2363.0
439.334999997,2238.0
439.335999997,2047.0
439.336999997,1889.0
439.337999997,1953.0
439.338999997,2051.0
439.339999997,2241.0
439.340999997,2417.0
439.341999997,2318.0
439.342999997,2199.0
439.343999997,1987.0
439.344999997,1854.0
439.345999997,1944.0
439.346999997,2059.0
439.347999997,2278.0
439.348999997,2382.0
439.349999997,2277.0
439.350999997,2138.0
439.351999997,1921.0
439.352999997,1819.0
439.353999997,1946.0
439.354999997,2062.0
439.355999997,2291.0
439.356999997,2339.0
439.357999997,2199.0
439.358999997,2054.0
439.359999997,1833.0
439.360999997,1801.0
439.361999997,1909.0
439.362999997,2061.0
439.363999997,2260.0
439.364999997,2285.0
439.365999997,2160.0
439.366999997,1971.0
439.367999997,1790.0
439.368999997,1801.0
439.369999997,1906.0
439.370999997,2086.0
439.371999997,2259.0
439.372999997,2229.0
439.373999997,2121.0
439.374999997,1919.0
439.375999997,1751.0
439.376999997,1811.0
439.377999997,1924.0
439.378999997,2110.0
439.379999997,2265.0
439.380999997,2196.0
439.381999997,2082.0
439.382999997,1870.0
439.383999997,1724.0
439.384999997,1817.0
439.385999997,1929.0
439.386999997,2151.0
439.387999997,2261.0
439.388999997,2194.0
439.389999997,2083.0
439.390999997,1868.0
439.391999997,1762.0
439.392999997,1877.0
439.393999997,2010.0
439.394999997,2242.0
439.395999997,2293.0
439.396999997,2181.0
439.397999997,2047.0
439.398999997,1824.0
439.399999997,1785.0
439.400999997,1890.0
439.401999997,2052.0
439.402999997,2259.0
439.403999997,2272.0
439.404999997,2166.0
439.405999997,2001.0
439.406999997,1804.0
439.407999997,1809.0
439.408999997,1927.0
439.409999997,2065.0
439.410999997,2291.0
439.411999997,2241.0
439.412999997,2150.0
439.413999997,1970.0
439.414999997,1779.0
439.415999997,1831.0
439.416999997,1936.0
439.417999997,2137.0
439.418999997,2302.0
439.419999997,2198.0
439.420999997,2111.0
439.421999997,1925.0
439.422999997,1779.0
439.423999997,1855.0
439.424999997,1958.0
439.425999997,2170.0
439.426999997,2319.0
439.427999997,2177.0
439.428999997,2070.0
439.429999997,1864.0
439.430999997,1746.0
439.431999997,1865.0
439.432999997,1989.0
439.433999997,2210.0
439.434999997,2266.0
439.435999997,2153.0
439.436999997,2011.0
439.437999997,1813.0
439.438999997,1734.0
439.439999997,1861.0
439.440999997,2014.0
439.441999997,2222.0
439.442999997,2226.0
439.443999997,2115.0
439.444999997,1981.0
439.445999997,1784.0
439.446999997,1751.0
439.447999997,1877.0
439.448999997,2055.0
439.449999997,2229.0
439.450999997,2211.0
439.451999997,2094.0
439.452999997,1929.0
439.453999997,1759.0
439.454999997,1796.0
439.455999997,1877.0
439.456999997,2097.0
439.457999997,2248.0
439.458999997,2175.0
439.459999997,2074.0
439.460999997,1883.0
439.461999997,1728.0
439.462999997,1817.0
439.463999997,1912.0
439.464999997,2127.0
439.465999997,2236.0
439.466999997,2134.0
439.467999997,2022.0
439.468999997,1817.0
439.469999997,1728.0
439.470999997,1810.0
439.471999997,1925.0
439.472999997,2168.0
439.473999997,2225.0
439.474999997,2099.0
439.475999997,1968.0
439.476999997,1759.0
439.477999997,1721.0
439.478999997,1836.0
439.479999997,1945.0
439.480999997,2174.0
439.481999997,2206.0
439.482999997,2074.0
439.483999997,1929.0
439.484999997,1749.0
439.485999997,1758.0
439.486999997,1869.0
439.487999997,2003.0
439.488999997,2198.0
439.489999997,2192.0
439.490999997,2064.0
439.491999997,1892.0
439.492999997,1735.0
439.493999997,1789.0
439.494999997,1890.0
439.495999997,2086.0
439.496999997,2267.0
439.497999997,2180.0
439.498999997,2085.0
439.499999997,1890.0
439.500999997,1756.0
439.501999997,1855.0
439.502999997,1956.0
439.503999997,2156.0
439.504999997,2281.0
439.505999997,2172.0
439.506999997,2070.0
439.507999997,1856.0
439.508999997,1774.0
439.509999997,1879.0
439.510999997,2000.0
439.511999997,2220.0
439.512999997,2290.0
439.513999997,2160.0
439.514999997,2040.0
439.515999997,1828.0
439.516999997,1745.0
439.517999997,1891.0
439.518999997,2025.0
439.519999997,2248.0
439.520999997,2270.0
439.521999997,2118.0
439.522999997,1991.0
439.523999997,1795.0
439.524999997,1783.0
439.525999997,1920.0
439.526999997,2070.0
439.527999997,2256.0
439.528999997,2209.0
439.529999997,2117.0
439.530999997,1941.0
439.531999997,1763.0
439.532999997,1816.0
439.533999997,1932.0
439.534999997,2114.0
439.535999997,2286.0
439.536999997,2211.0
439.537999997,2107.0
439.538999997,1915.0
439.539999997,1765.0
439.540999997,1841.0
439.541999997,1973.0
439.542999997,2182.0
439.543999997,2293.0
439.544999997,2181.0
439.545999997,2077.0
439.546999997,1866.0
439.547999997,1758.0
439.548999997,1870.0
439.549999997,1999.0
439.550999997,2227.0
439.551999997,2298.0
439.552999997,2173.0
439.553999997,2041.0
439.554999997,1807.0
439.555999997,1779.0
439.556999997,1895.0
439.557999997,2035.0
439.558999997,2239.0
439.559999997,2251.0
439.560999997,2127.0
439.561999997,1994.0
439.562999997,1800.0
439.563999997,1782.0
439.564999997,1911.0
439.565999997,2075.0
439.566999997,2270.0
439.567999997,2240.0
439.568999997,2118.0
439.569999997,1958.0
439.570999997,1772.0
439.571999997,1793.0
439.572999997,1914.0
439.573999997,2100.0
439.574999997,2280.0
439.575999997,2195.0
439.576999997,2078.0
439.577999997,1887.0
439.578999997,1720.0
439.579999997,1810.0
439.580999997,1926.0
439.581999997,2134.0
439.582999997,2267.0
439.583999997,2154.0
439.584999997,2049.0
439.585999997,1833.0
439.586999997,1711.0
439.587999997,1816.0
439.588999997,1947.0
439.589999997,2177.0
439.590999997,2254.0
439.591999997,2129.0
439.592999997,2008.0
439.593999997,1790.0
439.594999997,1733.0
439.595999997,1845.0
439.596999997,2007.0
439.597999997,2235.0
439.598999997,2270.0
439.599999997,2163.0
439.600999997,2021.0
439.601999997,1842.0
439.602999997,1828.0
439.603999997,1960.0
439.604999997,2138.0
439.605999997,2301.0
439.606999997,2221.0
439.607999997,2081.0
439.608999997,1837.0
439.609999997,1622.0
439.610999997,1607.0
439.611999997,1717.0
439.612999997,1917.0
439.613999997,2105.0
439.614999997,2030.0
439.615999997,1956.0
439.616999997,1778.0
439.617999997,1636.0
439.618999997,1720.0
439.619999997,1845.0
439.620999997,2061.0
439.621999997,2225.0
439.622999997,2156.0
439.623999997,2060.0
439.624999997,1872.0
439.625999997,1762.0
439.626999997,1859.0
439.627999997,2008.0
439.628999997,2248.0
439.629999997,2364.0
439.630999997,2224.0
439.631999997,2090.0
439.632999997,1855.0
439.633999997,1801.0
439.634999997,1917.0
439.635999997,2057.0
439.636999997,2286.0
439.637999997,2349.0
439.638999997,2214.0
439.639999997,2057.0
439.640999997,1853.0
439.641999997,1832.0
439.642999997,1943.0
439.643999997,2112.0
439.644999997,2310.0
439.645999997,2311.0
439.646999997,2192.0
439.647999997,2012.0
439.648999997,1835.0
439.649999997,1849.0
439.650999997,1954.0
439.651999997,2148.0
439.652999997,2341.0
439.653999997,2282.0
439.654999997,2178.0
439.655999997,1984.0
439.656999997,1829.0
439.657999997,1886.0
439.658999997,1998.0
439.659999997,2197.0
439.660999997,2352.0
439.661999997,2271.0
439.662999997,2148.0
439.663999997,1948.0
439.664999997,1826.0
439.665999997,1921.0
439.666999997,2045.0
439.667999997,2265.0
439.668999997,2370.0
439.669999997,2252.0
439.670999997,2118.0
439.671999997,1910.0
439.672999997,1848.0
439.673999997,1954.0
439.674999997,2097.0
439.675999997,2339.0
439.676999997,2398.0
439.677999997,2296.0
439.678999997,2165.0
439.679999997,1977.0
439.680999997,1964.0
439.681999997,2102.0
439.682999997,2253.0
439.683999997,2454.0
439.684999997,2463.0
439.685999997,2335.0
439.686999997,2175.0
439.687999997,1974.0
439.688999997,1997.0
439.689999997,2093.0
439.690999997,2273.0
439.691999997,2447.0
439.692999997,2405.0
439.693999997,2295.0
439.694999997,2087.0
439.695999997,1909.0
439.696999997,1972.0
439.697999997,2068.0
439.698999997,2247.0
439.699999997,2403.0
439.700999997,2312.0
439.701999997,2221.0
439.702999997,2004.0
439.703999997,1847.0
439.704999997,1941.0
439.705999997,2059.0
439.706999997,2269.0
439.707999997,2356.0
439.708999997,2250.0
439.709999997,2148.0
439.710999997,1924.0
439.711999997,1821.0
439.712999997,1928.0
439.713999997,2063.0
439.714999997,2282.0
439.715999997,2327.0
439.716999997,2212.0
439.717999997,2078.0
439.718999997,1861.0
439.719999997,1809.0
439.720999997,1915.0
439.721999997,2060.0
439.722999997,2281.0
439.723999997,2275.0
439.724999997,2172.0
439.725999997,2008.0
439.726999997,1809.0
439.727999997,1801.0
439.728999997,1924.0
439.729999997,2095.0
439.730999997,2272.0
439.731999997,2195.0
439.732999997,2113.0
439.733999997,1934.0
439.734999997,1751.0
439.735999997,1784.0
439.736999997,1897.0
439.737999997,2095.0
439.738999997,2244.0
439.739999997,2165.0
439.740999997,2057.0
439.741999997,1873.0
439.742999997,1728.0
439.743999997,1807.0
439.744999997,1912.0
439.745999997,2143.0
439.746999997,2248.0
439.747999997,2132.0
439.748999997,2037.0
439.749999997,1834.0
439.750999997,1739.0
439.751999997,1838.0
439.752999997,1970.0
439.753999997,2215.0
439.754999997,2229.0
439.755999997,2138.0
439.756999997,2009.0
439.757999997,1818.0
439.758999997,1759.0
439.759999997,1862.0
439.760999997,2021.0
439.761999997,2219.0
439.762999997,2223.0
439.763999997,2114.0
439.764999997,1968.0
439.765999997,1795.0
439.766999997,1780.0
439.767999997,1885.0
439.768999997,2063.0
439.769999997,2227.0
439.770999997,2168.0
439.771999997,2088.0
439.772999997,1909.0
439.773999997,1750.0
439.774999997,1784.0
439.775999997,1888.0
439.776999997,2088.0
439.777999997,2282.0
439.778999997,2200.0
439.779999997,2112.0
439.780999997,1913.0
439.781999997,1788.0
439.782999997,1859.0
439.783999997,1975.0
439.784999997,2179.0
439.785999997,2272.0
439.786999997,2157.0
439.787999997,2037.0
439.788999997,1834.0
439.789999997,1773.0
439.790999997,1851.0
439.791999997,1986.0
439.792999997,2219.0
439.793999997,2267.0
439.794999997,2144.0
439.795999997,2023.0
439.796999997,1829.0
439.797999997,1798.0
439.798999997,1894.0
439.799999997,2040.0
439.800999997,2248.0
439.801999997,2262.0
439.802999997,2150.0
439.803999997,1997.0
439.804999997,1822.0
439.805999997,1814.0
439.806999997,1925.0
439.807999997,2105.0
439.808999997,2283.0
439.809999997,2257.0
439.810999997,2145.0
439.811999997,1963.0
439.812999997,1797.0
439.813999997,1859.0
439.814999997,1959.0
439.815999997,2130.0
439.816999997,2302.0
439.817999997,2217.0
439.818999997,2108.0
439.819999997,1924.0
439.820999997,1792.0
439.821999997,1887.0
439.822999997,1998.0
439.823999997,2197.0
439.824999997,2322.0
439.825999997,2221.0
439.826999997,2104.0
439.827999997,1896.0
439.828999997,1793.0
439.829999997,1908.0
439.830999997,2023.0
439.831999997,2237.0
439.832999997,2307.0
439.833999997,2182.0
439.834999997,2054.0
439.835999997,1841.0
439.836999997,1801.0
439.837999997,1941.0
439.838999997,2074.0
439.839999997,2269.0
439.840999997,2298.0
439.841999997,2165.0
439.842999997,2009.0
439.843999997,1825.0
439.844999997,1835.0
439.845999997,1948.0
439.846999997,2103.0
439.847999997,2285.0
439.848999997,2247.0
439.849999997,2150.0
439.850999997,1970.0
439.851999997,1804.0
439.852999997,1863.0
439.853999997,1975.0
439.854999997,2163.0
439.855999997,2314.0
439.856999997,2252.0
439.857999997,2128.0
439.858999997,1933.0
439.859999997,1771.0
439.860999997,1884.0
439.861999997,1986.0
439.862999997,2191.0
439.863999997,2313.0
439.864999997,2218.0
439.865999997,2099.0
439.866999997,1887.0
439.867999997,1788.0
439.868999997,1909.0
439.869999997,2036.0
439.870999997,2258.0
439.871999997,2310.0
439.872999997,2198.0
439.873999997,2067.0
439.874999997,1855.0
439.875999997,1808.0
439.876999997,1932.0
439.877999997,2079.0
439.878999997,2288.0
439.879999997,2302.0
439.880999997,2167.0
439.881999997,2022.0
439.882999997,1834.0
439.883999997,1789.0
439.884999997,1940.0
439.885999997,2124.0
439.886999997,2300.0
439.887999997,2276.0
439.888999997,2163.0
439.889999997,1986.0
439.890999997,1812.0
439.891999997,1848.0
439.892999997,1956.0
439.893999997,2167.0
439.894999997,2328.0
439.895999997,2247.0
439.896999997,2154.0
439.897999997,1950.0
439.898999997,1803.0
439.899999997,1878.0
439.900999997,2005.0
439.901999997,2228.0
439.902999997,2362.0
439.903999997,2266.0
439.904999997,2172.0
439.905999997,1984.0
439.906999997,1891.0
439.907999997,1991.0
439.908999997,2090.0
439.909999997,2282.0
439.910999997,2296.0
439.911999997,2114.0
439.912999997,1943.0
439.913999997,1693.0
439.914999997,1605.0
439.915999997,1729.0
439.916999997,1878.0
439.917999997,2105.0
439.918999997,2137.0
439.919999997,2023.0
439.920999997,1899.0
439.921999997,1706.0
439.922999997,1678.0
439.923999997,1815.0
439.924999997,2009.0
439.925999997,2220.0
439.926999997,2214.0
439.927999997,2103.0
439.928999997,1935.0
439.929999997,1781.0
439.930999997,1822.0
439.931999997,1933.0
439.932999997,2132.0
439.933999997,2317.0
439.934999997,2233.0
439.935999997,2137.0
439.936999997,1938.0
439.937999997,1782.0
439.938999997,1848.0
439.939999997,1956.0
439.940999997,2178.0
439.941999997,2322.0
439.942999997,2211.0
439.943999997,2092.0
439.944999997,1893.0
439.945999997,1785.0
439.946999997,1858.0
439.947999997,2004.0
439.948999997,2225.0
439.949999997,2311.0
439.950999997,2195.0
439.951999997,2065.0
439.952999997,1840.0
439.953999997,1772.0
439.954999997,1880.0
439.955999997,2025.0
439.956999997,2255.0
439.957999997,2308.0
439.958999997,2174.0
439.959999997,2019.0
439.960999997,1823.0
439.961999997,1778.0
439.962999997,1902.0
439.963999997,2070.0
439.964999997,2278.0
439.965999997,2281.0
439.966999997,2139.0
439.967999997,1968.0
439.968999997,1799.0
439.969999997,1806.0
439.970999997,1928.0
439.971999997,2095.0
439.972999997,2305.0
439.973999997,2255.0
439.974999997,2133.0
439.975999997,1933.0
439.976999997,1781.0
439.977999997,1857.0
439.978999997,1958.0
439.979999997,2164.0
439.980999997,2310.0
439.981999997,2223.0
439.982999997,2105.0
439.983999997,1896.0
439.984999997,1780.0
439.985999997,1868.0
439.986999997,1994.0
439.987999997,2219.0
439.988999997,2313.0
439.989999997,2214.0
439.990999997,2070.0
439.991999997,1855.0
439.992999997,1784.0
439.993999997,1896.0
439.994999997,2053.0
439.995999997,2251.0
439.996999997,2313.0
439.997999997,2185.0
439.998999997,2036.0
439.999999997,1831.0
440.000999997,1784.0
440.001999997,1901.0
440.002999997,2056.0
440.003999997,2259.0
440.004999997,2262.0
440.005999997,2147.0
440.006999997,1961.0
440.007999997,1762.0
440.008999997,1791.0
440.009999997,1891.0
440.010999997,2078.0
440.011999997,2262.0
440.012999997,2213.0
440.013999997,2112.0
440.014999997,1913.0
440.015999997,1736.0
440.016999997,1810.0
440.017999997,1919.0
440.018999997,2114.0
440.019999997,2289.0
440.020999997,2177.0
440.021999997,2083.0
440.022999997,1868.0
440.023999997,1742.0
440.024999997,1832.0
440.025999997,1954.0
440.026999997,2179.0
440.027999997,2279.0
440.028999997,2179.0
440.029999997,2055.0
440.030999997,1832.0
440.031999997,1752.0
440.032999997,1860.0
440.033999997,1998.0
440.034999997,2224.0
440.035999997,2270.0
440.036999997,2133.0
440.037999997,2022.0
440.038999997,1811.0
440.039999997,1741.0
440.040999997,1877.0
440.041999997,2042.0
440.042999997,2244.0
440.043999997,2233.0
440.044999997,2119.0
440.045999997,1981.0
440.046999997,1782.0
440.047999997,1797.0
440.048999997,1887.0
440.049999997,2082.0
440.050999997,2264.0
440.051999997,2231.0
440.052999997,2170.0
440.053999997,1960.0
440.054999997,1773.0
440.055999997,1827.0
440.056999997,1927.0
440.057999997,2135.0
440.058999997,2277.0
440.059999997,2186.0
440.060999997,2097.0
440.061999997,1909.0
440.062999997,1758.0
440.063999997,1846.0
440.064999997,1995.0
440.065999997,2187.0
440.066999997,2286.0
440.067999997,2184.0
440.068999997,2073.0
440.069999997,1872.0
440.070999997,1782.0
440.071999997,1890.0
440.072999997,1995.0
440.073999997,2222.0
440.074999997,2284.0
440.075999997,2158.0
440.076999997,2029.0
440.077999997,1845.0
440.078999997,1799.0
440.079999997,1903.0
440.080999997,2060.0
440.081999997,2262.0
440.082999997,2277.0
440.083999997,2144.0
440.084999997,1994.0
440.085999997,1818.0
440.086999997,1819.0
440.087999997,1918.0
440.088999997,2099.0
440.089999997,2267.0
440.090999997,2239.0
440.091999997,2134.0
440.092999997,1952.0
440.093999997,1801.0
440.094999997,1835.0
440.095999997,1933.0
440.096999997,2119.0
440.097999997,2265.0
440.098999997,2186.0
440.099999997,2086.0
440.100999997,1886.0
440.101999997,1769.0
440.102999997,1852.0
440.103999997,1962.0
440.104999997,2174.0
440.105999997,2274.0
440.106999997,2172.0
440.107999997,2071.0
440.108999997,1846.0
440.109999997,1787.0
440.110999997,1879.0
440.111999997,2036.0
440.112999997,2234.0
440.113999997,2272.0
440.114999997,2156.0
440.115999997,2021.0
440.116999997,1822.0
440.117999997,1792.0
440.118999997,1902.0
440.119999997,2042.0
440.120999997,2248.0
440.121999997,2250.0
440.122999997,2126.0
440.123999997,1979.0
440.124999997,1779.0
440.125999997,1816.0
440.126999997,1915.0
440.127999997,2079.0
440.128999997,2266.0
440.129999997,2221.0
440.130999997,2114.0
440.131999997,1939.0
440.132999997,1780.0
440.133999997,1849.0
440.134999997,1949.0
440.135999997,2118.0
440.136999997,2284.0
440.137999997,2195.0
440.138999997,2097.0
440.139999997,1909.0
440.140999997,1774.0
440.141999997,1874.0
440.142999997,1994.0
440.143999997,2185.0
440.144999997,2299.0
440.145999997,2194.0
440.146999997,2089.0
440.147999997,1877.0
440.148999997,1796.0
440.149999997,1877.0
440.150999997,2023.0
440.151999997,2242.0
440.152999997,2294.0
440.153999997,2168.0
440.154999997,2052.0
440.155999997,1840.0
440.156999997,1788.0
440.157999997,1920.0
440.158999997,2065.0
440.159999997,2268.0
440.160999997,2281.0
440.161999997,2151.0
440.162999997,2002.0
440.163999997,1815.0
440.164999997,1812.0
440.165999997,1947.0
440.166999997,2100.0
440.167999997,2276.0
440.168999997,2246.0
440.169999997,2139.0
440.170999997,1957.0
440.171999997,1792.0
440.172999997,1854.0
440.173999997,1962.0
440.174999997,2150.0
440.175999997,2288.0
440.176999997,2216.0
440.177999997,2118.0
440.178999997,1920.0
440.179999997,1781.0
440.180999997,1854.0
440.181999997,1989.0
440.182999997,2188.0
440.183999997,2289.0
440.184999997,2203.0
440.185999997,2079.0
440.186999997,1872.0
440.187999997,1775.0
440.188999997,1883.0
440.189999997,2016.0
440.190999997,2237.0
440.191999997,2282.0
440.192999997,2161.0
440.193999997,2044.0
440.194999997,1841.0
440.195999997,1799.0
440.196999997,1931.0
440.197999997,2105.0
440.198999997,2321.0
440.199999997,2356.0
440.200999997,2253.0
440.201999997,2117.0
440.202999997,1917.0
440.203999997,1867.0
440.204999997,1932.0
440.205999997,2055.0
440.206999997,2179.0
440.207999997,2098.0
440.208999997,1965.0
440.209999997,1779.0
440.210999997,1604.0
440.211999997,1658.0
440.212999997,1783.0
440.213999997,2007.0
440.214999997,2187.0
440.215999997,2123.0
440.216999997,2038.0
440.217999997,1870.0
440.218999997,1725.0
440.219999997,1831.0
440.220999997,1980.0
440.221999997,2221.0
440.222999997,2366.0
440.223999997,2265.0
440.224999997,2170.0
440.225999997,1969.0
440.226999997,1873.0
440.227999997,1975.0
440.228999997,2104.0
440.229999997,2349.0
440.230999997,2406.0
440.231999997,2272.0
440.232999997,2148.0
440.233999997,1946.0
440.234999997,1913.0
440.235999997,2006.0
440.236999997,2175.0
440.237999997,2395.0
440.238999997,2405.0
440.239999997,2269.0
440.240999997,2140.0
440.241999997,1923.0
440.242999997,1891.0
440.243999997,2009.0
440.244999997,2185.0
440.245999997,2398.0
440.246999997,2370.0
440.247999997,2251.0
440.248999997,2073.0
440.249999997,1903.0
440.250999997,1928.0
440.251999997,2046.0
440.252999997,2230.0
440.253999997,2417.0
440.254999997,2354.0
440.255999997,2222.0
440.256999997,2026.0
440.257999997,1868.0
440.258999997,1946.0
440.259999997,2059.0
440.260999997,2255.0
440.261999997,2405.0
440.262999997,2290.0
440.263999997,2171.0
440.264999997,1962.0
440.265999997,1861.0
440.266999997,1956.0
440.267999997,2079.0
440.268999997,2310.0
440.269999997,2385.0
440.270999997,2258.0
440.271999997,2134.0
440.272999997,1921.0
440.273999997,1855.0
440.274999997,1966.0
440.275999997,2135.0
440.276999997,2340.0
440.277999997,2381.0
440.278999997,2264.0
440.279999997,2101.0
440.280999997,1913.0
440.281999997,1880.0
440.282999997,1995.0
440.283999997,2162.0
440.284999997,2354.0
440.285999997,2341.0
440.286999997,2225.0
440.287999997,2041.0
440.288999997,1863.0
440.289999997,1893.0
440.290999997,1987.0
440.291999997,2173.0
440.292999997,2350.0
440.293999997,2272.0
440.294999997,2171.0
440.295999997,1958.0
440.296999997,1805.0
440.297999997,1872.0
440.298999997,1989.0
440.299999997,2179.0
440.300999997,2314.0
440.301999997,2213.0
440.302999997,2099.0
440.303999997,1877.0
440.304999997,1751.0
440.305999997,1847.0
440.306999996,1980.0
440.307999996,2195.0
440.308999996,2277.0
440.309999996,2160.0
440.310999996,2022.0
440.311999996,1808.0
440.312999996,1722.0
440.313999996,1856.0
440.314999996,1987.0
440.315999996,2203.0
440.316999996,2247.0
440.317999996,2136.0
440.318999996,1973.0
440.319999996,1780.0
440.320999996,1723.0
440.321999996,1857.0
440.322999996,2021.0
440.323999996,2218.0
440.324999996,2204.0
440.325999996,2134.0
440.326999996,1931.0
440.327999996,1744.0
440.328999996,1777.0
440.329999996,1887.0
440.330999996,2075.0
440.331999996,2251.0
440.332999996,2183.0
440.333999996,2105.0
440.334999996,1907.0
440.335999996,1723.0
440.336999996,1808.0
440.337999996,1915.0
440.338999996,2118.0
440.339999996,2267.0
440.340999996,2186.0
440.341999996,2078.0
440.342999996,1872.0
440.343999996,1739.0
440.344999996,1824.0
440.345999996,1962.0
440.346999996,2207.0
440.347999996,2309.0
440.348999996,2206.0
440.349999996,2094.0
440.350999996,1880.0
440.351999996,1798.0
440.352999996,1898.0
440.353999996,2054.0
440.354999996,2272.0
440.355999996,2285.0
440.356999996,2182.0
440.357999996,2046.0
440.358999996,1819.0
440.359999996,1776.0
440.360999996,1882.0
440.361999996,2050.0
440.362999996,2245.0
440.363999996,2257.0
440.364999996,2132.0
440.365999996,1982.0
440.366999996,1790.0
440.367999996,1807.0
440.368999996,1905.0
440.369999996,2095.0
440.370999996,2272.0
440.371999996,2229.0
440.372999996,2121.0
440.373999996,1945.0
440.374999996,1768.0
440.375999996,1833.0
440.376999996,1948.0
440.377999996,2144.0
440.378999996,2288.0
440.379999996,2199.0
440.380999996,2096.0
440.381999996,1915.0
440.382999996,1768.0
440.383999996,1860.0
440.384999996,1964.0
440.385999996,2190.0
440.386999996,2273.0
440.387999996,2162.0
440.388999996,2041.0
440.389999996,1845.0
440.390999996,1773.0
440.391999996,1842.0
440.392999996,1978.0
440.393999996,2208.0
440.394999996,2252.0
440.395999996,2126.0
440.396999996,1999.0
440.397999996,1811.0
440.398999996,1766.0
440.399999996,1871.0
440.400999996,2037.0
440.401999996,2231.0
440.402999996,2234.0
440.403999996,2128.0
440.404999996,1958.0
440.405999996,1795.0
440.406999996,1751.0
440.407999996,1897.0
440.408999996,2073.0
440.409999996,2254.0
440.410999996,2196.0
440.411999996,2101.0
440.412999996,1913.0
440.413999996,1783.0
440.414999996,1827.0
440.415999996,1922.0
440.416999996,2115.0
440.417999996,2257.0
440.418999996,2177.0
440.419999996,2078.0
440.420999996,1877.0
440.421999996,1772.0
440.422999996,1821.0
440.423999996,1949.0
440.424999996,2160.0
440.425999996,2275.0
440.426999996,2168.0
440.427999996,2046.0
440.428999996,1843.0
440.429999996,1781.0
440.430999996,1880.0
440.431999996,2001.0
440.432999996,2222.0
440.433999996,2273.0
440.434999996,2156.0
440.435999996,2029.0
440.436999996,1835.0
440.437999996,1790.0
440.438999996,1894.0
440.439999996,2038.0
440.440999996,2244.0
440.441999996,2258.0
440.442999996,2131.0
440.443999996,1978.0
440.444999996,1791.0
440.445999996,1815.0
440.446999996,1901.0
440.447999996,2070.0
440.448999996,2259.0
440.449999996,2212.0
440.450999996,2115.0
440.451999996,1929.0
440.452999996,1781.0
440.453999996,1852.0
440.454999996,1944.0
440.455999996,2130.0
440.456999996,2285.0
440.457999996,2186.0
440.458999996,2088.0
440.459999996,1904.0
440.460999996,1767.0
440.461999996,1874.0
440.462999996,1983.0
440.463999996,2161.0
440.464999996,2288.0
440.465999996,2182.0
440.466999996,2075.0
440.467999996,1858.0
440.468999996,1771.0
440.469999996,1903.0
440.470999996,2012.0
440.471999996,2238.0
440.472999996,2280.0
440.473999996,2153.0
440.474999996,2024.0
440.475999996,1821.0
440.476999996,1769.0
440.477999996,1910.0
440.478999996,2043.0
440.479999996,2243.0
440.480999996,2261.0
440.481999996,2136.0
440.482999996,1981.0
440.483999996,1801.0
440.484999996,1800.0
440.485999996,1943.0
440.486999996,2103.0
440.487999996,2265.0
440.488999996,2258.0
440.489999996,2146.0
440.490999996,1986.0
440.491999996,1842.0
440.492999996,1901.0
440.493999996,2068.0
440.494999996,2243.0
440.495999996,2377.0
440.496999996,2263.0
440.497999996,2100.0
440.498999996,1851.0
440.499999996,1659.0
440.500999996,1707.0
440.501999996,1800.0
440.502999996,2011.0
440.503999996,2105.0
440.504999996,2011.0
440.505999996,1898.0
440.506999996,1711.0
440.507999996,1646.0
440.508999996,1765.0
440.509999996,1934.0
440.510999996,2179.0
440.511999996,2242.0
440.512999996,2145.0
440.513999996,2028.0
440.514999996,1836.0
440.515999996,1817.0
440.516999996,1933.0
440.517999996,2121.0
440.518999996,2326.0
440.519999996,2338.0
440.520999996,2208.0
440.521999996,2057.0
440.522999996,1879.0
440.523999996,1877.0
440.524999996,1976.0
440.525999996,2187.0
440.526999996,2360.0
440.527999996,2310.0
440.528999996,2192.0
440.529999996,2017.0
440.530999996,1840.0
440.531999996,1888.0
440.532999996,1997.0
440.533999996,2208.0
440.534999996,2358.0
440.535999996,2263.0
440.536999996,2172.0
440.537999996,1969.0
440.538999996,1812.0
440.539999996,1914.0
440.540999996,2032.0
440.541999996,2253.0
440.542999996,2359.0
440.543999996,2232.0
440.544999996,2128.0
440.545999996,1907.0
440.546999996,1817.0
440.547999996,1918.0
440.548999996,2037.0
440.549999996,2290.0
440.550999996,2311.0
440.551999996,2221.0
440.552999996,2109.0
440.553999996,1876.0
440.554999996,1824.0
440.555999996,1922.0
440.556999996,2086.0
440.557999996,2315.0
440.558999996,2326.0
440.559999996,2182.0
440.560999996,2042.0
440.561999996,1853.0
440.562999996,1837.0
440.563999996,1951.0
440.564999996,2116.0
440.565999996,2330.0
440.566999996,2295.0
440.567999996,2183.0
440.568999996,2008.0
440.569999996,1848.0
440.570999996,1881.0
440.571999996,1987.0
440.572999996,2177.0
440.573999996,2350.0
440.574999996,2291.0
440.575999996,2173.0
440.576999996,1970.0
440.577999996,1825.0
440.578999996,1903.0
440.579999996,2009.0
440.580999996,2207.0
440.581999996,2340.0
440.582999996,2236.0
440.583999996,2112.0
440.584999996,1904.0
440.585999996,1790.0
440.586999996,1884.0
440.587999996,2023.0
440.588999996,2241.0
440.589999996,2328.0
440.590999996,2175.0
440.591999996,2044.0
440.592999996,1828.0
440.593999996,1789.0
440.594999996,1879.0
440.595999996,2029.0
440.596999996,2250.0
440.597999996,2285.0
440.598999996,2164.0
440.599999996,1979.0
440.600999996,1792.0
440.601999996,1766.0
440.602999996,1881.0
440.603999996,2049.0
440.604999996,2232.0
440.605999996,2220.0
440.606999996,2110.0
440.607999996,1917.0
440.608999996,1750.0
440.609999996,1783.0
440.610999996,1891.0
440.611999996,2040.0
440.612999996,2250.0
440.613999996,2211.0
440.614999996,2085.0
440.615999996,1913.0
440.616999996,1732.0
440.617999996,1815.0
440.618999996,1924.0
440.619999996,2133.0
440.620999996,2258.0
440.621999996,2181.0
440.622999996,2076.0
440.623999996,1856.0
440.624999996,1739.0
440.625999996,1834.0
440.626999996,1963.0
440.627999996,2193.0
440.628999996,2264.0
440.629999996,2169.0
440.630999996,2035.0
440.631999996,1818.0
440.632999996,1748.0
440.633999996,1857.0
440.634999996,2000.0
440.635999996,2227.0
440.636999996,2264.0
440.637999996,2164.0
440.638999996,2011.0
440.639999996,1825.0
440.640999996,1774.0
440.641999996,1898.0
440.642999996,2062.0
440.643999996,2254.0
440.644999996,2236.0
440.645999996,2138.0
440.646999996,1971.0
440.647999996,1779.0
440.648999996,1805.0
440.649999996,1918.0
440.650999996,2100.0
440.651999996,2268.0
440.652999996,2216.0
440.653999996,2125.0
440.654999996,1928.0
440.655999996,1766.0
440.656999996,1837.0
440.657999996,1939.0
440.658999996,2153.0
440.659999996,2293.0
440.660999996,2155.0
440.661999996,2109.0
440.662999996,1906.0
440.663999996,1774.0
440.664999996,1863.0
440.665999996,1989.0
440.666999996,2217.0
440.667999996,2295.0
440.668999996,2191.0
440.669999996,2081.0
440.670999996,1860.0
440.671999996,1781.0
440.672999996,1896.0
440.673999996,2027.0
440.674999996,2251.0
440.675999996,2274.0
440.676999996,2157.0
440.677999996,2026.0
440.678999996,1831.0
440.679999996,1795.0
440.680999996,1897.0
440.681999996,2078.0
440.682999996,2268.0
440.683999996,2250.0
440.684999996,2145.0
440.685999996,1981.0
440.686999996,1801.0
440.687999996,1807.0
440.688999996,1920.0
440.689999996,2114.0
440.690999996,2284.0
440.691999996,2229.0
440.692999996,2119.0
440.693999996,1950.0
440.694999996,1782.0
440.695999996,1869.0
440.696999996,1947.0
440.697999996,2156.0
440.698999996,2306.0
440.699999996,2215.0
440.700999996,2110.0
440.701999996,1925.0
440.702999996,1800.0
440.703999996,1872.0
440.704999996,1973.0
440.705999996,2223.0
440.706999996,2292.0
440.707999996,2192.0
440.708999996,2074.0
440.709999996,1874.0
440.710999996,1796.0
440.711999996,1891.0
440.712999996,2031.0
440.713999996,2263.0
440.714999996,2297.0
440.715999996,2168.0
440.716999996,2017.0
440.717999996,1852.0
440.718999996,1804.0
440.719999996,1912.0
440.720999996,2074.0
440.721999996,2270.0
440.722999996,2262.0
440.723999996,2177.0
440.724999996,1985.0
440.725999996,1830.0
440.726999996,1826.0
440.727999996,1919.0
440.728999996,2081.0
440.729999996,2274.0
440.730999996,2240.0
440.731999996,2126.0
440.732999996,1939.0
440.733999996,1803.0
440.734999996,1871.0
440.735999996,1955.0
440.736999996,2148.0
440.737999996,2297.0
440.738999996,2195.0
440.739999996,2101.0
440.740999996,1895.0
440.741999996,1803.0
440.742999996,1881.0
440.743999996,1998.0
440.744999996,2210.0
440.745999996,2287.0
440.746999996,2179.0
440.747999996,2072.0
440.748999996,1865.0
440.749999996,1822.0
440.750999996,1916.0
440.751999996,2024.0
440.752999996,2253.0
440.753999996,2296.0
440.754999996,2167.0
440.755999996,2028.0
440.756999996,1831.0
440.757999996,1806.0
440.758999996,1963.0
440.759999996,2057.0
440.760999996,2259.0
440.761999996,2261.0
440.762999996,2142.0
440.763999996,1989.0
440.764999996,1815.0
440.765999996,1836.0
440.766999996,1931.0
440.767999996,2067.0
440.768999996,2271.0
440.769999996,2219.0
440.770999996,2124.0
440.771999996,1943.0
440.772999996,1782.0
440.773999996,1863.0
440.774999996,1953.0
440.775999996,2140.0
440.776999996,2297.0
440.777999996,2201.0
440.778999996,2085.0
440.779999996,1893.0
440.780999996,1764.0
440.781999996,1876.0
440.782999996,1991.0
440.783999996,2188.0
440.784999996,2278.0
440.785999996,2176.0
440.786999996,2065.0
440.787999996,1846.0
440.788999996,1768.0
440.789999996,1903.0
440.790999996,2030.0
440.791999996,2253.0
440.792999996,2288.0
440.793999996,2169.0
440.794999996,2042.0
440.795999996,1856.0
440.796999996,1841.0
440.797999996,1972.0
440.798999996,2142.0
440.799999996,2347.0
440.800999996,2370.0
440.801999996,2265.0
440.802999996,2063.0
440.803999996,1830.0
440.804999996,1783.0
440.805999996,1854.0
440.806999996,1981.0
440.807999996,2120.0
440.808999996,2065.0
440.809999996,1952.0
440.810999996,1776.0
440.811999996,1615.0
440.812999996,1683.0
440.813999996,1839.0
440.814999996,2049.0
440.815999996,2203.0
440.816999996,2143.0
440.817999996,2067.0
440.818999996,1880.0
440.819999996,1752.0
440.820999996,1866.0
440.821999996,2020.0
440.822999996,2259.0
440.823999996,2351.0
440.824999996,2257.0
440.825999996,2125.0
440.826999996,1917.0
440.827999996,1830.0
440.828999996,1957.0
440.829999996,2087.0
440.830999996,2322.0
440.831999996,2350.0
440.832999996,2227.0
440.833999996,2103.0
440.834999996,1897.0
440.835999996,1857.0
440.836999996,1960.0
440.837999996,2135.0
440.838999996,2327.0
440.839999996,2322.0
440.840999996,2209.0
440.841999996,2049.0
440.842999996,1873.0
440.843999996,1877.0
440.844999996,1974.0
440.845999996,2172.0
440.846999996,2346.0
440.847999996,2300.0
440.848999996,2184.0
440.849999996,2005.0
440.850999996,1833.0
440.851999996,1891.0
440.852999996,2012.0
440.853999996,2206.0
440.854999996,2369.0
440.855999996,2260.0
440.856999996,2182.0
440.857999996,1970.0
440.858999996,1820.0
440.859999996,1904.0
440.860999996,2021.0
440.861999996,2250.0
440.862999996,2356.0
440.863999996,2239.0
440.864999996,2119.0
440.865999996,1917.0
440.866999996,1825.0
440.867999996,1923.0
440.868999996,2054.0
440.869999996,2306.0
440.870999996,2358.0
440.871999996,2235.0
440.872999996,2100.0
440.873999996,1885.0
440.874999996,1832.0
440.875999996,1949.0
440.876999996,2105.0
440.877999996,2325.0
440.878999996,2332.0
440.879999996,2196.0
440.880999996,2009.0
440.881999996,1854.0
440.882999996,1851.0
440.883999996,1963.0
440.884999996,2133.0
440.885999996,2328.0
440.886999996,2297.0
440.887999996,2169.0
440.888999996,1976.0
440.889999996,1820.0
440.890999996,1852.0
440.891999996,1962.0
440.892999996,2153.0
440.893999996,2320.0
440.894999996,2266.0
440.895999996,2118.0
440.896999996,1917.0
440.897999996,1782.0
440.898999996,1847.0
440.899999996,1973.0
440.900999996,2170.0
440.901999996,2290.0
440.902999996,2195.0
440.903999996,2073.0
440.904999996,1872.0
440.905999996,1757.0
440.906999996,1851.0
440.907999996,1986.0
440.908999996,2200.0
440.909999996,2276.0
440.910999996,2156.0
440.911999996,2004.0
440.912999996,1794.0
440.913999996,1747.0
440.914999996,1854.0
440.915999996,2014.0
440.916999996,2212.0
440.917999996,2258.0
440.918999996,2143.0
440.919999996,1933.0
440.920999996,1781.0
440.921999996,1770.0
440.922999996,1880.0
440.923999996,2040.0
440.924999996,2246.0
440.925999996,2233.0
440.926999996,2120.0
440.927999996,1932.0
440.928999996,1758.0
440.929999996,1822.0
440.930999996,1911.0
440.931999996,2101.0
440.932999996,2268.0
440.933999996,2214.0
440.934999996,2115.0
440.935999996,1900.0
440.936999996,1722.0
440.937999996,1822.0
440.938999996,1945.0
440.939999996,2156.0
440.940999996,2274.0
440.941999996,2183.0
440.942999996,2077.0
440.943999996,1854.0
440.944999996,1749.0
440.945999996,1844.0
440.946999996,1959.0
440.947999996,2200.0
440.948999996,2281.0
440.949999996,2165.0
440.950999996,2032.0
440.951999996,1811.0
440.952999996,1768.0
440.953999996,1878.0
440.954999996,2023.0
440.955999996,2234.0
440.956999996,2273.0
440.957999996,2151.0
440.958999996,2008.0
440.959999996,1800.0
440.960999996,1779.0
440.961999996,1895.0
440.962999996,2067.0
440.963999996,2263.0
440.964999996,2266.0
440.965999996,2143.0
440.966999996,1965.0
440.967999996,1775.0
440.968999996,1819.0
440.969999996,1906.0
440.970999996,2115.0
440.971999996,2277.0
440.972999996,2220.0
440.973999996,2124.0
440.974999996,1946.0
440.975999996,1784.0
440.976999996,1861.0
440.977999996,1964.0
440.978999996,2163.0
440.979999996,2288.0
440.980999996,2193.0
440.981999996,2106.0
440.982999996,1894.0
440.983999996,1775.0
440.984999996,1866.0
440.985999996,1987.0
440.986999996,2221.0
440.987999996,2290.0
440.988999996,2168.0
440.989999996,2058.0
440.990999996,1848.0
440.991999996,1718.0
440.992999996,1895.0
440.993999996,2032.0
440.994999996,2254.0
440.995999996,2276.0
440.996999996,2177.0
440.997999996,2031.0
440.998999996,1831.0
440.999999996,1793.0
441.000999996,1915.0
441.001999996,2074.0
441.002999996,2261.0
441.003999996,2258.0
441.004999996,2148.0
441.005999996,1989.0
441.006999996,1795.0
441.007999996,1822.0
441.008999996,1968.0
441.009999996,2119.0
441.010999996,2280.0
441.011999996,2220.0
441.012999996,2125.0
441.013999996,1966.0
441.014999996,1807.0
441.015999996,1852.0
441.016999996,1974.0
441.017999996,2175.0
441.018999996,2292.0
441.019999996,2188.0
441.020999996,2098.0
441.021999996,1909.0
441.022999996,1796.0
441.023999996,1879.0
441.024999996,2001.0
441.025999996,2227.0
441.026999996,2296.0
441.027999996,2183.0
441.028999996,2064.0
441.029999996,1869.0
441.030999996,1806.0
441.031999996,1826.0
441.032999996,2035.0
441.033999996,2256.0
441.034999996,2279.0
441.035999996,2171.0
441.036999996,2028.0
441.037999996,1841.0
441.038999996,1820.0
441.039999996,1897.0
441.040999996,2068.0
441.041999996,2259.0
441.042999996,2249.0
441.043999996,2161.0
441.044999996,1987.0
441.045999996,1829.0
441.046999996,1834.0
441.047999996,1933.0
441.048999996,2094.0
441.049999996,2295.0
441.050999996,2192.0
441.051999996,2147.0
441.052999996,1965.0
441.053999996,1805.0
441.054999996,1900.0
441.055999996,1971.0
441.056999996,2163.0
441.057999996,2301.0
441.058999996,2203.0
441.059999996,2096.0
441.060999996,1888.0
441.061999996,1790.0
441.062999996,1889.0
441.063999996,2010.0
441.064999996,2218.0
441.065999996,2296.0
441.066999996,2196.0
441.067999996,2062.0
441.068999996,1851.0
441.069999996,1809.0
441.070999996,1917.0
441.071999996,2028.0
441.072999996,2246.0
441.073999996,2284.0
441.074999996,2158.0
441.075999996,2020.0
441.076999996,1809.0
441.077999996,1814.0
441.078999996,1910.0
441.079999996,2072.0
441.080999996,2254.0
441.081999996,2256.0
441.082999996,2147.0
441.083999996,1986.0
441.084999996,1807.0
441.085999996,1848.0
441.086999996,1939.0
441.087999996,2108.0
441.088999996,2271.0
441.089999996,2242.0
441.090999996,2133.0
441.091999996,1956.0
441.092999996,1792.0
441.093999996,1872.0
441.094999996,1962.0
441.095999996,2140.0
441.096999996,2290.0
441.097999996,2212.0
441.098999996,2091.0
441.099999996,1892.0
441.100999996,1801.0
441.101999996,1904.0
441.102999996,1988.0
441.103999996,2202.0
441.104999996,2290.0
441.105999996,2183.0
441.106999996,2059.0
441.107999996,1850.0
441.108999996,1771.0
441.109999996,1899.0
441.110999996,2040.0
441.111999996,2244.0
441.112999996,2283.0
441.113999996,2160.0
441.114999996,2037.0
441.115999996,1843.0
441.116999996,1813.0
441.117999996,1957.0
441.118999996,2105.0
441.119999996,2320.0
441.120999996,2335.0
441.121999996,2236.0
441.122999996,2092.0
441.123999996,1920.0
441.124999996,1920.0
441.125999996,1980.0
441.126999996,2104.0
441.127999996,2215.0
441.128999996,2119.0
441.129999996,1982.0
441.130999996,1778.0
441.131999996,1605.0
441.132999996,1631.0
441.133999996,1799.0
441.134999996,1996.0
441.135999996,2164.0
441.136999996,2098.0
441.137999996,2007.0
441.138999996,1823.0
441.139999996,1703.0
441.140999996,1814.0
441.141999996,1949.0
441.142999996,2189.0
441.143999996,2304.0
441.144999996,2191.0
441.145999996,2103.0
441.146999996,1902.0
441.147999996,1827.0
441.148999996,1930.0
441.149999996,2065.0
441.150999996,2300.0
441.151999996,2329.0
441.152999996,2210.0
441.153999996,2087.0
441.154999996,1882.0
441.155999996,1855.0
441.156999996,1951.0
441.157999996,2126.0
441.158999996,2325.0
441.159999996,2313.0
441.160999996,2177.0
441.161999996,2034.0
441.162999996,1856.0
441.163999996,1863.0
441.164999996,1964.0
441.165999996,2162.0
441.166999996,2340.0
441.167999996,2272.0
441.168999996,2170.0
441.169999996,1990.0
441.170999996,1823.0
441.171999996,1881.0
441.172999996,1978.0
441.173999996,2187.0
441.174999996,2362.0
441.175999996,2253.0
441.176999996,2143.0
441.177999996,1954.0
441.178999996,1824.0
441.179999996,1912.0
441.180999996,2016.0
441.181999996,2241.0
441.182999996,2341.0
441.183999996,2240.0
441.184999996,2114.0
441.185999996,1898.0
441.186999996,1813.0
441.187999996,1925.0
441.188999996,2052.0
441.189999996,2288.0
441.190999996,2356.0
441.191999996,2227.0
441.192999996,2075.0
441.193999996,1882.0
441.194999996,1806.0
441.195999996,1946.0
441.196999996,2107.0
441.197999996,2310.0
441.198999996,2332.0
441.199999996,2201.0
441.200999996,2031.0
441.201999996,1856.0
441.202999996,1844.0
441.203999996,1957.0
441.204999996,2132.0
441.205999996,2320.0
441.206999996,2288.0
441.207999996,2164.0
441.208999996,1980.0
441.209999996,1818.0
441.210999996,1863.0
441.211999996,1972.0
441.212999996,2165.0
441.213999996,2326.0
441.214999996,2249.0
441.215999996,2142.0
441.216999996,1926.0
441.217999996,1778.0
441.218999996,1867.0
441.219999996,1974.0
441.220999996,2182.0
441.221999996,2305.0
441.222999996,2184.0
441.223999996,2076.0
441.224999996,1855.0
441.225999996,1761.0
441.226999996,1866.0
441.227999996,1989.0
441.228999996,2240.0
441.229999996,2268.0
441.230999996,2157.0
441.231999996,2015.0
441.232999996,1807.0
441.233999996,1759.0
441.234999996,1840.0
441.235999996,2015.0
441.236999996,2223.0
441.237999996,2254.0
441.238999996,2134.0
441.239999996,1957.0
441.240999996,1772.0
441.241999996,1769.0
441.242999996,1888.0
441.243999996,2061.0
441.244999996,2244.0
441.245999996,2226.0
441.246999996,2120.0
441.247999996,1933.0
441.248999996,1758.0
441.249999996,1816.0
441.250999996,1902.0
441.251999996,2107.0
441.252999996,2334.0
441.253999996,2205.0
441.254999996,2097.0
441.255999996,1902.0
441.256999996,1758.0
441.257999996,1841.0
441.258999996,1948.0
441.259999996,2163.0
441.260999996,2281.0
441.261999996,2199.0
441.262999996,2082.0
441.263999996,1867.0
441.264999996,1768.0
441.265999996,1871.0
441.266999996,2002.0
441.267999996,2222.0
441.268999996,2276.0
441.269999996,2169.0
441.270999996,2049.0
441.271999996,1827.0
441.272999996,1773.0
441.273999996,1894.0
441.274999996,2031.0
441.275999996,2226.0
441.276999996,2277.0
441.277999996,2127.0
441.278999996,2022.0
441.279999996,1826.0
441.280999996,1803.0
441.281999996,1911.0
441.282999996,2083.0
441.283999996,2282.0
441.284999996,2251.0
441.285999996,2152.0
441.286999996,1973.0
441.287999996,1795.0
441.288999996,1828.0
441.289999996,1935.0
441.290999996,2122.0
441.291999996,2294.0
441.292999996,2219.0
441.293999996,2137.0
441.294999996,1941.0
441.295999996,1780.0
441.296999996,1853.0
441.297999996,1962.0
441.298999996,2166.0
441.299999996,2292.0
441.300999996,2187.0
441.301999996,2099.0
441.302999996,1883.0
441.303999996,1775.0
441.304999996,1885.0
441.305999996,1989.0
441.306999996,2213.0
441.307999996,2284.0
441.308999996,2169.0
441.309999996,2062.0
441.310999996,1851.0
441.311999996,1778.0
441.312999996,1923.0
441.313999996,2030.0
441.314999996,2237.0
441.315999996,2268.0
441.316999996,2158.0
441.317999996,2011.0
441.318999996,1831.0
441.319999996,1796.0
441.320999996,1910.0
441.321999996,2077.0
441.322999996,2260.0
441.323999996,2237.0
441.324999996,2138.0
441.325999996,1979.0
441.326999996,1807.0
441.327999996,1832.0
441.328999996,1927.0
441.329999996,2113.0
441.330999996,2282.0
441.331999996,2216.0
441.332999996,2110.0
441.333999996,1933.0
441.334999996,1788.0
441.335999996,1846.0
441.336999996,1948.0
441.337999996,2160.0
441.338999996,2283.0
441.339999996,2196.0
441.340999996,2097.0
441.341999996,1896.0
441.342999996,1796.0
441.343999996,1875.0
441.344999996,1989.0
441.345999996,2215.0
441.346999996,2286.0
441.347999996,2175.0
441.348999996,2044.0
441.349999996,1852.0
441.350999996,1795.0
441.351999996,1900.0
441.352999996,2038.0
441.353999996,2247.0
441.354999996,2278.0
441.355999996,2165.0
441.356999996,2020.0
441.357999996,1843.0
441.358999996,1811.0
441.359999996,1919.0
441.360999996,2078.0
441.361999996,2265.0
441.362999996,2247.0
441.363999996,2142.0
441.364999996,1972.0
441.365999996,1823.0
441.366999996,1855.0
441.367999996,1958.0
441.368999996,2114.0
441.369999996,2284.0
441.370999996,2230.0
441.371999996,2122.0
441.372999996,1932.0
441.373999996,1804.0
441.374999996,1880.0
441.375999996,1987.0
441.376999996,2158.0
441.377999996,2313.0
441.378999996,2192.0
441.379999996,2096.0
441.380999996,1891.0
441.381999996,1789.0
441.382999996,1887.0
441.383999996,2007.0
441.384999996,2230.0
441.385999996,2289.0
441.386999996,2178.0
441.387999996,2059.0
441.388999996,1840.0
441.389999996,1787.0
441.390999996,1894.0
441.391999996,2000.0
441.392999996,2224.0
441.393999996,2257.0
441.394999996,2113.0
441.395999996,1973.0
441.396999996,1778.0
441.397999996,1749.0
441.398999996,1871.0
441.399999996,2001.0
441.400999996,2184.0
441.401999996,2172.0
441.402999996,2034.0
441.403999996,1867.0
441.404999996,1693.0
441.405999996,1728.0
441.406999996,1820.0
441.407999996,1984.0
441.408999996,2147.0
441.409999996,2086.0
441.410999996,1965.0
441.411999996,1773.0
441.412999996,1598.0
441.413999996,1695.0
441.414999996,1780.0
441.415999996,1959.0
441.416999996,2078.0
441.417999996,1987.0
441.418999996,1875.0
441.419999996,1672.0
441.420999996,1556.0
441.421999996,1667.0
441.422999996,1793.0
441.423999996,2023.0
441.424999996,2105.0
441.425999996,2022.0
441.426999996,1895.0
441.427999996,1657.0
441.428999996,1540.0
441.429999996,1599.0
441.430999996,1685.0
441.431999996,1862.0
441.432999996,1851.0
441.433999996,1729.0
441.434999996,1593.0
441.435999996,1407.0
441.436999996,1370.0
441.437999996,1501.0
441.438999996,1688.0
441.439999996,1895.0
441.440999996,1931.0
441.441999996,1811.0
441.442999996,1639.0
441.443999996,1474.0
441.444999996,1498.0
441.445999996,1589.0
441.446999996,1808.0
441.447999996,1992.0
441.448999996,1946.0
441.449999996,1842.0
441.450999996,1663.0
441.451999996,1511.0
441.452999996,1557.0
441.453999996,1679.0
441.454999996,1872.0
441.455999996,1991.0
441.456999996,1894.0
441.457999996,1772.0
441.458999996,1563.0
441.459999996,1433.0
441.460999996,1519.0
441.461999996,1633.0
441.462999996,1840.0
441.463999996,1919.0
441.464999996,1783.0
441.465999996,1663.0
441.466999996,1463.0
441.467999996,1391.0
441.468999996,1465.0
441.469999996,1590.0
441.470999996,1796.0
441.471999996,1840.0
441.472999996,1739.0
441.473999996,1578.0
441.474999996,1366.0
441.475999996,1299.0
441.476999996,1466.0
441.477999996,1641.0
441.478999996,1839.0
441.479999996,1834.0
441.480999996,1716.0
441.481999996,1559.0
441.482999996,1385.0
441.483999996,1406.0
441.484999996,1495.0
441.485999996,1694.0
441.486999996,1860.0
441.487999996,1824.0
441.488999996,1712.0
441.489999996,1556.0
441.490999996,1365.0
441.491999996,1443.0
441.492999996,1548.0
441.493999996,1751.0
441.494999996,1912.0
441.495999996,1821.0
441.496999996,1701.0
441.497999996,1520.0
441.498999996,1392.0
441.499999996,1502.0
441.500999996,1603.0
441.501999996,1831.0
441.502999996,1921.0
441.503999996,1791.0
441.504999996,1660.0
441.505999996,1431.0
441.506999996,1344.0
441.507999996,1433.0
441.508999996,1573.0
441.509999996,1785.0
441.510999996,1838.0
441.511999996,1690.0
441.512999996,1559.0
441.513999996,1359.0
441.514999996,1338.0
441.515999996,1429.0
441.516999996,1551.0
441.517999996,1762.0
441.518999996,1800.0
441.519999996,1665.0
441.520999996,1497.0
441.521999996,1327.0
441.522999996,1329.0
441.523999996,1452.0
441.524999996,1653.0
441.525999996,1851.0
441.526999996,1776.0
441.527999996,1689.0
441.528999996,1498.0
441.529999996,1350.0
441.530999996,1395.0
441.531999996,1471.0
441.532999996,1637.0
441.533999996,1792.0
441.534999996,1720.0
441.535999996,1609.0
441.536999996,1419.0
441.537999996,1316.0
441.538999996,1404.0
441.539999996,1546.0
441.540999996,1784.0
441.541999996,1940.0
441.542999996,1899.0
441.543999996,1813.0
441.544999996,1617.0
441.545999996,1564.0
441.546999996,1670.0
441.547999996,1845.0
441.548999996,2117.0
441.549999996,2155.0
441.550999996,2024.0
441.551999996,1885.0
441.552999996,1699.0
441.553999996,1682.0
441.554999996,1794.0
441.555999996,1939.0
441.556999996,2131.0
441.557999996,2169.0
441.558999996,2089.0
441.559999996,1914.0
441.560999996,1725.0
441.561999996,1742.0
441.562999996,1847.0
441.563999996,2035.0
441.564999996,2163.0
441.565999996,2197.0
441.566999996,2110.0
441.567999996,1935.0
441.568999996,1765.0
441.569999996,1807.0
441.570999996,1893.0
441.571999996,2069.0
441.572999996,2203.0
441.573999996,2139.0
441.574999996,2026.0
441.575999996,1807.0
441.576999996,1658.0
441.577999996,1762.0
441.578999996,1880.0
441.579999996,2091.0
441.580999996,2189.0
441.581999996,2088.0
441.582999996,1972.0
441.583999996,1744.0
441.584999996,1655.0
441.585999996,1773.0
441.586999996,1918.0
441.587999996,2148.0
441.588999996,2187.0
441.589999996,2135.0
441.590999996,1990.0
441.591999996,1779.0
441.592999996,1730.0
441.593999996,1856.0
441.594999996,2022.0
441.595999996,2238.0
441.596999996,2270.0
441.597999996,2162.0
441.598999996,2000.0
441.599999996,1792.0
441.600999996,1764.0
441.601999996,1876.0
441.602999996,2052.0
441.603999996,2236.0
441.604999996,2196.0
441.605999996,2108.0
441.606999996,1943.0
441.607999996,1760.0
441.608999996,1778.0
441.609999996,1885.0
441.610999996,2089.0
441.611999996,2262.0
441.612999996,2183.0
441.613999996,2165.0
441.614999996,1975.0
441.615999996,1817.0
441.616999996,1858.0
441.617999996,1992.0
441.618999996,2230.0
441.619999996,2350.0
441.620999996,2261.0
441.621999996,2170.0
441.622999996,1937.0
441.623999996,1822.0
441.624999996,1916.0
441.625999996,2041.0
441.626999996,2262.0
441.627999996,2337.0
441.628999996,2222.0
441.629999996,2116.0
441.630999996,1926.0
441.631999996,1887.0
441.632999996,2022.0
441.633999996,2163.0
441.634999996,2356.0
441.635999996,2381.0
441.636999996,2261.0
441.637999996,2136.0
441.638999996,1956.0
441.639999996,1941.0
441.640999996,2051.0
441.641999996,2260.0
441.642999996,2461.0
441.643999996,2446.0
441.644999996,2341.0
441.645999996,2210.0
441.646999996,2055.0
441.647999996,2075.0
441.648999996,2159.0
441.649999996,2362.0
441.650999996,2510.0
441.651999996,2439.0
441.652999996,2359.0
441.653999996,2170.0
441.654999996,2043.0
441.655999996,2112.0
441.656999996,2213.0
441.657999996,2406.0
441.658999996,2513.0
441.659999996,2418.0
441.660999996,2277.0
441.661999996,2064.0
441.662999996,1966.0
441.663999996,2048.0
441.664999996,2164.0
441.665999996,2390.0
441.666999996,2465.0
441.667999996,2374.0
441.668999996,2250.0
441.669999996,2059.0
441.670999996,2016.0
441.671999996,2092.0
441.672999996,2244.0
441.673999996,2452.0
441.674999996,2467.0
441.675999996,2348.0
441.676999996,2193.0
441.677999996,2010.0
441.678999996,1993.0
441.679999996,2109.0
441.680999996,2262.0
441.681999996,2428.0
441.682999996,2404.0
441.683999996,2283.0
441.684999996,2114.0
441.685999996,1969.0
441.686999996,2017.0
441.687999996,2114.0
441.688999996,2299.0
441.689999996,2430.0
441.690999996,2342.0
441.691999996,2262.0
441.692999996,2085.0
441.693999996,1921.0
441.694999996,1963.0
441.695999996,2062.0
441.696999996,2252.0
441.697999996,2370.0
441.698999996,2271.0
441.699999996,2186.0
441.700999996,2007.0
441.701999996,1923.0
441.702999996,2034.0
441.703999996,2147.0
441.704999996,2355.0
441.705999996,2440.0
441.706999996,2304.0
441.707999996,2176.0
441.708999996,1965.0
441.709999996,1920.0
441.710999996,2023.0
441.711999996,2160.0
441.712999996,2365.0
441.713999996,2386.0
441.714999996,2270.0
441.715999996,2142.0
441.716999996,1921.0
441.717999996,1935.0
441.718999996,2055.0
441.719999996,2207.0
441.720999996,2402.0
441.721999996,2408.0
441.722999996,2312.0
441.723999996,2139.0
441.724999996,1962.0
441.725999996,2000.0
441.726999996,2109.0
441.727999996,2294.0
441.728999996,2467.0
441.729999996,2392.0
441.730999996,2310.0
441.731999996,2184.0
441.732999996,2017.0
441.733999996,2105.0
441.734999996,2228.0
441.735999996,2400.0
441.736999996,2493.0
441.737999996,2355.0
441.738999996,2195.0
441.739999996,1958.0
441.740999996,1856.0
441.741999996,1909.0
441.742999996,2023.0
441.743999996,2252.0
441.744999996,2317.0
441.745999996,2229.0
441.746999996,2132.0
441.747999996,1937.0
441.748999996,1878.0
441.749999996,2007.0
441.750999996,2164.0
441.751999996,2380.0
441.752999996,2411.0
441.753999996,2322.0
441.754999996,2207.0
441.755999996,2027.0
441.756999996,1999.0
441.757999996,2147.0
441.758999996,2321.0
441.759999996,2507.0
441.760999996,2483.0
441.761999996,2395.0
441.762999996,2228.0
441.763999996,2062.0
441.764999996,2084.0
441.765999996,2189.0
441.766999996,2385.0
441.767999996,2549.0
441.768999996,2486.0
441.769999996,2378.0
441.770999996,2198.0
441.771999996,2035.0
441.772999996,2101.0
441.773999996,2215.0
441.774999996,2422.0
441.775999996,2561.0
441.776999996,2463.0
441.777999996,2354.0
441.778999996,2142.0
441.779999996,2026.0
441.780999996,2113.0
441.781999996,2216.0
441.782999996,2442.0
441.783999996,2508.0
441.784999996,2384.0
441.785999996,2255.0
441.786999996,2050.0
441.787999996,1975.0
441.788999996,2066.0
441.789999996,2236.0
441.790999996,2447.0
441.791999996,2474.0
441.792999996,2354.0
441.793999996,2220.0
441.794999996,2027.0
441.795999996,1998.0
441.796999996,2109.0
441.797999996,2282.0
441.798999996,2472.0
441.799999996,2456.0
441.800999996,2337.0
441.801999996,2168.0
441.802999996,1989.0
441.803999996,1988.0
441.804999996,2107.0
441.805999996,2295.0
441.806999996,2481.0
441.807999996,2406.0
441.808999996,2299.0
441.809999996,2111.0
441.810999996,1942.0
441.811999996,1996.0
441.812999996,2112.0
441.813999996,2308.0
441.814999996,2457.0
441.815999996,2378.0
441.816999996,2251.0
441.817999996,2042.0
441.818999996,1904.0
441.819999996,1991.0
441.820999996,2124.0
441.821999996,2332.0
441.822999996,2423.0
441.823999996,2302.0
441.824999996,2174.0
441.825999996,1954.0
441.826999996,1879.0
441.827999996,1972.0
441.828999996,2114.0
441.829999996,2339.0
441.830999996,2384.0
441.831999996,2254.0
441.832999996,2093.0
441.833999996,1900.0
441.834999996,1857.0
441.835999996,1961.0
441.836999996,2117.0
441.837999996,2323.0
441.838999996,2324.0
441.839999996,2208.0
441.840999996,2022.0
441.841999996,1857.0
441.842999996,1875.0
441.843999996,1961.0
441.844999996,2140.0
441.845999996,2322.0
441.846999996,2288.0
441.847999996,2175.0
441.848999996,1981.0
441.849999996,1836.0
441.850999996,1878.0
441.851999996,1994.0
441.852999996,2191.0
441.853999996,2363.0
441.854999996,2288.0
441.855999996,2180.0
441.856999996,1966.0
441.857999996,1842.0
441.858999996,1918.0
441.859999996,2038.0
441.860999996,2252.0
441.861999996,2364.0
441.862999996,2253.0
441.863999996,2132.0
441.864999996,1906.0
441.865999996,1837.0
441.866999996,1945.0
441.867999996,2070.0
441.868999996,2317.0
441.869999996,2355.0
441.870999996,2241.0
441.871999996,2105.0
441.872999996,1905.0
441.873999996,1871.0
441.874999996,1977.0
441.875999996,2119.0
441.876999996,2326.0
441.877999996,2344.0
441.878999996,2233.0
441.879999996,2065.0
441.880999996,1879.0
441.881999996,1890.0
441.882999996,1991.0
441.883999996,2167.0
441.884999996,2345.0
441.885999996,2309.0
441.886999996,2226.0
441.887999996,2022.0
441.888999996,1862.0
441.889999996,1928.0
441.890999996,2021.0
441.891999996,2216.0
441.892999996,2343.0
441.893999996,2294.0
441.894999996,2191.0
441.895999996,1995.0
441.896999996,1851.0
441.897999996,1940.0
441.898999996,2042.0
441.899999996,2263.0
441.900999996,2364.0
441.901999996,2265.0
441.902999996,2156.0
441.903999996,1937.0
441.904999996,1851.0
441.905999996,1950.0
441.906999996,2087.0
441.907999996,2311.0
441.908999996,2362.0
441.909999996,2252.0
441.910999996,2131.0
441.911999996,1917.0
441.912999996,1857.0
441.913999996,1975.0
441.914999996,2127.0
441.915999996,2327.0
441.916999996,2345.0
441.917999996,2229.0
441.918999996,2079.0
441.919999996,1890.0
441.920999996,1884.0
441.921999996,1995.0
441.922999996,2197.0
441.923999996,2351.0
441.924999996,2299.0
441.925999996,2198.0
441.926999996,2040.0
441.927999996,1864.0
441.928999996,1905.0
441.929999996,2000.0
441.930999996,2185.0
441.931999996,2355.0
441.932999996,2274.0
441.933999996,2178.0
441.934999996,1988.0
441.935999996,1842.0
441.936999996,1922.0
441.937999996,2027.0
441.938999996,2225.0
441.939999996,2348.0
441.940999996,2236.0
441.941999996,2145.0
441.942999996,1908.0
441.943999996,1848.0
441.944999996,1939.0
441.945999996,2070.0
441.946999996,2299.0
441.947999996,2343.0
441.948999996,2223.0
441.949999996,2110.0
441.950999996,1919.0
441.951999996,1857.0
441.952999996,1961.0
441.953999996,2120.0
441.954999996,2315.0
441.955999996,2340.0
441.956999996,2218.0
441.957999996,2078.0
441.958999996,1904.0
441.959999996,1886.0
441.960999996,1978.0
441.961999996,2155.0
441.962999996,2332.0
441.963999996,2294.0
441.964999996,2204.0
441.965999996,2030.0
441.966999996,1876.0
441.967999996,1902.0
441.968999996,2003.0
441.969999996,2185.0
441.970999996,2336.0
441.971999996,2270.0
441.972999996,2160.0
441.973999996,1991.0
441.974999996,1856.0
441.975999996,1915.0
441.976999996,2040.0
441.977999996,2235.0
441.978999996,2346.0
441.979999996,2243.0
441.980999996,2142.0
441.981999996,1951.0
441.982999996,1859.0
441.983999996,1945.0
441.984999996,2059.0
441.985999996,2290.0
441.986999996,2342.0
441.987999996,2241.0
441.988999996,2118.0
441.989999996,1916.0
441.990999996,1879.0
441.991999996,1973.0
441.992999996,2099.0
441.993999996,2311.0
441.994999996,2322.0
441.995999996,2207.0
441.996999996,2064.0
441.997999996,1886.0
441.998999996,1880.0
441.999999996,1980.0
442.000999996,2141.0
442.001999996,2324.0
442.002999996,2293.0
442.003999996,2192.0
442.004999996,2023.0
442.005999996,1866.0
442.006999996,1908.0
442.007999996,2001.0
442.008999996,2188.0
442.009999996,2351.0
442.010999996,2273.0
442.011999996,2175.0
442.012999996,1971.0
442.013999996,1868.0
442.014999996,1939.0
442.015999996,2042.0
442.016999996,2221.0
442.017999996,2333.0
442.018999996,2233.0
442.019999996,2125.0
442.020999996,1965.0
442.021999996,1837.0
442.022999996,1932.0
442.023999996,2065.0
442.024999996,2264.0
442.025999996,2332.0
442.026999996,2195.0
442.027999996,2079.0
442.028999996,1869.0
442.029999996,1808.0
442.030999996,1891.0
442.031999996,2008.0
442.032999996,2199.0
442.033999996,2238.0
442.034999996,2094.0
442.035999996,1955.0
442.036999996,1778.0
442.037999996,1753.0
442.038999996,1880.0
442.039999996,2032.0
442.040999996,2219.0
442.041999996,2196.0
442.042999996,2084.0
442.043999996,1924.0
442.044999996,1766.0
442.045999996,1809.0
442.046999996,1904.0
442.047999996,2093.0
442.048999996,2252.0
442.049999996,2188.0
442.050999996,2087.0
442.051999996,1898.0
442.052999996,1758.0
442.053999996,1844.0
442.054999996,1953.0
442.055999996,2162.0
442.056999996,2311.0
442.057999996,2215.0
442.058999996,2120.0
442.059999996,1934.0
442.060999996,1853.0
442.061999996,1987.0
442.062999996,2119.0
442.063999996,2317.0
442.064999996,2320.0
442.065999996,2183.0
442.066999996,2002.0
442.067999996,1745.0
442.068999996,1659.0
442.069999996,1738.0
442.070999996,1863.0
442.071999996,2079.0
442.072999996,2109.0
442.073999996,1994.0
442.074999996,1871.0
442.075999996,1704.0
442.076999996,1697.0
442.077999996,1841.0
442.078999996,2038.0
442.079999996,2236.0
442.080999996,2224.0
442.081999996,2139.0
442.082999996,1999.0
442.083999996,1828.0
442.084999996,1888.0
442.085999996,2008.0
442.086999996,2205.0
442.087999996,2364.0
442.088999996,2291.0
442.089999996,2202.0
442.090999996,2014.0
442.091999996,1865.0
442.092999996,1931.0
442.093999996,2049.0
442.094999996,2259.0
442.095999996,2386.0
442.096999996,2277.0
442.097999996,2174.0
442.098999996,1967.0
442.099999996,1857.0
442.100999996,1953.0
442.101999996,2075.0
442.102999996,2315.0
442.103999996,2373.0
442.104999996,2272.0
442.105999996,2144.0
442.106999996,1928.0
442.107999996,1866.0
442.108999996,1980.0
442.109999996,2124.0
442.110999996,2348.0
442.111999996,2372.0
442.112999996,2251.0
442.113999996,2108.0
442.114999996,1912.0
442.115999996,1883.0
442.116999996,1998.0
442.117999996,2168.0
442.118999996,2371.0
442.119999996,2346.0
442.120999996,2217.0
442.121999996,2069.0
442.122999996,1892.0
442.123999996,1900.0
442.124999996,2009.0
442.125999996,2210.0
442.126999996,2389.0
442.127999996,2317.0
442.128999996,2212.0
442.129999996,2031.0
442.130999996,1880.0
442.131999996,1939.0
442.132999996,2055.0
442.133999996,2245.0
442.134999996,2396.0
442.135999996,2303.0
442.136999996,2182.0
442.137999996,1985.0
442.138999996,1859.0
442.139999996,1948.0
442.140999996,2067.0
442.141999996,2295.0
442.142999996,2388.0
442.143999996,2260.0
442.144999996,2140.0
442.145999996,1928.0
442.146999996,1854.0
442.147999996,1955.0
442.148999996,2097.0
442.149999996,2314.0
442.150999996,2355.0
442.151999996,2225.0
442.152999996,2070.0
442.153999996,1871.0
442.154999996,1840.0
442.155999996,1941.0
442.156999996,2067.0
442.157999996,2295.0
442.158999996,2300.0
442.159999996,2179.0
442.160999996,2007.0
442.161999996,1836.0
442.162999996,1831.0
442.163999996,1921.0
442.164999996,2082.0
442.165999996,2292.0
442.166999996,2243.0
442.167999996,2135.0
442.168999996,1938.0
442.169999996,1790.0
442.170999996,1855.0
442.171999996,1955.0
442.172999996,2147.0
442.173999996,2273.0
442.174999996,2205.0
442.175999996,2092.0
442.176999996,1886.0
442.177999996,1784.0
442.178999996,1859.0
442.179999996,1978.0
442.180999996,2191.0
442.181999996,2288.0
442.182999996,2189.0
442.183999996,2057.0
442.184999996,1850.0
442.185999996,1778.0
442.186999996,1877.0
442.187999996,2007.0
442.188999996,2234.0
442.189999996,2275.0
442.190999996,2182.0
442.191999996,2033.0
442.192999996,1825.0
442.193999996,1782.0
442.194999996,1900.0
442.195999996,2062.0
442.196999996,2254.0
442.197999996,2261.0
442.198999996,2140.0
442.199999996,1993.0
442.200999996,1800.0
442.201999996,1818.0
442.202999996,1931.0
442.203999996,2109.0
442.204999996,2283.0
442.205999996,2250.0
442.206999996,2142.0
442.207999996,1966.0
442.208999996,1785.0
442.209999996,1861.0
442.210999996,1959.0
442.211999996,2153.0
442.212999996,2303.0
442.213999996,2227.0
442.214999996,2130.0
442.215999996,1927.0
442.216999996,1788.0
442.217999996,1886.0
442.218999996,1982.0
442.219999996,2205.0
442.220999996,2302.0
442.221999996,2211.0
442.222999996,2096.0
442.223999996,1884.0
442.224999996,1803.0
442.225999996,1898.0
442.226999996,2029.0
442.227999996,2249.0
442.228999996,2289.0
442.229999996,2187.0
442.230999996,2065.0
442.231999996,1866.0
442.232999996,1809.0
442.233999996,1933.0
442.234999996,2068.0
442.235999996,2260.0
442.236999996,2274.0
442.237999996,2173.0
442.238999996,2027.0
442.239999996,1823.0
442.240999996,1829.0
442.241999996,1942.0
442.242999996,2106.0
442.243999996,2282.0
442.244999996,2259.0
442.245999996,2148.0
442.246999996,1984.0
442.247999996,1807.0
442.248999996,1849.0
442.249999996,1963.0
442.250999996,2159.0
442.251999996,2286.0
442.252999996,2221.0
442.253999996,2124.0
442.254999996,1935.0
442.255999996,1796.0
442.256999996,1869.0
442.257999996,1987.0
442.258999996,2199.0
442.259999996,2303.0
442.260999996,2194.0
442.261999996,2093.0
442.262999996,1888.0
442.263999996,1792.0
442.264999996,1885.0
442.265999996,2028.0
442.266999996,2239.0
442.267999996,2283.0
442.268999996,2209.0
442.269999996,2071.0
442.270999996,1881.0
442.271999996,1811.0
442.272999996,1911.0
442.273999996,2070.0
442.274999996,2252.0
442.275999996,2276.0
442.276999996,2154.0
442.277999996,2015.0
442.278999996,1846.0
442.279999996,1844.0
442.280999996,1932.0
442.281999996,2106.0
442.282999996,2286.0
442.283999996,2251.0
442.284999996,2147.0
442.285999996,1980.0
442.286999996,1828.0
442.287999996,1860.0
442.288999996,1952.0
442.289999996,2143.0
442.290999996,2295.0
442.291999996,2229.0
442.292999996,2128.0
442.293999996,1937.0
442.294999996,1817.0
442.295999996,1879.0
442.296999996,1978.0
442.297999996,2189.0
442.298999996,2299.0
442.299999996,2176.0
442.300999996,2087.0
442.301999996,1881.0
442.302999996,1817.0
442.303999996,1846.0
442.304999996,2017.0
442.305999996,2241.0
442.306999996,2282.0
442.307999996,2170.0
442.308999996,2052.0
442.309999996,1849.0
442.310999996,1816.0
442.311999996,1918.0
442.312999996,2058.0
442.313999996,2252.0
442.314999996,2268.0
442.315999996,2169.0
442.316999996,2006.0
442.317999996,1847.0
442.318999996,1847.0
442.319999996,1947.0
442.320999996,2088.0
442.321999996,2273.0
442.322999996,2242.0
442.323999996,2142.0
442.324999996,1996.0
442.325999996,1809.0
442.326999996,1869.0
442.327999996,1957.0
442.328999996,2134.0
442.329999996,2297.0
442.330999996,2214.0
442.331999996,2114.0
442.332999996,1931.0
442.333999996,1801.0
442.334999996,1899.0
442.335999996,1991.0
442.336999996,2181.0
442.337999996,2302.0
442.338999996,2187.0
442.339999996,2088.0
442.340999996,1876.0
442.341999996,1796.0
442.342999996,1902.0
442.343999996,2021.0
442.344999996,2230.0
442.345999996,2295.0
442.346999996,2171.0
442.347999996,2046.0
442.348999996,1836.0
442.349999996,1801.0
442.350999996,1923.0
442.351999996,2057.0
442.352999996,2249.0
442.353999996,2278.0
442.354999996,2147.0
442.355999996,2005.0
442.356999996,1816.0
442.357999996,1821.0
442.358999996,1936.0
442.359999996,2097.0
442.360999996,2265.0
442.361999996,2243.0
442.362999996,2134.0
442.363999996,1965.0
442.364999996,1800.0
442.365999996,1867.0
442.366999996,1961.0
442.367999996,2132.0
442.368999996,2290.0
442.369999996,2236.0
442.370999996,2121.0
442.371999996,1921.0
442.372999996,1794.0
442.373999996,1853.0
442.374999996,1991.0
442.375999996,2187.0
442.376999996,2281.0
442.377999996,2205.0
442.378999996,2099.0
442.379999996,1893.0
442.380999996,1790.0
442.381999996,1895.0
442.382999996,2023.0
442.383999996,2242.0
442.384999996,2294.0
442.385999996,2155.0
442.386999996,2052.0
442.387999996,1866.0
442.388999996,1789.0
442.389999996,1905.0
442.390999996,2064.0
442.391999996,2270.0
442.392999996,2290.0
442.393999996,2164.0
442.394999996,1997.0
442.395999996,1816.0
442.396999996,1796.0
442.397999996,1924.0
442.398999996,2077.0
442.399999996,2280.0
442.400999996,2248.0
442.401999996,2135.0
442.402999996,1972.0
442.403999996,1810.0
442.404999996,1839.0
442.405999996,1939.0
442.406999996,2144.0
442.407999996,2293.0
442.408999996,2222.0
442.409999996,2117.0
442.410999996,1933.0
442.411999996,1787.0
442.412999996,1873.0
442.413999996,1984.0
442.414999996,2206.0
442.415999996,2324.0
442.416999996,2221.0
442.417999996,2129.0
442.418999996,1945.0
442.419999996,1852.0
442.420999996,1978.0
442.421999996,2146.0
442.422999996,2354.0
442.423999996,2402.0
442.424999996,2222.0
442.425999996,2052.0
442.426999996,1789.0
442.427999996,1684.0
442.428999996,1755.0
442.429999996,1872.0
442.430999996,2091.0
442.431999996,2116.0
442.432999996,1997.0
442.433999996,1864.0
442.434999996,1689.0
442.435999996,1692.0
442.436999996,1803.0
442.437999996,2006.0
442.438999996,2216.0
442.439999996,2206.0
442.440999996,2100.0
442.441999996,1951.0
442.442999996,1808.0
442.443999996,1850.0
442.444999996,1973.0
442.445999996,2180.0
442.446999996,2351.0
442.447999996,2298.0
442.448999996,2169.0
442.449999996,1992.0
442.450999996,1843.0
442.451999996,1903.0
442.452999996,2043.0
442.453999996,2218.0
442.454999996,2370.0
442.455999996,2246.0
442.456999996,2156.0
442.457999996,1946.0
442.458999996,1828.0
442.459999996,1924.0
442.460999996,2053.0
442.461999996,2271.0
442.462999996,2357.0
442.463999996,2240.0
442.464999996,2115.0
442.465999996,1902.0
442.466999996,1816.0
442.467999996,1943.0
442.468999996,2079.0
442.469999996,2288.0
442.470999996,2341.0
442.471999996,2178.0
442.472999996,2057.0
442.473999996,1874.0
442.474999996,1839.0
442.475999996,1950.0
442.476999996,2080.0
442.477999996,2314.0
442.478999996,2324.0
442.479999996,2195.0
442.480999996,2015.0
442.481999996,1850.0
442.482999996,1878.0
442.483999996,1981.0
442.484999996,2157.0
442.485999996,2334.0
442.486999996,2288.0
442.487999996,2161.0
442.488999996,1979.0
442.489999996,1836.0
442.490999996,1900.0
442.491999996,2003.0
442.492999996,2199.0
442.493999996,2340.0
442.494999996,2262.0
442.495999996,2159.0
442.496999996,1947.0
442.497999996,1828.0
442.498999996,1921.0
442.499999996,2041.0
442.500999996,2253.0
442.501999996,2335.0
442.502999996,2236.0
442.503999996,2118.0
442.504999996,1903.0
442.505999996,1829.0
442.506999996,1919.0
442.507999996,2071.0
442.508999996,2264.0
442.509999996,2314.0
442.510999996,2199.0
442.511999996,2057.0
442.512999996,1855.0
442.513999996,1829.0
442.514999996,1925.0
442.515999996,2082.0
442.516999996,2271.0
442.517999996,2271.0
442.518999996,2163.0
442.519999996,1988.0
442.520999996,1795.0
442.521999996,1823.0
442.522999996,1916.0
442.523999996,2094.0
442.524999996,2306.0
442.525999996,2208.0
442.526999996,2119.0
442.527999996,1915.0
442.528999996,1760.0
442.529999996,1811.0
442.530999996,1921.0
442.531999996,2125.0
442.532999996,2260.0
442.533999996,2188.0
442.534999996,2088.0
442.535999996,1889.0
442.536999996,1752.0
442.537999996,1842.0
442.538999996,1952.0
442.539999996,2170.0
442.540999996,2264.0
442.541999996,2156.0
442.542999996,2053.0
442.543999996,1839.0
442.544999996,1752.0
442.545999996,1872.0
442.546999996,2002.0
442.547999996,2152.0
442.548999996,2248.0
442.549999996,2125.0
442.550999996,2015.0
442.551999996,1817.0
442.552999996,1780.0
442.553999996,1880.0
442.554999996,2042.0
442.555999996,2232.0
442.556999996,2238.0
442.557999996,2130.0
442.558999996,1982.0
442.559999996,1802.0
442.560999996,1797.0
442.561999996,1903.0
442.562999996,2063.0
442.563999996,2279.0
442.564999996,2228.0
442.565999996,2125.0
442.566999996,1945.0
442.567999996,1789.0
442.568999996,1822.0
442.569999996,1944.0
442.570999996,2136.0
442.571999996,2280.0
442.572999996,2190.0
442.573999996,2091.0
442.574999996,1916.0
442.575999996,1778.0
442.576999996,1849.0
442.577999996,1982.0
442.578999996,2188.0
442.579999996,2276.0
442.580999996,2183.0
442.581999996,2072.0
442.582999996,1872.0
442.583999996,1783.0
442.584999996,1883.0
442.585999996,2016.0
442.586999996,2231.0
442.587999996,2283.0
442.588999996,2157.0
442.589999996,2033.0
442.590999996,1853.0
442.591999996,1802.0
442.592999996,1889.0
442.593999996,2057.0
442.594999996,2250.0
442.595999996,2260.0
442.596999996,2156.0
442.597999996,1998.0
442.598999996,1835.0
442.599999996,1829.0
442.600999996,1928.0
442.601999996,2102.0
442.602999996,2262.0
442.603999996,2222.0
442.604999996,2111.0
442.605999996,1960.0
442.606999996,1809.0
442.607999996,1847.0
442.608999996,1913.0
442.609999996,2137.0
442.610999996,2281.0
442.611999996,2153.0
442.612999996,2148.0
442.613999996,1927.0
442.614999996,1813.0
442.615999996,1880.0
442.616999996,1990.0
442.617999996,2191.0
442.618999996,2288.0
442.619999996,2196.0
442.620999996,2076.0
442.621999996,1866.0
442.622999996,1811.0
442.623999996,1898.0
442.624999996,2003.0
442.625999996,2231.0
442.626999996,2277.0
442.627999996,2171.0
442.628999996,2042.0
442.629999996,1854.0
442.630999996,1814.0
442.631999996,1922.0
442.632999996,2060.0
442.633999996,2255.0
442.634999996,2262.0
442.635999996,2157.0
442.636999996,1997.0
442.637999996,1838.0
442.638999996,1859.0
442.639999996,1942.0
442.640999996,2107.0
442.641999996,2284.0
442.642999996,2218.0
442.643999996,2142.0
442.644999996,1970.0
442.645999996,1817.0
442.646999996,1884.0
442.647999996,1984.0
442.648999996,2133.0
442.649999996,2296.0
442.650999996,2211.0
442.651999996,2104.0
442.652999996,1927.0
442.653999996,1805.0
442.654999996,1901.0
442.655999996,2030.0
442.656999996,2193.0
442.657999996,2311.0
442.658999996,2189.0
442.659999996,2068.0
442.660999996,1875.0
442.661999996,1805.0
442.662999996,1915.0
442.663999996,2037.0
442.664999996,2234.0
442.665999996,2281.0
442.666999996,2170.0
442.667999996,2060.0
442.668999996,1850.0
442.669999996,1801.0
442.670999996,1929.0
442.671999996,2072.0
442.672999996,2258.0
442.673999996,2266.0
442.674999996,2146.0
442.675999996,1993.0
442.676999996,1828.0
442.677999996,1803.0
442.678999996,1947.0
442.679999996,2104.0
442.680999996,2273.0
442.681999996,2236.0
442.682999996,2130.0
442.683999996,1957.0
442.684999996,1805.0
442.685999996,1852.0
442.686999996,1953.0
442.687999996,2146.0
442.688999996,2291.0
442.689999996,2196.0
442.690999996,2116.0
442.691999996,1926.0
442.692999996,1786.0
442.693999996,1867.0
442.694999996,1971.0
442.695999996,2192.0
442.696999996,2279.0
442.697999996,2194.0
442.698999996,2081.0
442.699999996,1874.0
442.700999996,1781.0
442.701999996,1893.0
442.702999996,2014.0
442.703999996,2257.0
442.704999996,2289.0
442.705999996,2173.0
442.706999996,2040.0
442.707999996,1844.0
442.708999996,1806.0
442.709999996,1921.0
442.710999996,2071.0
442.711999996,2268.0
442.712999996,2260.0
442.713999996,2158.0
442.714999996,2014.0
442.715999996,1831.0
442.716999996,1820.0
442.717999996,1918.0
442.718999996,2118.0
442.719999996,2296.0
442.720999996,2258.0
442.721999996,2167.0
442.722999996,1971.0
442.723999996,1800.0
442.724999996,1842.0
442.725999996,1948.0
442.726999996,2145.0
442.727999996,2286.0
442.728999996,2234.0
442.729999996,2114.0
442.730999996,1926.0
442.731999996,1784.0
442.732999996,1868.0
442.733999996,1967.0
442.734999996,2199.0
442.735999996,2301.0
442.736999996,2190.0
442.737999996,2078.0
442.738999996,1876.0
442.739999996,1778.0
442.740999996,1888.0
442.741999996,2001.0
442.742999996,2239.0
442.743999996,2288.0
442.744999996,2174.0
442.745999996,2045.0
442.746999996,1843.0
442.747999996,1788.0
442.748999996,1900.0
442.749999996,2041.0
442.750999996,2262.0
442.751999996,2285.0
442.752999996,2186.0
442.753999996,2016.0
442.754999996,1831.0
442.755999996,1814.0
442.756999996,1917.0
442.757999996,2093.0
442.758999996,2295.0
442.759999996,2264.0
442.760999996,2155.0
442.761999996,1982.0
442.762999996,1801.0
442.763999996,1855.0
442.764999996,1966.0
442.765999996,2147.0
442.766999996,2339.0
442.767999996,2285.0
442.768999996,2190.0
442.769999996,2016.0
442.770999996,1886.0
442.771999996,1974.0
442.772999996,2070.0
442.773999996,2234.0
442.774999996,2328.0
442.775999996,2187.0
442.776999996,2012.0
442.777999996,1778.0
442.778999996,1656.0
442.779999996,1738.0
442.780999996,1874.0
442.781999996,2092.0
442.782999996,2167.0
442.783999996,2087.0
442.784999996,1969.0
442.785999996,1781.0
442.786999996,1729.0
442.787999996,1873.0
442.788999996,2005.0
442.789999996,2236.0
442.790999996,2279.0
442.791999996,2155.0
442.792999996,2027.0
442.793999996,1854.0
442.794999996,1853.0
442.795999996,1953.0
442.796999996,2127.0
442.797999996,2331.0
442.798999996,2328.0
442.799999996,2215.0
442.800999996,2033.0
442.801999996,1860.0
442.802999996,1897.0
442.803999996,1992.0
442.804999996,2171.0
442.805999996,2345.0
442.806999996,2289.0
442.807999996,2177.0
442.808999996,1982.0
442.809999996,1835.0
442.810999996,1902.0
442.811999996,2008.0
442.812999996,2215.0
442.813999996,2354.0
442.814999996,2264.0
442.815999996,2171.0
442.816999996,1943.0
442.817999996,1821.0
442.818999996,1914.0
442.819999996,2043.0
442.820999996,2268.0
442.821999996,2338.0
442.822999996,2248.0
442.823999996,2114.0
442.824999996,1895.0
442.825999996,1844.0
442.826999996,1940.0
442.827999996,2086.0
442.828999996,2295.0
442.829999996,2348.0
442.830999996,2232.0
442.831999996,2083.0
442.832999996,1875.0
442.833999996,1834.0
442.834999996,1959.0
442.835999996,2121.0
442.836999996,2311.0
442.837999996,2306.0
442.838999996,2212.0
442.839999996,2044.0
442.840999996,1857.0
442.841999996,1887.0
442.842999996,1980.0
442.843999996,2164.0
442.844999996,2329.0
442.845999996,2278.0
442.846999996,2184.0
442.847999996,1989.0
442.848999996,1836.0
442.849999996,1893.0
442.850999996,1988.0
442.851999996,2197.0
442.852999996,2325.0
442.853999996,2247.0
442.854999996,2144.0
442.855999996,1942.0
442.856999996,1797.0
442.857999996,1897.0
442.858999996,2013.0
442.859999996,2240.0
442.860999996,2300.0
442.861999996,2198.0
442.862999996,2091.0
442.863999996,1868.0
442.864999996,1791.0
442.865999996,1888.0
442.866999996,2015.0
442.867999996,2232.0
442.868999996,2267.0
442.869999996,2153.0
442.870999996,2028.0
442.871999996,1822.0
442.872999996,1787.0
442.873999996,1891.0
442.874999996,2040.0
442.875999996,2231.0
442.876999996,2228.0
442.877999996,2098.0
442.878999996,1955.0
442.879999996,1773.0
442.880999996,1810.0
442.881999996,1900.0
442.882999996,2067.0
442.883999996,2228.0
442.884999996,2135.0
442.885999996,2087.0
442.886999996,1905.0
442.887999996,1755.0
442.888999996,1808.0
442.889999996,1919.0
442.890999996,2113.0
442.891999996,2233.0
442.892999996,2147.0
442.893999996,2060.0
442.894999996,1877.0
442.895999996,1740.0
442.896999996,1814.0
442.897999996,1944.0
442.898999996,2161.0
442.899999996,2247.0
442.900999996,2129.0
442.901999996,2033.0
442.902999996,1841.0
442.903999996,1765.0
442.904999996,1853.0
442.905999996,1991.0
442.906999996,2204.0
442.907999996,2248.0
442.908999996,2126.0
442.909999996,2000.0
442.910999996,1822.0
442.911999996,1790.0
442.912999996,1889.0
442.913999996,2030.0
442.914999996,2220.0
442.915999996,2214.0
442.916999996,2114.0
442.917999996,1958.0
442.918999996,1807.0
442.919999996,1821.0
442.920999996,1905.0
442.921999996,2075.0
442.922999996,2247.0
442.923999996,2200.0
442.924999996,2096.0
442.925999996,1931.0
442.926999996,1795.0
442.927999996,1851.0
442.928999996,1942.0
442.929999996,2120.0
442.930999996,2240.0
442.931999996,2153.0
442.932999996,2050.0
442.933999996,1866.0
442.934999996,1770.0
442.935999996,1846.0
442.936999996,1953.0
442.937999996,2155.0
442.938999996,2255.0
442.939999996,2157.0
442.940999996,2042.0
442.941999996,1829.0
442.942999996,1783.0
442.943999996,1884.0
442.944999996,1994.0
442.945999996,2210.0
442.946999996,2271.0
442.947999996,2139.0
442.948999996,2016.0
442.949999996,1825.0
442.950999996,1813.0
442.951999996,1900.0
442.952999996,2058.0
442.953999996,2248.0
442.954999996,2263.0
442.955999996,2140.0
442.956999996,1982.0
442.957999996,1821.0
442.958999996,1827.0
442.959999996,1923.0
442.960999996,2092.0
442.961999996,2268.0
442.962999996,2221.0
442.963999996,2117.0
442.964999996,1945.0
442.965999996,1806.0
442.966999996,1873.0
442.967999996,1962.0
442.968999996,2138.0
442.969999996,2280.0
442.970999996,2195.0
442.971999996,2105.0
442.972999996,1916.0
442.973999996,1787.0
442.974999996,1893.0
442.975999996,1996.0
442.976999996,2186.0
442.977999996,2234.0
442.978999996,2166.0
442.979999996,2071.0
442.980999996,1849.0
442.981999996,1789.0
442.982999996,1911.0
442.983999996,2032.0
442.984999996,2242.0
442.985999996,2277.0
442.986999996,2169.0
442.987999996,2039.0
442.988999996,1832.0
442.989999996,1808.0
442.990999996,1932.0
442.991999996,2065.0
442.992999996,2259.0
442.993999996,2260.0
442.994999996,2149.0
442.995999996,1997.0
442.996999996,1820.0
442.997999996,1809.0
442.998999996,1946.0
442.999999996,2104.0
443.000999996,2330.0
443.001999996,2227.0
443.002999996,2122.0
443.003999996,1944.0
443.004999996,1809.0
443.005999996,1830.0
443.006999996,1962.0
443.007999996,2149.0
443.008999996,2288.0
443.009999996,2207.0
443.010999996,2099.0
443.011999996,1916.0
443.012999996,1797.0
443.013999996,1876.0
443.014999996,1999.0
443.015999996,2200.0
443.016999996,2280.0
443.017999996,2182.0
443.018999996,2079.0
443.019999996,1874.0
443.020999996,1793.0
443.021999996,1900.0
443.022999996,2036.0
443.023999996,2245.0
443.024999996,2276.0
443.025999996,2194.0
443.026999996,2045.0
443.027999996,1848.0
443.028999996,1810.0
443.029999996,1913.0
443.030999996,2069.0
443.031999996,2270.0
443.032999996,2264.0
443.033999996,2159.0
443.034999996,2005.0
443.035999996,1838.0
443.036999996,1835.0
443.037999996,1948.0
443.038999996,2115.0
443.039999996,2299.0
443.040999996,2249.0
443.041999996,2157.0
443.042999996,1974.0
443.043999996,1801.0
443.044999996,1846.0
443.045999996,1960.0
443.046999996,2159.0
443.047999996,2306.0
443.048999996,2220.0
443.049999996,2133.0
443.050999996,1930.0
443.051999996,1792.0
443.052999996,1872.0
443.053999996,1998.0
443.054999996,2214.0
443.055999996,2312.0
443.056999996,2199.0
443.057999996,2084.0
443.058999996,1881.0
443.059999996,1800.0
443.060999996,1907.0
443.061999996,2029.0
443.062999996,2249.0
443.063999996,2319.0
443.064999996,2188.0
443.065999996,2061.0
443.066999996,1863.0
443.067999996,1814.0
443.068999996,1910.0
443.069999996,2065.0
443.070999996,2275.0
443.071999996,2272.0
443.072999996,2175.0
443.073999996,2021.0
443.074999996,1836.0
443.075999996,1829.0
443.076999996,1943.0
443.077999996,2103.0
443.078999996,2301.0
443.079999996,2265.0
443.080999996,2165.0
443.081999996,1989.0
443.082999996,1820.0
443.083999996,1856.0
443.084999996,1958.0
443.085999996,2102.0
443.086999996,2326.0
443.087999996,2228.0
443.088999996,2136.0
443.089999996,1942.0
443.090999996,1806.0
443.091999996,1882.0
443.092999996,1994.0
443.093999996,2176.0
443.094999996,2322.0
443.095999996,2224.0
443.096999996,2096.0
443.097999996,1887.0
443.098999996,1792.0
443.099999996,1895.0
443.100999996,2008.0
443.101999996,2228.0
443.102999996,2297.0
443.103999996,2204.0
443.104999996,2050.0
443.105999996,1863.0
443.106999996,1813.0
443.107999996,1925.0
443.108999996,2070.0
443.109999996,2252.0
443.110999996,2299.0
443.111999996,2187.0
443.112999996,2000.0
443.113999996,1826.0
443.114999996,1862.0
443.115999996,1960.0
443.116999996,2136.0
443.117999996,2338.0
443.118999996,2349.0
443.119999996,2249.0
443.120999996,2078.0
443.121999996,1917.0
443.122999996,1908.0
443.123999996,1961.0
443.124999996,2070.0
443.125999996,2193.0
443.126999996,2118.0
443.127999996,1988.0
443.128999996,1767.0
443.129999996,1627.0
443.130999996,1690.0
443.131999996,1818.0
443.132999996,2049.0
443.133999996,2181.0
443.134999996,2112.0
443.135999996,2010.0
443.136999996,1808.0
443.137999996,1722.0
443.138999996,1836.0
443.139999996,1974.0
443.140999996,2218.0
443.141999996,2303.0
443.142999996,2213.0
443.143999996,2117.0
443.144999996,1878.0
443.145999996,1847.0
443.146999996,1944.0
443.147999996,2050.0
443.148999996,2301.0
443.149999996,2323.0
443.150999996,2228.0
443.151999996,2072.0
443.152999996,1885.0
443.153999996,1856.0
443.154999996,1957.0
443.155999996,2127.0
443.156999996,2325.0
443.157999996,2312.0
443.158999996,2192.0
443.159999996,2026.0
443.160999996,1848.0
443.161999996,1881.0
443.162999996,1979.0
443.163999996,2159.0
443.164999996,2321.0
443.165999996,2262.0
443.166999996,2174.0
443.167999996,1984.0
443.168999996,1824.0
443.169999996,1879.0
443.170999996,2004.0
443.171999996,2193.0
443.172999996,2321.0
443.173999996,2230.0
443.174999996,2148.0
443.175999996,1947.0
443.176999996,1827.0
443.177999996,1917.0
443.178999996,2020.0
443.179999996,2249.0
443.180999996,2328.0
443.181999996,2217.0
443.182999996,2119.0
443.183999996,1900.0
443.184999996,1836.0
443.185999996,1936.0
443.186999996,2074.0
443.187999996,2286.0
443.188999996,2314.0
443.189999996,2189.0
443.190999996,2081.0
443.191999996,1882.0
443.192999996,1841.0
443.193999996,1942.0
443.194999996,2113.0
443.195999996,2290.0
443.196999996,2287.0
443.197999996,2179.0
443.198999996,2040.0
443.199999996,1863.0
443.200999996,1879.0
443.201999996,1972.0
443.202999996,2148.0
443.203999996,2315.0
443.204999996,2253.0
443.205999996,2149.0
443.206999996,2000.0
443.207999996,1821.0
443.208999996,1872.0
443.209999996,1992.0
443.210999996,2177.0
443.211999996,2305.0
443.212999996,2209.0
443.213999996,2107.0
443.214999996,1933.0
443.215999996,1802.0
443.216999996,1856.0
443.217999996,1997.0
443.218999996,2204.0
443.219999996,2271.0
443.220999996,2164.0
443.221999996,2067.0
443.222999996,1858.0
443.223999996,1781.0
443.224999996,1863.0
443.225999996,1992.0
443.226999996,2201.0
443.227999996,2243.0
443.228999996,2129.0
443.229999996,1988.0
443.230999996,1817.0
443.231999996,1781.0
443.232999996,1862.0
443.233999996,2031.0
443.234999996,2220.0
443.235999996,2199.0
443.236999996,2103.0
443.237999996,1939.0
443.238999996,1804.0
443.239999996,1807.0
443.240999996,1889.0
443.241999996,2070.0
443.242999996,2239.0
443.243999996,2187.0
443.244999996,2088.0
443.245999996,1882.0
443.246999996,1776.0
443.247999996,1831.0
443.248999996,1923.0
443.249999996,2107.0
443.250999996,2246.0
443.251999996,2160.0
443.252999996,2059.0
443.253999996,1862.0
443.254999996,1780.0
443.255999996,1868.0
443.256999996,1978.0
443.257999996,2180.0
443.258999996,2251.0
443.259999996,2140.0
443.260999996,2040.0
443.261999996,1836.0
443.262999996,1779.0
443.263999996,1899.0
443.264999996,2002.0
443.265999996,2204.0
443.266999996,2248.0
443.267999996,2134.0
443.268999996,2006.0
443.269999996,1816.0
443.270999996,1802.0
443.271999996,1910.0
443.272999996,2042.0
443.273999996,2233.0
443.274999996,2226.0
443.275999996,2125.0
443.276999996,1957.0
443.277999996,1806.0
443.278999996,1836.0
443.279999996,1933.0
443.280999996,2099.0
443.281999996,2264.0
443.282999996,2212.0
443.283999996,2106.0
443.284999996,1925.0
443.285999996,1786.0
443.286999996,1863.0
443.287999996,1968.0
443.288999996,2132.0
443.289999996,2281.0
443.290999996,2193.0
443.291999996,2093.0
443.292999996,1907.0
443.293999996,1783.0
443.294999996,1890.0
443.295999996,1994.0
443.296999996,2201.0
443.297999996,2284.0
443.298999996,2172.0
443.299999996,2066.0
443.300999996,1856.0
443.301999996,1788.0
443.302999996,1909.0
443.303999996,2031.0
443.304999996,2231.0
443.305999996,2265.0
443.306999996,2147.0
443.307999996,2033.0
443.308999996,1829.0
443.309999996,1799.0
443.310999996,1927.0
443.311999996,2075.0
443.312999996,2252.0
443.313999996,2242.0
443.314999996,2144.0
443.315999996,1988.0
443.316999996,1821.0
443.317999996,1831.0
443.318999996,1951.0
443.319999996,2110.0
443.320999996,2268.0
443.321999996,2235.0
443.322999996,2131.0
443.323999996,1945.0
443.324999996,1790.0
443.325999996,1860.0
443.326999996,1967.0
443.327999996,2148.0
443.328999996,2284.0
443.329999996,2206.0
443.330999996,2107.0
443.331999996,1918.0
443.332999996,1793.0
443.333999996,1866.0
443.334999996,2000.0
443.335999996,2206.0
443.336999996,2293.0
443.337999996,2183.0
443.338999996,2072.0
443.339999996,1864.0
443.340999996,1796.0
443.341999996,1884.0
443.342999996,2040.0
443.343999996,2247.0
443.344999996,2275.0
443.345999996,2156.0
443.346999996,2036.0
443.347999996,1846.0
443.348999996,1795.0
443.349999996,1921.0
443.350999996,2075.0
443.351999996,2261.0
443.352999996,2254.0
443.353999996,2145.0
443.354999996,1987.0
443.355999996,1815.0
443.356999996,1824.0
443.357999996,1932.0
443.358999996,2117.0
443.359999996,2278.0
443.360999996,2241.0
443.361999996,2132.0
443.362999996,1961.0
443.363999996,1795.0
443.364999996,1851.0
443.365999996,1944.0
443.366999996,2147.0
443.367999996,2296.0
443.368999996,2203.0
443.369999996,2100.0
443.370999996,1910.0
443.371999996,1784.0
443.372999996,1857.0
443.373999996,1932.0
443.374999996,2205.0
443.375999996,2298.0
443.376999996,2180.0
443.377999996,2079.0
443.378999996,1872.0
443.379999996,1790.0
443.380999996,1893.0
443.381999996,2014.0
443.382999996,2239.0
443.383999996,2292.0
443.384999996,2165.0
443.385999996,2041.0
443.386999996,1838.0
443.387999996,1793.0
443.388999996,1912.0
443.389999996,2053.0
443.390999996,2267.0
443.391999996,2279.0
443.392999996,2147.0
443.393999996,1992.0
443.394999996,1823.0
443.395999996,1812.0
443.396999996,1932.0
443.397999996,2106.0
443.398999996,2280.0
443.399999996,2249.0
443.400999996,2137.0
443.401999996,1956.0
443.402999996,1810.0
443.403999996,1850.0
443.404999996,1954.0
443.405999996,2129.0
