52.372,1782.0
52.373,1163.0
52.374,757.0
52.375,1026.0
52.376,1383.0
52.377,2070.0
52.378,2311.0
52.379,1945.0
52.38,1586.0
52.381,943.0
52.382,671.0
52.383,977.0
52.384,1394.0
52.385,2064.0
52.386,2187.0
52.387,1804.0
52.388,1380.0
52.389,790.0
52.39,657.0
52.391,982.0
52.392,1490.0
52.393,2091.0
52.394,2113.0
52.395,1733.0
52.396,1225.0
52.397,721.0
52.398,721.0
52.399,1010.0
52.4,1584.0
52.401,2123.0
52.402,1975.0
52.403,1701.0
52.404,1122.0
52.405,674.0
52.406,840.0
52.407,1141.0
52.408,1711.0
52.409,2196.0
52.41,1930.0
52.411,1631.0
52.412,1006.0
52.413,660.0
52.414,917.0
52.415,1249.0
52.416,1930.0
52.417,2228.0
52.418,1881.0
52.419,1550.0
52.42,885.0
52.421,696.0
52.422,1004.0
52.423,1386.0
52.424,2104.0
52.425,2241.0
52.426,1859.0
52.427,1461.0
52.428,831.0
52.429,741.0
52.43,1056.0
52.431,1516.0
52.432,2150.0
52.433,2169.0
52.434,1824.0
52.435,1328.0
52.436,795.0
52.437,877.0
52.438,1148.0
52.439,1681.0
52.44,2242.0
52.441,2115.0
52.442,1799.0
52.443,1234.0
52.444,742.0
52.445,972.0
52.446,1271.0
52.447,1858.0
52.448,2321.0
52.449,2061.0
52.45,1758.0
52.451,1124.0
52.452,711.0
52.453,1045.0
52.454,1393.0
52.455,2046.0
52.456,2357.0
52.457,2008.0
52.458,1685.0
52.459,1003.0
52.46,777.0
52.461,1163.0
52.462,1540.0
52.463,2194.0
52.464,2349.0
52.465,1961.0
52.466,1555.0
52.467,934.0
52.468,805.0
52.469,1224.0
52.47,1673.0
52.471,2255.0
52.472,2275.0
52.473,1936.0
52.474,1467.0
52.475,886.0
52.476,896.0
52.477,1260.0
52.478,1794.0
52.479,2330.0
52.48,2217.0
52.481,1885.0
52.482,1318.0
52.483,810.0
52.484,988.0
52.485,1372.0
52.486,1939.0
52.487,2386.0
52.488,2144.0
52.489,1844.0
52.49,1237.0
52.491,808.0
52.492,1072.0
52.493,1462.0
52.494,2115.0
52.495,2403.0
52.496,2076.0
52.497,1731.0
52.498,1075.0
52.499,811.0
52.5,1141.0
52.501,1593.0
52.502,2255.0
52.503,2384.0
52.504,1993.0
52.505,1602.0
52.506,967.0
52.507,819.0
52.508,1179.0
52.509,1705.0
52.51,2313.0
52.511,2322.0
52.512,1959.0
52.513,1474.0
52.514,922.0
52.515,920.0
52.516,1235.0
52.517,1824.0
52.518,2356.0
52.519,2236.0
52.52,1899.0
52.521,1347.0
52.522,852.0
52.523,985.0
52.524,1307.0
52.525,1973.0
52.526,2441.0
52.527,2161.0
52.528,1870.0
52.529,1247.0
52.53,827.0
52.531,1097.0
52.532,1434.0
52.533,2110.0
52.534,2434.0
52.535,2058.0
52.536,1729.0
52.537,1074.0
52.538,799.0
52.539,1103.0
52.54,1475.0
52.541,2221.0
52.542,2372.0
52.543,1954.0
52.544,1556.0
52.545,927.0
52.546,789.0
52.547,1122.0
52.548,1607.0
52.549,2288.0
52.55,2309.0
52.551,1920.0
52.552,1441.0
52.553,878.0
52.554,855.0
52.555,1181.0
52.556,1716.0
52.557,2359.0
52.558,2251.0
52.559,1912.0
52.56,1394.0
52.561,934.0
52.562,1134.0
52.563,1522.0
52.564,2188.0
52.565,2792.0
52.566,2552.0
52.567,2276.0
52.568,1667.0
52.569,1177.0
52.57,1332.0
52.571,1543.0
52.572,1963.0
52.573,2146.0
52.574,1635.0
52.575,1188.0
52.576,541.0
52.577,269.0
52.578,596.0
52.579,980.0
52.58,1772.0
52.581,2030.0
52.582,1664.0
52.583,1295.0
52.584,677.0
52.585,530.0
52.586,931.0
52.587,1451.0
52.588,2130.0
52.589,2299.0
52.59,1963.0
52.591,1540.0
52.592,976.0
52.593,952.0
52.594,1327.0
52.595,1850.0
52.596,2423.0
52.597,2382.0
52.598,2050.0
52.599,1462.0
52.6,953.0
52.601,1072.0
52.602,1407.0
52.603,1980.0
52.604,2513.0
52.605,2305.0
52.606,1974.0
52.607,1321.0
52.608,880.0
52.609,1133.0
52.61,1497.0
52.611,2116.0
52.612,2512.0
52.613,2223.0
52.614,1881.0
52.615,1193.0
52.616,883.0
52.617,1190.0
52.618,1589.0
52.619,2288.0
52.62,2487.0
52.621,2152.0
52.622,1745.0
52.623,1061.0
52.624,878.0
52.625,1250.0
52.626,1704.0
52.627,2355.0
52.628,2436.0
52.629,2072.0
52.63,1603.0
52.631,1010.0
52.632,950.0
52.633,1317.0
52.634,1868.0
52.635,2436.0
52.636,2380.0
52.637,2070.0
52.638,1524.0
52.639,950.0
52.64,1072.0
52.641,1414.0
52.642,1998.0
52.643,2504.0
52.644,2290.0
52.645,2011.0
52.646,1408.0
52.647,914.0
52.648,1131.0
52.649,1468.0
52.65,2100.0
52.651,2506.0
52.652,2194.0
52.653,1908.0
52.654,1238.0
52.655,857.0
52.656,1160.0
52.657,1520.0
52.658,2231.0
52.659,2436.0
52.66,2056.0
52.661,1726.0
52.662,1019.0
52.663,778.0
52.664,1126.0
52.665,1534.0
52.666,2199.0
52.667,2267.0
52.668,1885.0
52.669,1462.0
52.67,836.0
52.671,714.0
52.672,1037.0
52.673,1543.0
52.674,2123.0
52.675,2079.0
52.676,1729.0
52.677,1256.0
52.678,665.0
52.679,726.0
52.68,1041.0
52.681,1607.0
52.682,2115.0
52.683,1917.0
52.684,1614.0
52.685,1066.0
52.686,582.0
52.687,765.0
52.688,1105.0
52.689,1717.0
52.69,2157.0
52.691,1849.0
52.692,1547.0
52.693,957.0
52.694,556.0
52.695,826.0
52.696,1208.0
52.697,1901.0
52.698,2178.0
52.699,1799.0
52.7,1458.0
52.701,841.0
52.702,618.0
52.703,951.0
52.704,1361.0
52.705,2012.0
52.706,2143.0
52.707,1771.0
52.708,1360.0
52.709,826.0
52.71,681.0
52.711,1012.0
52.712,1514.0
52.713,2098.0
52.714,2093.0
52.715,1755.0
52.716,1291.0
52.717,767.0
52.718,797.0
52.719,1090.0
52.72,1671.0
52.721,2209.0
52.722,2042.0
52.723,1754.0
52.724,1172.0
52.725,758.0
52.726,945.0
52.727,1275.0
52.728,1839.0
52.729,2286.0
52.73,2010.0
52.731,1697.0
52.732,1076.0
52.733,754.0
52.734,1049.0
52.735,1393.0
52.736,2048.0
52.737,2328.0
52.738,1997.0
52.739,1635.0
52.74,990.0
52.741,809.0
52.742,1118.0
52.743,1512.0
52.744,2183.0
52.745,2287.0
52.746,1908.0
52.747,1488.0
52.748,927.0
52.749,871.0
52.75,1180.0
52.751,1616.0
52.752,2231.0
52.753,2223.0
52.754,1878.0
52.755,1398.0
52.756,857.0
52.757,954.0
52.758,1250.0
52.759,1754.0
52.76,2307.0
52.761,2120.0
52.762,1827.0
52.763,1269.0
52.764,796.0
52.765,1058.0
52.766,1368.0
52.767,1916.0
52.768,2359.0
52.769,2075.0
52.77,1782.0
52.771,1171.0
52.772,763.0
52.773,1126.0
52.774,1460.0
52.775,2086.0
52.776,2364.0
52.777,2005.0
52.778,1693.0
52.779,1033.0
52.78,796.0
52.781,1196.0
52.782,1579.0
52.783,2211.0
52.784,2351.0
52.785,1960.0
52.786,1570.0
52.787,957.0
52.788,819.0
52.789,1255.0
52.79,1698.0
52.791,2265.0
52.792,2281.0
52.793,1906.0
52.794,1437.0
52.795,894.0
52.796,912.0
52.797,1316.0
52.798,1840.0
52.799,2344.0
52.8,2207.0
52.801,1887.0
52.802,1332.0
52.803,811.0
52.804,997.0
52.805,1368.0
52.806,1937.0
52.807,2384.0
52.808,2090.0
52.809,1801.0
52.81,1192.0
52.811,761.0
52.812,1057.0
52.813,1463.0
52.814,2102.0
52.815,2386.0
52.816,2061.0
52.817,1709.0
52.818,1043.0
52.819,792.0
52.82,1142.0
52.821,1580.0
52.822,2245.0
52.823,2354.0
52.824,1971.0
52.825,1577.0
52.826,955.0
52.827,807.0
52.828,1142.0
52.829,1686.0
52.83,2268.0
52.831,2253.0
52.832,1875.0
52.833,1402.0
52.834,864.0
52.835,877.0
52.836,1197.0
52.837,1797.0
52.838,2323.0
52.839,2141.0
52.84,1821.0
52.841,1258.0
52.842,784.0
52.843,952.0
52.844,1293.0
52.845,1943.0
52.846,2388.0
52.847,2100.0
52.848,1828.0
52.849,1266.0
52.85,925.0
52.851,1266.0
52.852,1704.0
52.853,2458.0
52.854,2792.0
52.855,2455.0
52.856,2103.0
52.857,1333.0
52.858,971.0
52.859,1145.0
52.86,1316.0
52.861,1802.0
52.862,1787.0
52.863,1292.0
52.864,896.0
52.865,323.0
52.866,209.0
52.867,584.0
52.868,1132.0
52.869,1828.0
52.87,1869.0
52.871,1515.0
52.872,1093.0
52.873,571.0
52.874,634.0
52.875,1013.0
52.876,1590.0
52.877,2248.0
52.878,2181.0
52.879,1890.0
52.88,1356.0
52.881,853.0
52.882,1009.0
52.883,1354.0
52.884,1930.0
52.885,2447.0
52.886,2180.0
52.887,1869.0
52.888,1280.0
52.889,845.0
52.89,1109.0
52.891,1453.0
52.892,2087.0
52.893,2466.0
52.894,2143.0
52.895,1772.0
52.896,1126.0
52.897,851.0
52.898,1165.0
52.899,1542.0
52.9,2254.0
52.901,2463.0
52.902,2065.0
52.903,1634.0
52.904,1023.0
52.905,867.0
52.906,1224.0
52.907,1676.0
52.908,2283.0
52.909,2388.0
52.91,1993.0
52.911,1483.0
52.912,927.0
52.913,901.0
52.914,1246.0
52.915,1785.0
52.916,2354.0
52.917,2289.0
52.918,1963.0
52.919,1377.0
52.92,879.0
52.921,1016.0
52.922,1351.0
52.923,1919.0
52.924,2419.0
52.925,2220.0
52.926,1915.0
52.927,1273.0
52.928,831.0
52.929,1114.0
52.93,1465.0
52.931,2093.0
52.932,2478.0
52.933,2189.0
52.934,1845.0
52.935,1198.0
52.936,865.0
52.937,1188.0
52.938,1588.0
52.939,2282.0
52.94,2464.0
52.941,2115.0
52.942,1687.0
52.943,1004.0
52.944,839.0
52.945,1195.0
52.946,1629.0
52.947,2253.0
52.948,2310.0
52.949,1956.0
52.95,1468.0
52.951,845.0
52.952,785.0
52.953,1126.0
52.954,1646.0
52.955,2199.0
52.956,2117.0
52.957,1799.0
52.958,1249.0
52.959,658.0
52.96,765.0
52.961,1094.0
52.962,1683.0
52.963,2137.0
52.964,1938.0
52.965,1661.0
52.966,1042.0
52.967,540.0
52.968,805.0
52.969,1144.0
52.97,1785.0
52.971,2166.0
52.972,1862.0
52.973,1576.0
52.974,900.0
52.975,546.0
52.976,855.0
52.977,1224.0
52.978,1952.0
52.979,2130.0
52.98,1782.0
52.981,1473.0
52.982,781.0
52.983,593.0
52.984,947.0
52.985,1374.0
52.986,2053.0
52.987,2121.0
52.988,1748.0
52.989,1346.0
52.99,760.0
52.991,656.0
52.992,996.0
52.993,1549.0
52.994,2142.0
52.995,2066.0
52.996,1729.0
52.997,1259.0
52.998,701.0
52.999,766.0
53.0,1087.0
53.001,1694.0
53.002,2227.0
53.003,2014.0
53.004,1695.0
53.005,1158.0
53.006,647.0
53.007,877.0
53.008,1214.0
53.009,1859.0
53.01,2262.0
53.011,1945.0
53.012,1645.0
53.013,1047.0
53.014,703.0
53.015,975.0
53.016,1362.0
53.017,2064.0
53.018,2280.0
53.019,1924.0
53.02,1567.0
53.021,943.0
53.022,725.0
53.023,1055.0
53.024,1502.0
53.025,2147.0
53.026,2260.0
53.027,1876.0
53.028,1458.0
53.029,897.0
53.03,803.0
53.031,1118.0
53.032,1623.0
53.033,2196.0
53.034,2172.0
53.035,1863.0
53.036,1340.0
53.037,872.0
53.038,916.0
53.039,1213.0
53.04,1760.0
53.041,2288.0
53.042,2093.0
53.043,1816.0
53.044,1227.0
53.045,806.0
53.046,1007.0
53.047,1309.0
53.048,1896.0
53.049,2340.0
53.05,2032.0
53.051,1716.0
53.052,1100.0
53.053,795.0
53.054,1074.0
53.055,1414.0
53.056,2098.0
53.057,2339.0
53.058,1995.0
53.059,1642.0
53.06,964.0
53.061,818.0
53.062,1130.0
53.063,1539.0
53.064,2186.0
53.065,2312.0
53.066,1938.0
53.067,1503.0
53.068,935.0
53.069,870.0
53.07,1210.0
53.071,1682.0
53.072,2252.0
53.073,2218.0
53.074,1883.0
53.075,1375.0
53.076,856.0
53.077,964.0
53.078,1262.0
53.079,1769.0
53.08,2294.0
53.081,2112.0
53.082,1811.0
53.083,1230.0
53.084,781.0
53.085,1051.0
53.086,1352.0
53.087,1888.0
53.088,2338.0
53.089,2064.0
53.09,1755.0
53.091,1127.0
53.092,767.0
53.093,1108.0
53.094,1452.0
53.095,2114.0
53.096,2355.0
53.097,2002.0
53.098,1677.0
53.099,1038.0
53.1,832.0
53.101,1226.0
53.102,1615.0
53.103,2214.0
53.104,2333.0
53.105,1952.0
53.106,1557.0
53.107,978.0
53.108,863.0
53.109,1263.0
53.11,1718.0
53.111,2270.0
53.112,2259.0
53.113,1924.0
53.114,1431.0
53.115,890.0
53.116,954.0
53.117,1335.0
53.118,1859.0
53.119,2356.0
53.12,2190.0
53.121,1865.0
53.122,1301.0
53.123,820.0
53.124,1010.0
53.125,1397.0
53.126,1961.0
53.127,2366.0
53.128,2091.0
53.129,1758.0
53.13,1158.0
53.131,780.0
53.132,1073.0
53.133,1472.0
53.134,2112.0
53.135,2344.0
53.136,2010.0
53.137,1660.0
53.138,1017.0
53.139,799.0
53.14,1126.0
53.141,1589.0
53.142,2255.0
53.143,2324.0
53.144,1929.0
53.145,1575.0
53.146,976.0
53.147,887.0
53.148,1262.0
53.149,1841.0
53.15,2453.0
53.151,2471.0
53.152,2207.0
53.153,1815.0
53.154,1335.0
53.155,1423.0
53.156,1738.0
53.157,2294.0
53.158,2676.0
53.159,2344.0
53.16,1853.0
53.161,1082.0
53.162,396.0
53.163,411.0
53.164,710.0
53.165,1330.0
53.166,1811.0
53.167,1494.0
53.168,1215.0
53.169,662.0
53.17,330.0
53.171,704.0
53.172,1084.0
53.173,1871.0
53.174,2189.0
53.175,1881.0
53.176,1633.0
53.177,1033.0
53.178,869.0
53.179,1278.0
53.18,1684.0
53.181,2417.0
53.182,2532.0
53.183,2115.0
53.184,1711.0
53.185,1105.0
53.186,999.0
53.187,1349.0
53.188,1817.0
53.189,2481.0
53.19,2480.0
53.191,2075.0
53.192,1595.0
53.193,1075.0
53.194,1104.0
53.195,1448.0
53.196,1953.0
53.197,2541.0
53.198,2358.0
53.199,2034.0
53.2,1508.0
53.201,1013.0
53.202,1168.0
53.203,1505.0
53.204,2050.0
53.205,2528.0
53.206,2293.0
53.207,1954.0
53.208,1369.0
53.209,985.0
53.21,1227.0
53.211,1590.0
53.212,2235.0
53.213,2583.0
53.214,2243.0
53.215,1865.0
53.216,1249.0
53.217,985.0
53.218,1313.0
53.219,1696.0
53.22,2376.0
53.221,2540.0
53.222,2167.0
53.223,1743.0
53.224,1146.0
53.225,1020.0
53.226,1376.0
53.227,1842.0
53.228,2445.0
53.229,2514.0
53.23,2136.0
53.231,1625.0
53.232,1102.0
53.233,1111.0
53.234,1439.0
53.235,1951.0
53.236,2506.0
53.237,2445.0
53.238,2120.0
53.239,1516.0
53.24,1020.0
53.241,1172.0
53.242,1481.0
53.243,2038.0
53.244,2495.0
53.245,2278.0
53.246,1960.0
53.247,1345.0
53.248,892.0
53.249,1138.0
53.25,1484.0
53.251,2114.0
53.252,2417.0
53.253,2119.0
53.254,1772.0
53.255,1074.0
53.256,780.0
53.257,1108.0
53.258,1478.0
53.259,2148.0
53.26,2295.0
53.261,1947.0
53.262,1530.0
53.263,844.0
53.264,697.0
53.265,1034.0
53.266,1517.0
53.267,2124.0
53.268,2188.0
53.269,1841.0
53.27,1354.0
53.271,761.0
53.272,755.0
53.273,1070.0
53.274,1619.0
53.275,2138.0
53.276,2061.0
53.277,1789.0
53.278,1239.0
53.279,704.0
53.28,840.0
53.281,1178.0
53.282,1769.0
53.283,2241.0
53.284,2010.0
53.285,1761.0
53.286,1168.0
53.287,712.0
53.288,958.0
53.289,1290.0
53.29,1950.0
53.291,2294.0
53.292,1997.0
53.293,1706.0
53.294,1072.0
53.295,756.0
53.296,1073.0
53.297,1459.0
53.298,2171.0
53.299,2308.0
53.3,1950.0
53.301,1647.0
53.302,1001.0
53.303,837.0
53.304,1172.0
53.305,1623.0
53.306,2253.0
53.307,2311.0
53.308,1949.0
53.309,1558.0
53.31,942.0
53.311,923.0
53.312,1239.0
53.313,1770.0
53.314,2311.0
53.315,2223.0
53.316,1901.0
53.317,1436.0
53.318,908.0
53.319,1002.0
53.32,1325.0
53.321,1902.0
53.322,2378.0
53.323,2181.0
53.324,1860.0
53.325,1350.0
53.326,875.0
53.327,1088.0
53.328,1432.0
53.329,2050.0
53.33,2402.0
53.331,2114.0
53.332,1794.0
53.333,1218.0
53.334,874.0
53.335,1160.0
53.336,1540.0
53.337,2223.0
53.338,2402.0
53.339,2052.0
53.34,1684.0
53.341,1095.0
53.342,908.0
53.343,1233.0
53.344,1671.0
53.345,2289.0
53.346,2371.0
53.347,2013.0
53.348,1592.0
53.349,1061.0
53.35,981.0
53.351,1265.0
53.352,1751.0
53.353,2325.0
53.354,2271.0
53.355,1965.0
53.356,1454.0
53.357,987.0
53.358,1065.0
53.359,1353.0
53.36,1885.0
53.361,2363.0
53.362,2154.0
53.363,1853.0
53.364,1283.0
53.365,903.0
53.366,1101.0
53.367,1414.0
53.368,2009.0
53.369,2396.0
53.37,2099.0
53.371,1778.0
53.372,1140.0
53.373,878.0
53.374,1168.0
53.375,1499.0
53.376,2155.0
53.377,2360.0
53.378,1997.0
53.379,1652.0
53.38,992.0
53.381,900.0
53.382,1211.0
53.383,1591.0
53.384,2225.0
53.385,2319.0
53.386,1930.0
53.387,1495.0
53.388,948.0
53.389,924.0
53.39,1257.0
53.391,1701.0
53.392,2250.0
53.393,2209.0
53.394,1892.0
53.395,1382.0
53.396,880.0
53.397,1027.0
53.398,1319.0
53.399,1823.0
53.4,2329.0
53.401,2144.0
53.402,1831.0
53.403,1253.0
53.404,803.0
53.405,1086.0
53.406,1399.0
53.407,1961.0
53.408,2362.0
53.409,2066.0
53.41,1752.0
53.411,1138.0
53.412,809.0
53.413,1172.0
53.414,1511.0
53.415,2146.0
53.416,2376.0
53.417,2021.0
53.418,1683.0
53.419,1049.0
53.42,842.0
53.421,1224.0
53.422,1618.0
53.423,2212.0
53.424,2312.0
53.425,1951.0
53.426,1554.0
53.427,995.0
53.428,896.0
53.429,1280.0
53.43,1745.0
53.431,2277.0
53.432,2248.0
53.433,1922.0
53.434,1437.0
53.435,924.0
53.436,985.0
53.437,1340.0
53.438,1867.0
53.439,2353.0
53.44,2173.0
53.441,1852.0
53.442,1311.0
53.443,855.0
53.444,1050.0
53.445,1416.0
53.446,1991.0
53.447,2357.0
53.448,2066.0
53.449,1756.0
53.45,1164.0
53.451,819.0
53.452,1102.0
53.453,1490.0
53.454,2116.0
53.455,2319.0
53.456,1981.0
53.457,1642.0
53.458,1045.0
53.459,848.0
53.46,1163.0
53.461,1634.0
53.462,2257.0
53.463,2324.0
53.464,1936.0
53.465,1548.0
53.466,999.0
53.467,955.0
53.468,1344.0
53.469,1950.0
53.47,2550.0
53.471,2585.0
53.472,2322.0
53.473,1892.0
53.474,1397.0
53.475,1471.0
53.476,1667.0
53.477,2120.0
53.478,2429.0
53.479,2032.0
53.48,1497.0
53.481,748.0
53.482,197.0
53.483,342.0
53.484,685.0
53.485,1360.0
53.486,1807.0
53.487,1526.0
53.488,1288.0
53.489,755.0
53.49,453.0
53.491,807.0
53.492,1193.0
53.493,1946.0
53.494,2263.0
53.495,1983.0
53.496,1702.0
53.497,1118.0
53.498,965.0
53.499,1319.0
53.5,1719.0
53.501,2407.0
53.502,2510.0
53.503,2113.0
53.504,1705.0
53.505,1135.0
53.506,1055.0
53.507,1408.0
53.508,1863.0
53.509,2474.0
53.51,2440.0
53.511,2058.0
53.512,1579.0
53.513,1069.0
53.514,1115.0
53.515,1453.0
53.516,1946.0
53.517,2516.0
53.518,2323.0
53.519,1969.0
53.52,1435.0
53.521,972.0
53.522,1159.0
53.523,1486.0
53.524,2034.0
53.525,2530.0
53.526,2249.0
53.527,1901.0
53.528,1324.0
53.529,953.0
53.53,1229.0
53.531,1592.0
53.532,2221.0
53.533,2560.0
53.534,2183.0
53.535,1813.0
53.536,1186.0
53.537,982.0
53.538,1314.0
53.539,1726.0
53.54,2352.0
53.541,2525.0
53.542,2142.0
53.543,1713.0
53.544,1122.0
53.545,1019.0
53.546,1372.0
53.547,1833.0
53.548,2410.0
53.549,2453.0
53.55,2102.0
53.551,1587.0
53.552,1057.0
53.553,1087.0
53.554,1421.0
53.555,1948.0
53.556,2463.0
53.557,2377.0
53.558,2038.0
53.559,1466.0
53.56,969.0
53.561,1135.0
53.562,1444.0
53.563,1994.0
53.564,2458.0
53.565,2238.0
53.566,1912.0
53.567,1261.0
53.568,854.0
53.569,1112.0
53.57,1461.0
53.571,2093.0
53.572,2346.0
53.573,2046.0
53.574,1682.0
53.575,1010.0
53.576,738.0
53.577,1067.0
53.578,1449.0
53.579,2086.0
53.58,2215.0
53.581,1894.0
53.582,1476.0
53.583,829.0
53.584,669.0
53.585,1029.0
53.586,1487.0
53.587,2073.0
53.588,2095.0
53.589,1784.0
53.59,1311.0
53.591,763.0
53.592,767.0
53.593,1095.0
53.594,1625.0
53.595,2130.0
53.596,2026.0
53.597,1750.0
53.598,1195.0
53.599,682.0
53.6,857.0
53.601,1188.0
53.602,1777.0
53.603,2235.0
53.604,1986.0
53.605,1729.0
53.606,1142.0
53.607,722.0
53.608,979.0
53.609,1304.0
53.61,1934.0
53.611,2257.0
53.612,1945.0
53.613,1693.0
53.614,1054.0
53.615,751.0
53.616,1085.0
53.617,1456.0
53.618,2132.0
53.619,2269.0
53.62,1928.0
53.621,1596.0
53.622,951.0
53.623,785.0
53.624,1141.0
53.625,1607.0
53.626,2225.0
53.627,2253.0
53.628,1907.0
53.629,1494.0
53.63,924.0
53.631,887.0
53.632,1212.0
53.633,1751.0
53.634,2275.0
53.635,2192.0
53.636,1882.0
53.637,1385.0
53.638,873.0
53.639,999.0
53.64,1305.0
53.641,1879.0
53.642,2340.0
53.643,2112.0
53.644,1800.0
53.645,1279.0
53.646,828.0
53.647,1091.0
53.648,1433.0
53.649,2042.0
53.65,2374.0
53.651,2054.0
53.652,1758.0
53.653,1180.0
53.654,867.0
53.655,1167.0
53.656,1541.0
53.657,2186.0
53.658,2366.0
53.659,2027.0
53.66,1643.0
53.661,1075.0
53.662,902.0
53.663,1214.0
53.664,1662.0
53.665,2254.0
53.666,2328.0
53.667,1999.0
53.668,1551.0
53.669,1028.0
53.67,975.0
53.671,1262.0
53.672,1771.0
53.673,2315.0
53.674,2245.0
53.675,1934.0
53.676,1400.0
53.677,951.0
53.678,1062.0
53.679,1355.0
53.68,1908.0
53.681,2380.0
53.682,2180.0
53.683,1896.0
53.684,1299.0
53.685,955.0
53.686,1164.0
53.687,1479.0
53.688,2061.0
53.689,2407.0
53.69,2096.0
53.691,1803.0
53.692,1175.0
53.693,941.0
53.694,1223.0
53.695,1551.0
53.696,2210.0
53.697,2383.0
53.698,2045.0
53.699,1680.0
53.7,1058.0
53.701,948.0
53.702,1263.0
53.703,1645.0
53.704,2280.0
53.705,2338.0
53.706,1994.0
53.707,1540.0
53.708,1003.0
53.709,1008.0
53.71,1316.0
53.711,1769.0
53.712,2327.0
53.713,2251.0
53.714,1935.0
53.715,1423.0
53.716,910.0
53.717,1062.0
53.718,1379.0
53.719,1861.0
53.72,2367.0
53.721,2154.0
53.722,1854.0
53.723,1294.0
53.724,859.0
53.725,1149.0
53.726,1453.0
53.727,1996.0
53.728,2379.0
53.729,2080.0
53.73,1778.0
53.731,1178.0
53.732,864.0
53.733,1243.0
53.734,1578.0
53.735,2189.0
53.736,2405.0
53.737,2050.0
53.738,1696.0
53.739,1074.0
53.74,903.0
53.741,1295.0
53.742,1685.0
53.743,2277.0
53.744,2359.0
53.745,1994.0
53.746,1582.0
53.747,1015.0
53.748,971.0
53.749,1359.0
53.75,1813.0
53.751,2291.0
53.752,2299.0
53.753,1941.0
53.754,1441.0
53.755,944.0
53.756,1028.0
53.757,1417.0
53.758,1926.0
53.759,2373.0
53.76,2215.0
53.761,1875.0
53.762,1336.0
53.763,902.0
53.764,1086.0
53.765,1467.0
53.766,2044.0
53.767,2406.0
53.768,2086.0
53.769,1765.0
53.77,1169.0
53.771,818.0
53.772,1110.0
53.773,1516.0
53.774,2165.0
53.775,2341.0
53.776,1993.0
53.777,1640.0
53.778,1016.0
53.779,837.0
53.78,1168.0
53.781,1634.0
53.782,2259.0
53.783,2312.0
53.784,1948.0
53.785,1545.0
53.786,1001.0
53.787,939.0
53.788,1261.0
53.789,1802.0
53.79,2372.0
53.791,2371.0
53.792,2089.0
53.793,1662.0
53.794,1242.0
53.795,1399.0
53.796,1768.0
53.797,2408.0
53.798,2877.0
53.799,2568.0
53.8,2159.0
53.801,1434.0
53.802,777.0
53.803,756.0
53.804,906.0
53.805,1450.0
53.806,1816.0
53.807,1530.0
53.808,1231.0
53.809,665.0
53.81,413.0
53.811,749.0
53.812,1118.0
53.813,1867.0
53.814,2093.0
53.815,1732.0
53.816,1452.0
53.817,881.0
53.818,789.0
53.819,1184.0
53.82,1617.0
53.821,2358.0
53.822,2471.0
53.823,2084.0
53.824,1676.0
53.825,1095.0
53.826,1044.0
53.827,1368.0
53.828,1828.0
53.829,2454.0
53.83,2439.0
53.831,2090.0
53.832,1592.0
53.833,1067.0
53.834,1094.0
53.835,1422.0
53.836,1952.0
53.837,2506.0
53.838,2306.0
53.839,1971.0
53.84,1405.0
53.841,950.0
53.842,1169.0
53.843,1483.0
53.844,2025.0
53.845,2493.0
53.846,2202.0
53.847,1876.0
53.848,1274.0
53.849,900.0
53.85,1232.0
53.851,1577.0
53.852,2197.0
53.853,2516.0
53.854,2149.0
53.855,1772.0
53.856,1154.0
53.857,967.0
53.858,1325.0
53.859,1732.0
53.86,2374.0
53.861,2516.0
53.862,2125.0
53.863,1700.0
53.864,1149.0
53.865,1061.0
53.866,1436.0
53.867,1925.0
53.868,2480.0
53.869,2539.0
53.87,2191.0
53.871,1683.0
53.872,1171.0
53.873,1235.0
53.874,1582.0
53.875,2099.0
53.876,2608.0
53.877,2504.0
53.878,2180.0
53.879,1592.0
53.88,1127.0
53.881,1339.0
53.882,1671.0
53.883,2242.0
53.884,2659.0
53.885,2413.0
53.886,2097.0
53.887,1447.0
53.888,1050.0
53.889,1339.0
53.89,1702.0
53.891,2339.0
53.892,2583.0
53.893,2283.0
53.894,1915.0
53.895,1215.0
53.896,1005.0
53.897,1325.0
53.898,1716.0
53.899,2367.0
53.9,2489.0
53.901,2140.0
53.902,1715.0
53.903,1077.0
53.904,970.0
53.905,1313.0
53.906,1792.0
53.907,2357.0
53.908,2384.0
53.909,2048.0
53.91,1577.0
53.911,999.0
53.912,1027.0
53.913,1358.0
53.914,1902.0
53.915,2424.0
53.916,2283.0
53.917,2007.0
53.918,1471.0
53.919,938.0
53.92,1130.0
53.921,1462.0
53.922,2055.0
53.923,2509.0
53.924,2243.0
53.925,1978.0
53.926,1394.0
53.927,967.0
53.928,1265.0
53.929,1597.0
53.93,2278.0
53.931,2574.0
53.932,2220.0
53.933,1957.0
53.934,1301.0
53.935,1033.0
53.936,1369.0
53.937,1776.0
53.938,2464.0
53.939,2581.0
53.94,2246.0
53.941,1896.0
53.942,1264.0
53.943,1120.0
53.944,1475.0
53.945,1925.0
53.946,2567.0
53.947,2599.0
53.948,2251.0
53.949,1835.0
53.95,1256.0
53.951,1257.0
53.952,1598.0
53.953,2149.0
53.954,2687.0
53.955,2552.0
53.956,2259.0
53.957,1766.0
53.958,1247.0
53.959,1382.0
53.96,1735.0
53.961,2331.0
53.962,2769.0
53.963,2534.0
53.964,2239.0
53.965,1707.0
53.966,1273.0
53.967,1523.0
53.968,1864.0
53.969,2491.0
53.97,2809.0
53.971,2482.0
53.972,2158.0
53.973,1552.0
53.974,1286.0
53.975,1578.0
53.976,1978.0
53.977,2632.0
53.978,2789.0
53.979,2407.0
53.98,2027.0
53.981,1448.0
53.982,1305.0
53.983,1616.0
53.984,2072.0
53.985,2676.0
53.986,2732.0
53.987,2393.0
53.988,1907.0
53.989,1400.0
53.99,1386.0
53.991,1686.0
53.992,2209.0
53.993,2751.0
53.994,2663.0
53.995,2346.0
53.996,1807.0
53.997,1344.0
53.998,1481.0
53.999,1782.0
54.0,2337.0
54.001,2801.0
54.002,2568.0
54.003,2282.0
54.004,1656.0
54.005,1290.0
54.006,1538.0
54.007,1862.0
54.008,2464.0
54.009,2794.0
54.01,2466.0
54.011,2154.0
54.012,1521.0
54.013,1296.0
54.014,1592.0
54.015,1947.0
54.016,2602.0
54.017,2757.0
54.018,2387.0
54.019,2012.0
54.02,1382.0
54.021,1292.0
54.022,1635.0
54.023,2052.0
54.024,2629.0
54.025,2691.0
54.026,2328.0
54.027,1857.0
54.028,1332.0
54.029,1350.0
54.03,1703.0
54.031,2189.0
54.032,2700.0
54.033,2602.0
54.034,2279.0
54.035,1738.0
54.036,1242.0
54.037,1431.0
54.038,1738.0
54.039,2266.0
54.04,2752.0
54.041,2523.0
54.042,2227.0
54.043,1622.0
54.044,1177.0
54.045,1487.0
54.046,1813.0
54.047,2391.0
54.048,2733.0
54.049,2410.0
54.05,2108.0
54.051,1480.0
54.052,1173.0
54.053,1527.0
54.054,1895.0
54.055,2526.0
54.056,2702.0
54.057,2347.0
54.058,1981.0
54.059,1357.0
54.06,1193.0
54.061,1563.0
54.062,1987.0
54.063,2545.0
54.064,2625.0
54.065,2247.0
54.066,1796.0
54.067,1229.0
54.068,1199.0
54.069,1576.0
54.07,2073.0
54.071,2582.0
54.072,2516.0
54.073,2178.0
54.074,1652.0
54.075,1139.0
54.076,1257.0
54.077,1628.0
54.078,2170.0
54.079,2611.0
54.08,2404.0
54.081,2093.0
54.082,1520.0
54.083,1099.0
54.084,1375.0
54.085,1737.0
54.086,2323.0
54.087,2676.0
54.088,2379.0
54.089,2097.0
54.09,1544.0
54.091,1341.0
54.092,1696.0
54.093,2153.0
54.094,2867.0
54.095,3069.0
54.096,2726.0
54.097,2319.0
54.098,1575.0
54.099,1285.0
54.1,1446.0
54.101,1658.0
54.102,2075.0
54.103,2023.0
54.104,1651.0
54.105,1226.0
54.106,662.0
54.107,652.0
54.108,1066.0
54.109,1643.0
54.11,2204.0
54.111,2136.0
54.112,1840.0
54.113,1355.0
54.114,891.0
54.115,1059.0
54.116,1429.0
54.117,2091.0
54.118,2617.0
54.119,2434.0
54.12,2149.0
54.121,1577.0
54.122,1143.0
54.123,1386.0
54.124,1732.0
54.125,2368.0
54.126,2748.0
54.127,2401.0
54.128,2085.0
54.129,1460.0
54.13,1141.0
54.131,1467.0
54.132,1818.0
54.133,2532.0
54.134,2724.0
54.135,2334.0
54.136,1975.0
54.137,1324.0
54.138,1154.0
54.139,1523.0
54.14,1944.0
54.141,2596.0
54.142,2687.0
54.143,2291.0
54.144,1843.0
54.145,1265.0
54.146,1245.0
54.147,1582.0
54.148,2065.0
54.149,2671.0
54.15,2598.0
54.151,2235.0
54.152,1723.0
54.153,1227.0
54.154,1291.0
54.155,1627.0
54.156,2157.0
54.157,2703.0
54.158,2513.0
54.159,2176.0
54.16,1595.0
54.161,1170.0
54.162,1402.0
54.163,1760.0
54.164,2356.0
54.165,2808.0
54.166,2523.0
54.167,2173.0
54.168,1572.0
54.169,1256.0
54.17,1572.0
54.171,1964.0
54.172,2621.0
54.173,2889.0
54.174,2549.0
54.175,2151.0
54.176,1511.0
54.177,1356.0
54.178,1715.0
54.179,2136.0
54.18,2776.0
54.181,2910.0
54.182,2512.0
54.183,2031.0
54.184,1486.0
54.185,1409.0
54.186,1771.0
54.187,2254.0
54.188,2789.0
54.189,2781.0
54.19,2420.0
54.191,1904.0
54.192,1349.0
54.193,1436.0
54.194,1734.0
54.195,2282.0
54.196,2777.0
54.197,2602.0
54.198,2276.0
54.199,1663.0
54.2,1185.0
54.201,1377.0
54.202,1712.0
54.203,2290.0
54.204,2729.0
54.205,2457.0
54.206,2132.0
54.207,1493.0
54.208,1120.0
54.209,1414.0
54.21,1773.0
54.211,2432.0
54.212,2642.0
54.213,2319.0
54.214,1989.0
54.215,1304.0
54.216,1096.0
54.217,1448.0
54.218,1854.0
54.219,2508.0
54.22,2627.0
54.221,2275.0
54.222,1847.0
54.223,1232.0
54.224,1136.0
54.225,1501.0
54.226,1983.0
54.227,2548.0
54.228,2544.0
54.229,2206.0
54.23,1728.0
54.231,1177.0
54.232,1216.0
54.233,1551.0
54.234,2116.0
54.235,2597.0
54.236,2455.0
54.237,2187.0
54.238,1604.0
54.239,1089.0
54.24,1288.0
54.241,1619.0
54.242,2221.0
54.243,2639.0
54.244,2383.0
54.245,2077.0
54.246,1475.0
54.247,1071.0
54.248,1375.0
54.249,1714.0
54.25,2387.0
54.251,2648.0
54.252,2290.0
54.253,2006.0
54.254,1338.0
54.255,1098.0
54.256,1420.0
54.257,1806.0
54.258,2488.0
54.259,2578.0
54.26,2251.0
54.261,1861.0
54.262,1237.0
54.263,1143.0
54.264,1456.0
54.265,1957.0
54.266,2534.0
54.267,2552.0
54.268,2192.0
54.269,1723.0
54.27,1176.0
54.271,1192.0
54.272,1516.0
54.273,2081.0
54.274,2586.0
54.275,2441.0
54.276,2121.0
54.277,1589.0
54.278,1095.0
54.279,1270.0
54.28,1594.0
54.281,2172.0
54.282,2597.0
54.283,2318.0
54.284,2007.0
54.285,1445.0
54.286,1057.0
54.287,1299.0
54.288,1627.0
54.289,2277.0
54.29,2555.0
54.291,2222.0
54.292,1881.0
54.293,1276.0
54.294,1027.0
54.295,1322.0
54.296,1730.0
54.297,2390.0
54.298,2513.0
54.299,2126.0
54.3,1730.0
54.301,1155.0
54.302,1015.0
54.303,1340.0
54.304,1819.0
54.305,2393.0
54.306,2416.0
54.307,2050.0
54.308,1576.0
54.309,1082.0
54.31,1102.0
54.311,1395.0
54.312,1910.0
54.313,2436.0
54.314,2284.0
54.315,1995.0
54.316,1429.0
54.317,1023.0
54.318,1179.0
54.319,1469.0
54.32,2021.0
54.321,2485.0
54.322,2228.0
54.323,1925.0
54.324,1318.0
54.325,962.0
54.326,1232.0
54.327,1547.0
54.328,2150.0
54.329,2473.0
54.33,2142.0
54.331,1807.0
54.332,1175.0
54.333,963.0
54.334,1283.0
54.335,1646.0
54.336,2298.0
54.337,2460.0
54.338,2084.0
54.339,1671.0
54.34,1076.0
54.341,997.0
54.342,1317.0
54.343,1745.0
54.344,2330.0
54.345,2370.0
54.346,2013.0
54.347,1542.0
54.348,1012.0
54.349,1057.0
54.35,1368.0
54.351,1827.0
54.352,2349.0
54.353,2243.0
54.354,1935.0
54.355,1389.0
54.356,909.0
54.357,1115.0
54.358,1433.0
54.359,1949.0
54.36,2420.0
54.361,2143.0
54.362,1847.0
54.363,1266.0
54.364,870.0
54.365,1172.0
54.366,1497.0
54.367,2081.0
54.368,2406.0
54.369,2048.0
54.37,1749.0
54.371,1115.0
54.372,851.0
54.373,1218.0
54.374,1576.0
54.375,2222.0
54.376,2382.0
54.377,2010.0
54.378,1625.0
54.379,1015.0
54.38,892.0
54.381,1294.0
54.382,1729.0
54.383,2298.0
54.384,2346.0
54.385,1972.0
54.386,1538.0
54.387,1004.0
54.388,1018.0
54.389,1442.0
54.39,2026.0
54.391,2595.0
54.392,2574.0
54.393,2341.0
54.394,1863.0
54.395,1415.0
54.396,1565.0
54.397,1846.0
54.398,2294.0
54.399,2583.0
54.4,2158.0
54.401,1638.0
54.402,843.0
54.403,298.0
54.404,525.0
54.405,888.0
54.406,1540.0
54.407,1835.0
54.408,1573.0
54.409,1294.0
54.41,722.0
54.411,505.0
54.412,853.0
54.413,1298.0
54.414,2032.0
54.415,2225.0
54.416,1908.0
54.417,1619.0
54.418,1043.0
54.419,967.0
54.42,1349.0
54.421,1846.0
54.422,2437.0
54.423,2455.0
54.424,2100.0
54.425,1654.0
54.426,1105.0
54.427,1101.0
54.428,1417.0
54.429,1966.0
54.43,2493.0
54.431,2362.0
54.432,2047.0
54.433,1543.0
54.434,1016.0
54.435,1152.0
54.436,1501.0
54.437,2104.0
54.438,2558.0
54.439,2320.0
54.44,2007.0
54.441,1420.0
54.442,997.0
54.443,1228.0
54.444,1562.0
54.445,2213.0
54.446,2574.0
54.447,2220.0
54.448,1893.0
54.449,1268.0
54.45,983.0
54.451,1300.0
54.452,1669.0
54.453,2372.0
54.454,2536.0
54.455,2149.0
54.456,1780.0
54.457,1178.0
54.458,1028.0
54.459,1367.0
54.46,1799.0
54.461,2460.0
54.462,2544.0
54.463,2166.0
54.464,1722.0
54.465,1183.0
54.466,1144.0
54.467,1477.0
54.468,1977.0
54.469,2569.0
54.47,2509.0
54.471,2145.0
54.472,1622.0
54.473,1123.0
54.474,1239.0
54.475,1593.0
54.476,2124.0
54.477,2667.0
54.478,2450.0
54.479,2072.0
54.48,1507.0
54.481,1075.0
54.482,1310.0
54.483,1638.0
54.484,2227.0
54.485,2630.0
54.486,2284.0
54.487,1934.0
54.488,1279.0
54.489,977.0
54.49,1289.0
54.491,1656.0
54.492,2290.0
54.493,2523.0
54.494,2126.0
54.495,1707.0
54.496,1044.0
54.497,876.0
54.498,1228.0
54.499,1639.0
54.5,2247.0
54.501,2368.0
54.502,1969.0
54.503,1488.0
54.504,913.0
54.505,855.0
54.506,1213.0
54.507,1695.0
54.508,2246.0
54.509,2236.0
54.51,1905.0
54.511,1360.0
54.512,826.0
54.513,934.0
54.514,1250.0
54.515,1800.0
54.516,2309.0
54.517,2142.0
54.518,1837.0
54.519,1232.0
54.52,784.0
54.521,1035.0
54.522,1359.0
54.523,1977.0
54.524,2375.0
54.525,2092.0
54.526,1796.0
54.527,1148.0
54.528,819.0
54.529,1138.0
54.53,1514.0
54.531,2209.0
54.532,2414.0
54.533,2085.0
54.534,1734.0
54.535,1065.0
54.536,887.0
54.537,1251.0
54.538,1659.0
54.539,2321.0
54.54,2390.0
54.541,2030.0
54.542,1612.0
54.543,1003.0
54.544,929.0
54.545,1300.0
54.546,1811.0
54.547,2383.0
54.548,2340.0
54.549,2027.0
54.55,1533.0
54.551,974.0
54.552,1058.0
54.553,1407.0
54.554,1954.0
54.555,2454.0
54.556,2270.0
54.557,2002.0
54.558,1421.0
54.559,932.0
54.56,1143.0
54.561,1483.0
54.562,2085.0
54.563,2488.0
54.564,2195.0
54.565,1918.0
54.566,1299.0
54.567,895.0
54.568,1198.0
54.569,1568.0
54.57,2255.0
54.571,2472.0
54.572,2099.0
54.573,1791.0
54.574,1140.0
54.575,890.0
54.576,1227.0
54.577,1643.0
54.578,2305.0
54.579,2395.0
54.58,2037.0
54.581,1659.0
54.582,1049.0
54.583,936.0
54.584,1289.0
54.585,1789.0
54.586,2340.0
54.587,2325.0
54.588,1965.0
54.589,1517.0
54.59,962.0
54.591,1010.0
54.592,1329.0
54.593,1891.0
54.594,2401.0
54.595,2241.0
54.596,1914.0
54.597,1388.0
54.598,904.0
54.599,1080.0
54.6,1397.0
54.601,2003.0
54.602,2419.0
54.603,2143.0
54.604,1837.0
54.605,1264.0
54.606,862.0
54.607,1121.0
54.608,1484.0
54.609,2158.0
54.61,2409.0
54.611,2082.0
54.612,1723.0
54.613,1106.0
54.614,905.0
54.615,1197.0
54.616,1589.0
54.617,2258.0
54.618,2391.0
54.619,2020.0
54.62,1604.0
54.621,1061.0
54.622,942.0
54.623,1258.0
54.624,1729.0
54.625,2320.0
54.626,2317.0
54.627,1959.0
54.628,1453.0
54.629,972.0
54.63,1019.0
54.631,1334.0
54.632,1837.0
54.633,2372.0
54.634,2206.0
54.635,1899.0
54.636,1352.0
54.637,907.0
54.638,1078.0
54.639,1386.0
54.64,1942.0
54.641,2422.0
54.642,2134.0
54.643,1822.0
54.644,1224.0
54.645,871.0
54.646,1148.0
54.647,1478.0
54.648,2126.0
54.649,2418.0
54.65,2064.0
54.651,1731.0
54.652,1071.0
54.653,882.0
54.654,1213.0
54.655,1589.0
54.656,2256.0
54.657,2382.0
54.658,1986.0
54.659,1612.0
54.66,992.0
54.661,923.0
54.662,1283.0
54.663,1745.0
54.664,2331.0
54.665,2357.0
54.666,1985.0
54.667,1517.0
54.668,955.0
54.669,1024.0
54.67,1355.0
54.671,1840.0
54.672,2370.0
54.673,2284.0
54.674,1952.0
54.675,1390.0
54.676,906.0
54.677,1081.0
54.678,1419.0
54.679,1984.0
54.68,2446.0
54.681,2185.0
54.682,1889.0
54.683,1283.0
54.684,872.0
54.685,1211.0
54.686,1551.0
54.687,2152.0
54.688,2465.0
54.689,2111.0
54.69,1764.0
54.691,1110.0
54.692,860.0
54.693,1242.0
54.694,1614.0
54.695,2272.0
54.696,2395.0
54.697,2030.0
54.698,1625.0
54.699,1002.0
54.7,865.0
54.701,1289.0
54.702,1732.0
54.703,2295.0
54.704,2321.0
54.705,1980.0
54.706,1504.0
54.707,949.0
54.708,968.0
54.709,1355.0
54.71,1888.0
54.711,2373.0
54.712,2278.0
54.713,1975.0
54.714,1442.0
54.715,1011.0
54.716,1226.0
54.717,1650.0
54.718,2317.0
54.719,2853.0
54.72,2661.0
54.721,2367.0
54.722,1775.0
54.723,1274.0
54.724,1409.0
54.725,1638.0
54.726,2102.0
54.727,2155.0
54.728,1604.0
54.729,1138.0
54.73,472.0
54.731,218.0
54.732,591.0
54.733,1021.0
54.734,1724.0
54.735,1899.0
54.736,1579.0
54.737,1263.0
54.738,707.0
54.739,613.0
54.74,1023.0
54.741,1595.0
54.742,2295.0
54.743,2393.0
54.744,2071.0
54.745,1659.0
54.746,1110.0
54.747,1125.0
54.748,1441.0
54.749,2007.0
54.75,2548.0
54.751,2412.0
54.752,2086.0
54.753,1579.0
54.754,1049.0
54.755,1221.0
54.756,1508.0
54.757,2142.0
54.758,2587.0
54.759,2313.0
54.76,1988.0
54.761,1428.0
54.762,970.0
54.763,1232.0
54.764,1612.0
54.765,2269.0
54.766,2632.0
54.767,2244.0
54.768,1904.0
54.769,1246.0
54.77,972.0
54.771,1321.0
54.772,1681.0
54.773,2383.0
54.774,2563.0
54.775,2158.0
54.776,1776.0
54.777,1161.0
54.778,1015.0
54.779,1373.0
54.78,1806.0
54.781,2475.0
54.782,2503.0
54.783,2093.0
54.784,1615.0
54.785,1086.0
54.786,1089.0
54.787,1439.0
54.788,1932.0
54.789,2509.0
54.79,2426.0
54.791,2087.0
54.792,1544.0
54.793,1048.0
54.794,1178.0
54.795,1516.0
54.796,2075.0
54.797,2593.0
54.798,2353.0
54.799,2026.0
54.8,1444.0
54.801,1016.0
54.802,1289.0
54.803,1631.0
54.804,2209.0
54.805,2606.0
54.806,2284.0
54.807,1908.0
54.808,1264.0
54.809,985.0
54.81,1306.0
54.811,1660.0
54.812,2331.0
54.813,2533.0
54.814,2138.0
54.815,1732.0
54.816,1072.0
54.817,924.0
54.818,1252.0
54.819,1655.0
54.82,2262.0
54.821,2341.0
54.822,1947.0
54.823,1445.0
54.824,865.0
54.825,846.0
54.826,1181.0
54.827,1669.0
54.828,2202.0
54.829,2157.0
54.83,1816.0
54.831,1242.0
54.832,713.0
54.833,832.0
54.834,1170.0
54.835,1716.0
54.836,2211.0
54.837,2036.0
54.838,1709.0
54.839,1086.0
54.84,648.0
54.841,894.0
54.842,1221.0
54.843,1840.0
54.844,2238.0
54.845,1950.0
54.846,1628.0
54.847,966.0
54.848,650.0
54.849,988.0
54.85,1366.0
54.851,2058.0
54.852,2235.0
54.853,1909.0
54.854,1551.0
54.855,887.0
54.856,724.0
54.857,1098.0
54.858,1556.0
54.859,2189.0
54.86,2278.0
54.861,1906.0
54.862,1468.0
54.863,867.0
54.864,814.0
54.865,1193.0
54.866,1722.0
54.867,2306.0
54.868,2233.0
54.869,1896.0
54.87,1377.0
54.871,841.0
54.872,948.0
54.873,1304.0
54.874,1890.0
54.875,2388.0
54.876,2194.0
54.877,1893.0
54.878,1307.0
54.879,826.0
54.88,1088.0
54.881,1429.0
54.882,2060.0
54.883,2453.0
54.884,2146.0
54.885,1872.0
54.886,1249.0
54.887,855.0
54.888,1182.0
54.889,1567.0
54.89,2288.0
54.891,2492.0
54.892,2142.0
54.893,1806.0
54.894,1147.0
54.895,939.0
54.896,1293.0
54.897,1731.0
54.898,2390.0
54.899,2468.0
54.9,2090.0
54.901,1684.0
54.902,1071.0
54.903,978.0
54.904,1325.0
54.905,1853.0
54.906,2420.0
54.907,2400.0
54.908,2043.0
54.909,1570.0
54.91,1032.0
54.911,1066.0
54.912,1397.0
54.913,1985.0
54.914,2487.0
54.915,2274.0
54.916,1963.0
54.917,1421.0
54.918,954.0
54.919,1137.0
54.92,1470.0
54.921,2093.0
54.922,2499.0
54.923,2200.0
54.924,1883.0
54.925,1301.0
54.926,949.0
54.927,1220.0
54.928,1566.0
54.929,2261.0
54.93,2491.0
54.931,2122.0
54.932,1767.0
54.933,1123.0
54.934,936.0
54.935,1245.0
54.936,1656.0
54.937,2306.0
54.938,2434.0
54.939,2073.0
54.94,1639.0
54.941,1063.0
54.942,993.0
54.943,1291.0
54.944,1763.0
54.945,2363.0
54.946,2355.0
54.947,1992.0
54.948,1504.0
54.949,999.0
54.95,1052.0
54.951,1354.0
54.952,1902.0
54.953,2446.0
54.954,2282.0
54.955,1957.0
54.956,1363.0
54.957,933.0
54.958,1150.0
54.959,1442.0
54.96,2034.0
54.961,2467.0
54.962,2159.0
54.963,1852.0
54.964,1228.0
54.965,870.0
54.966,1204.0
54.967,1540.0
54.968,2210.0
54.969,2473.0
54.97,2117.0
54.971,1759.0
54.972,1093.0
54.973,943.0
54.974,1281.0
54.975,1660.0
54.976,2323.0
54.977,2454.0
54.978,2038.0
54.979,1667.0
54.98,1062.0
54.981,1007.0
54.982,1358.0
54.983,1823.0
54.984,2403.0
54.985,2442.0
54.986,2096.0
54.987,1582.0
54.988,1021.0
54.989,1116.0
54.99,1462.0
54.991,1959.0
54.992,2496.0
54.993,2371.0
54.994,2068.0
54.995,1485.0
54.996,1017.0
54.997,1256.0
54.998,1587.0
54.999,2159.0
55.0,2603.0
55.001,2344.0
55.002,2020.0
55.003,1393.0
55.004,1013.0
55.005,1340.0
55.006,1696.0
55.007,2340.0
55.008,2602.0
55.009,2287.0
55.01,1970.0
55.011,1290.0
55.012,1072.0
55.013,1457.0
55.014,1873.0
55.015,2505.0
55.016,2623.0
55.017,2254.0
55.018,1856.0
55.019,1255.0
55.02,1131.0
55.021,1551.0
55.022,2013.0
55.023,2572.0
55.024,2570.0
55.025,2210.0
55.026,1723.0
55.027,1166.0
55.028,1183.0
55.029,1556.0
55.03,2070.0
55.031,2558.0
55.032,2428.0
55.033,2115.0
55.034,1553.0
55.035,1065.0
55.036,1239.0
55.037,1597.0
55.038,2175.0
55.039,2602.0
55.04,2334.0
55.041,2021.0
55.042,1413.0
55.043,1014.0
55.044,1288.0
55.045,1663.0
55.046,2335.0
55.047,2594.0
55.048,2281.0
55.049,1972.0
55.05,1373.0
55.051,1207.0
55.052,1628.0
55.053,2146.0
55.054,2870.0
55.055,3018.0
55.056,2678.0
55.057,2306.0
55.058,1574.0
55.059,1362.0
55.06,1540.0
55.061,1842.0
55.062,2224.0
55.063,2019.0
55.064,1515.0
55.065,1030.0
55.066,497.0
55.067,563.0
55.068,902.0
55.069,1527.0
55.07,2093.0
55.071,1992.0
55.072,1745.0
55.073,1272.0
55.074,831.0
55.075,1060.0
55.076,1488.0
55.077,2188.0
55.078,2697.0
55.079,2480.0
55.08,2226.0
55.081,1664.0
55.082,1281.0
55.083,1552.0
55.084,1914.0
55.085,2550.0
55.086,2866.0
55.087,2526.0
55.088,2204.0
55.089,1574.0
55.09,1325.0
55.091,1663.0
55.092,2057.0
55.093,2754.0
55.094,2898.0
55.095,2483.0
55.096,2093.0
55.097,1476.0
55.098,1348.0
55.099,1722.0
55.1,2180.0
55.101,2813.0
55.102,2850.0
55.103,2465.0
55.104,1994.0
55.105,1462.0
55.106,1471.0
55.107,1798.0
55.108,2311.0
55.109,2884.0
55.11,2770.0
55.111,2455.0
55.112,1881.0
55.113,1397.0
55.114,1565.0
55.115,1907.0
55.116,2431.0
55.117,2963.0
55.118,2711.0
55.119,2375.0
55.12,1771.0
55.121,1384.0
55.122,1670.0
55.123,2019.0
55.124,2614.0
55.125,2992.0
55.126,2673.0
55.127,2324.0
55.128,1672.0
55.129,1419.0
55.13,1742.0
55.131,2147.0
55.132,2818.0
55.133,3011.0
55.134,2653.0
55.135,2254.0
55.136,1606.0
55.137,1477.0
55.138,1833.0
55.139,2274.0
55.14,2889.0
55.141,2993.0
55.142,2603.0
55.143,2106.0
55.144,1544.0
55.145,1522.0
55.146,1871.0
55.147,2370.0
55.148,2910.0
55.149,2822.0
55.15,2481.0
55.151,1868.0
55.152,1343.0
55.153,1484.0
55.154,1806.0
55.155,2362.0
55.156,2834.0
55.157,2602.0
55.158,2276.0
55.159,1653.0
55.16,1191.0
55.161,1453.0
55.162,1786.0
55.163,2414.0
55.164,2741.0
55.165,2434.0
55.166,2104.0
55.167,1420.0
55.168,1125.0
55.169,1472.0
55.17,1847.0
55.171,2519.0
55.172,2687.0
55.173,2332.0
55.174,1959.0
55.175,1287.0
55.176,1136.0
55.177,1515.0
55.178,1959.0
55.179,2599.0
55.18,2665.0
55.181,2298.0
55.182,1842.0
55.183,1231.0
55.184,1195.0
55.185,1578.0
55.186,2111.0
55.187,2639.0
55.188,2585.0
55.189,2278.0
55.19,1750.0
55.191,1201.0
55.192,1355.0
55.193,1679.0
55.194,2278.0
55.195,2753.0
55.196,2541.0
55.197,2229.0
55.198,1629.0
55.199,1165.0
55.2,1431.0
55.201,1779.0
55.202,2421.0
55.203,2786.0
55.204,2493.0
55.205,2169.0
55.206,1549.0
55.207,1210.0
55.208,1521.0
55.209,1902.0
55.21,2603.0
55.211,2799.0
55.212,2414.0
55.213,2060.0
55.214,1431.0
55.215,1226.0
55.216,1580.0
55.217,2039.0
55.218,2675.0
55.219,2761.0
55.22,2395.0
55.221,1986.0
55.222,1387.0
55.223,1327.0
55.224,1661.0
55.225,2199.0
55.226,2750.0
55.227,2686.0
55.228,2355.0
55.229,1855.0
55.23,1325.0
55.231,1417.0
55.232,1733.0
55.233,2341.0
55.234,2824.0
55.235,2627.0
55.236,2305.0
55.237,1747.0
55.238,1290.0
55.239,1478.0
55.24,1827.0
55.241,2456.0
55.242,2822.0
55.243,2538.0
55.244,2218.0
55.245,1624.0
55.246,1274.0
55.247,1532.0
55.248,1923.0
55.249,2608.0
55.25,2817.0
55.251,2468.0
55.252,2075.0
55.253,1436.0
55.254,1310.0
55.255,1589.0
55.256,2024.0
55.257,2672.0
55.258,2785.0
55.259,2391.0
55.26,1960.0
55.261,1376.0
55.262,1325.0
55.263,1663.0
55.264,2132.0
55.265,2704.0
55.266,2673.0
55.267,2344.0
55.268,1812.0
55.269,1320.0
55.27,1404.0
55.271,1701.0
55.272,2262.0
55.273,2789.0
55.274,2600.0
55.275,2309.0
55.276,1689.0
55.277,1252.0
55.278,1487.0
55.279,1805.0
55.28,2386.0
55.281,2816.0
55.282,2504.0
55.283,2188.0
55.284,1538.0
55.285,1241.0
55.286,1565.0
55.287,1888.0
55.288,2570.0
55.289,2820.0
55.29,2421.0
55.291,2078.0
55.292,1412.0
55.293,1264.0
55.294,1637.0
55.295,2004.0
55.296,2654.0
55.297,2782.0
55.298,2389.0
55.299,1955.0
55.3,1346.0
55.301,1319.0
55.302,1692.0
55.303,2139.0
55.304,2700.0
55.305,2693.0
55.306,2339.0
55.307,1824.0
55.308,1286.0
55.309,1400.0
55.31,1728.0
55.311,2250.0
55.312,2768.0
55.313,2604.0
55.314,2273.0
55.315,1724.0
55.316,1240.0
55.317,1494.0
55.318,1804.0
55.319,2367.0
55.32,2777.0
55.321,2508.0
55.322,2214.0
55.323,1588.0
55.324,1210.0
55.325,1559.0
55.326,1914.0
55.327,2542.0
55.328,2815.0
55.329,2448.0
55.33,2095.0
55.331,1416.0
55.332,1215.0
55.333,1572.0
55.334,1980.0
55.335,2633.0
55.336,2719.0
55.337,2338.0
55.338,1920.0
55.339,1304.0
55.34,1215.0
55.341,1607.0
55.342,2090.0
55.343,2636.0
55.344,2624.0
55.345,2273.0
55.346,1771.0
55.347,1232.0
55.348,1276.0
55.349,1624.0
55.35,2195.0
55.351,2682.0
55.352,2501.0
55.353,2206.0
55.354,1610.0
55.355,1160.0
55.356,1380.0
55.357,1774.0
55.358,2426.0
55.359,2905.0
55.36,2662.0
55.361,2448.0
55.362,1902.0
55.363,1549.0
55.364,1924.0
55.365,2327.0
55.366,2961.0
55.367,3099.0
55.368,2606.0
55.369,2070.0
55.37,1190.0
55.371,820.0
55.372,1114.0
55.373,1552.0
55.374,2301.0
55.375,2422.0
55.376,2062.0
55.377,1751.0
55.378,1184.0
55.379,1143.0
55.38,1582.0
55.381,2137.0
55.382,2778.0
55.383,2808.0
55.384,2544.0
55.385,2148.0
55.386,1652.0
55.387,1765.0
55.388,2160.0
55.389,2786.0
55.39,3349.0
55.391,3194.0
55.392,2863.0
55.393,2340.0
55.394,1853.0
55.395,2056.0
55.396,2400.0
55.397,3003.0
55.398,3461.0
55.399,3163.0
55.4,2845.0
55.401,2246.0
55.402,1879.0
55.403,2170.0
55.404,2527.0
55.405,3212.0
55.406,3515.0
55.407,3144.0
55.408,2777.0
55.409,2115.0
55.41,1907.0
55.411,2249.0
55.412,2643.0
55.413,3344.0
55.414,3503.0
55.415,3080.0
55.416,2680.0
55.417,2067.0
55.418,1942.0
55.419,2313.0
55.42,2786.0
55.421,3400.0
55.422,3423.0
55.423,3054.0
55.424,2567.0
55.425,2043.0
55.426,2058.0
55.427,2402.0
55.428,2935.0
55.429,3505.0
55.43,3380.0
55.431,3019.0
55.432,2437.0
55.433,1966.0
55.434,2141.0
55.435,2470.0
55.436,3028.0
55.437,3550.0
55.438,3309.0
55.439,2955.0
55.44,2337.0
55.441,1937.0
55.442,2224.0
55.443,2579.0
55.444,3212.0
55.445,3550.0
55.446,3201.0
55.447,2815.0
55.448,2140.0
55.449,1911.0
55.45,2245.0
55.451,2627.0
55.452,3310.0
55.453,3486.0
55.454,3074.0
55.455,2620.0
55.456,1967.0
55.457,1835.0
55.458,2211.0
55.459,2641.0
55.46,3247.0
55.461,3269.0
55.462,2869.0
55.463,2355.0
55.464,1750.0
55.465,1747.0
55.466,2085.0
55.467,2596.0
55.468,3125.0
55.469,3027.0
55.47,2673.0
55.471,2061.0
55.472,1521.0
55.473,1682.0
55.474,2006.0
55.475,2596.0
55.476,3063.0
55.477,2817.0
55.478,2460.0
55.479,1826.0
55.48,1372.0
55.481,1650.0
55.482,2014.0
55.483,2678.0
55.484,2983.0
55.485,2652.0
55.486,2328.0
55.487,1617.0
55.488,1332.0
55.489,1689.0
55.49,2107.0
55.491,2765.0
55.492,2950.0
55.493,2570.0
55.494,2172.0
55.495,1503.0
55.496,1346.0
55.497,1740.0
55.498,2218.0
55.499,2828.0
55.5,2887.0
55.501,2529.0
55.502,2066.0
55.503,1451.0
55.504,1433.0
55.505,1811.0
55.506,2359.0
55.507,2904.0
55.508,2812.0
55.509,2475.0
55.51,1939.0
55.511,1397.0
55.512,1534.0
55.513,1878.0
55.514,2497.0
55.515,2981.0
55.516,2749.0
55.517,2446.0
55.518,1842.0
55.519,1355.0
55.52,1640.0
55.521,1998.0
55.522,2673.0
55.523,3029.0
55.524,2689.0
55.525,2380.0
55.526,1722.0
55.527,1382.0
55.528,1709.0
55.529,2124.0
55.53,2847.0
55.531,3035.0
55.532,2628.0
55.533,2271.0
55.534,1613.0
55.535,1430.0
55.536,1796.0
55.537,2276.0
55.538,2915.0
55.539,2956.0
55.54,2590.0
55.541,2160.0
55.542,1555.0
55.543,1478.0
55.544,1842.0
55.545,2395.0
55.546,2966.0
55.547,2868.0
55.548,2537.0
55.549,2010.0
55.55,1475.0
55.551,1576.0
55.552,1889.0
55.553,2505.0
55.554,2969.0
55.555,2749.0
55.556,2441.0
55.557,1851.0
55.558,1392.0
55.559,1613.0
55.56,1969.0
55.561,2610.0
55.562,2966.0
55.563,2651.0
55.564,2326.0
55.565,1684.0
55.566,1397.0
55.567,1670.0
55.568,2042.0
55.569,2751.0
55.57,2951.0
55.571,2581.0
55.572,2198.0
55.573,1539.0
55.574,1376.0
55.575,1697.0
55.576,2136.0
55.577,2804.0
55.578,2887.0
55.579,2502.0
55.58,2021.0
55.581,1470.0
55.582,1439.0
55.583,1739.0
55.584,2247.0
55.585,2858.0
55.586,2777.0
55.587,2451.0
55.588,1876.0
55.589,1385.0
55.59,1496.0
55.591,1802.0
55.592,2356.0
55.593,2903.0
55.594,2672.0
55.595,2349.0
55.596,1740.0
55.597,1287.0
55.598,1528.0
55.599,1861.0
55.6,2459.0
55.601,2897.0
55.602,2547.0
55.603,2209.0
55.604,1547.0
55.605,1237.0
55.606,1575.0
55.607,1950.0
55.608,2644.0
55.609,2870.0
55.61,2491.0
55.611,2116.0
55.612,1450.0
55.613,1262.0
55.614,1626.0
55.615,2039.0
55.616,2692.0
55.617,2813.0
55.618,2412.0
55.619,1963.0
55.62,1332.0
55.621,1283.0
55.622,1640.0
55.623,2137.0
55.624,2718.0
55.625,2683.0
55.626,2324.0
55.627,1776.0
55.628,1221.0
55.629,1340.0
55.63,1684.0
55.631,2234.0
55.632,2757.0
55.633,2595.0
55.634,2269.0
55.635,1659.0
55.636,1179.0
55.637,1445.0
55.638,1801.0
55.639,2412.0
55.64,2860.0
55.641,2588.0
55.642,2321.0
55.643,1731.0
55.644,1424.0
55.645,1824.0
55.646,2264.0
55.647,2966.0
55.648,3273.0
55.649,2923.0
55.65,2473.0
55.651,1661.0
55.652,1304.0
55.653,1507.0
55.654,1719.0
55.655,2224.0
55.656,2252.0
55.657,1867.0
55.658,1459.0
55.659,819.0
55.66,732.0
55.661,1163.0
55.662,1696.0
55.663,2339.0
55.664,2361.0
55.665,2063.0
55.666,1575.0
55.667,1039.0
55.668,1169.0
55.669,1613.0
55.67,2254.0
55.671,2817.0
55.672,2682.0
55.673,2372.0
55.674,1792.0
55.675,1302.0
55.676,1503.0
55.677,1874.0
55.678,2517.0
55.679,2921.0
55.68,2598.0
55.681,2295.0
55.682,1660.0
55.683,1274.0
55.684,1564.0
55.685,1972.0
55.686,2674.0
55.687,2920.0
55.688,2545.0
55.689,2155.0
55.69,1490.0
55.691,1269.0
55.692,1627.0
55.693,2092.0
55.694,2763.0
55.695,2877.0
55.696,2476.0
55.697,2039.0
55.698,1405.0
55.699,1281.0
55.7,1647.0
55.701,2195.0
55.702,2801.0
55.703,2786.0
55.704,2421.0
55.705,1933.0
55.706,1350.0
55.707,1398.0
55.708,1753.0
55.709,2334.0
55.71,2889.0
55.711,2703.0
55.712,2390.0
55.713,1803.0
55.714,1280.0
55.715,1465.0
55.716,1820.0
55.717,2479.0
55.718,2946.0
55.719,2620.0
55.72,2296.0
55.721,1681.0
55.722,1274.0
55.723,1567.0
55.724,1929.0
55.725,2659.0
55.726,2950.0
55.727,2557.0
55.728,2170.0
55.729,1503.0
55.73,1279.0
55.731,1606.0
55.732,2008.0
55.733,2714.0
55.734,2873.0
55.735,2441.0
55.736,1982.0
55.737,1352.0
55.738,1249.0
55.739,1598.0
55.74,2056.0
55.741,2656.0
55.742,2677.0
55.743,2270.0
55.744,1714.0
55.745,1150.0
55.746,1151.0
55.747,1506.0
55.748,2041.0
55.749,2611.0
55.75,2469.0
55.751,2098.0
55.752,1457.0
55.753,961.0
55.754,1140.0
55.755,1471.0
55.756,2051.0
55.757,2517.0
55.758,2271.0
55.759,1902.0
55.76,1251.0
55.761,897.0
55.762,1156.0
55.763,1502.0
55.764,2198.0
55.765,2533.0
55.766,2184.0
55.767,1785.0
55.768,1090.0
55.769,868.0
55.77,1241.0
55.771,1636.0
55.772,2322.0
55.773,2489.0
55.774,2085.0
55.775,1648.0
55.776,1021.0
55.777,904.0
55.778,1289.0
55.779,1775.0
55.78,2396.0
55.781,2455.0
55.782,2076.0
55.783,1539.0
55.784,959.0
55.785,1006.0
55.786,1377.0
55.787,1937.0
55.788,2471.0
55.789,2388.0
55.79,2056.0
55.791,1431.0
55.792,922.0
55.793,1102.0
55.794,1440.0
55.795,2077.0
55.796,2549.0
55.797,2324.0
55.798,1981.0
55.799,1331.0
55.8,875.0
55.801,1192.0
55.802,1583.0
55.803,2254.0
55.804,2591.0
55.805,2293.0
55.806,1932.0
55.807,1238.0
55.808,932.0
55.809,1289.0
55.81,1728.0
55.811,2433.0
55.812,2607.0
55.813,2233.0
55.814,1848.0
55.815,1169.0
55.816,1023.0
55.817,1397.0
55.818,1901.0
55.819,2521.0
55.82,2574.0
55.821,2208.0
55.822,1727.0
55.823,1089.0
55.824,1091.0
55.825,1478.0
55.826,2064.0
55.827,2636.0
55.828,2498.0
55.829,2164.0
55.83,1603.0
55.831,1032.0
55.832,1183.0
55.833,1550.0
55.834,2174.0
55.835,2678.0
55.836,2424.0
55.837,2127.0
55.838,1514.0
55.839,1033.0
55.84,1300.0
55.841,1667.0
55.842,2369.0
55.843,2732.0
55.844,2400.0
55.845,2073.0
55.846,1391.0
55.847,1078.0
55.848,1409.0
55.849,1833.0
55.85,2556.0
55.851,2744.0
55.852,2361.0
55.853,1969.0
55.854,1312.0
55.855,1143.0
55.856,1513.0
55.857,2025.0
55.858,2669.0
55.859,2727.0
55.86,2358.0
55.861,1883.0
55.862,1292.0
55.863,1243.0
55.864,1604.0
55.865,2177.0
55.866,2762.0
55.867,2667.0
55.868,2334.0
55.869,1793.0
55.87,1257.0
55.871,1372.0
55.872,1718.0
55.873,2337.0
55.874,2811.0
55.875,2577.0
55.876,2244.0
55.877,1634.0
55.878,1199.0
55.879,1433.0
55.88,1805.0
55.881,2478.0
55.882,2856.0
55.883,2521.0
55.884,2154.0
55.885,1480.0
55.886,1198.0
55.887,1505.0
55.888,1892.0
55.889,2600.0
55.89,2783.0
55.891,2384.0
55.892,1956.0
55.893,1291.0
55.894,1147.0
55.895,1458.0
55.896,1911.0
55.897,2589.0
55.898,2649.0
55.899,2243.0
55.9,1730.0
55.901,1119.0
55.902,1087.0
55.903,1402.0
55.904,1937.0
55.905,2554.0
55.906,2480.0
55.907,2085.0
55.908,1510.0
55.909,995.0
55.91,1112.0
55.911,1449.0
55.912,2035.0
55.913,2583.0
55.914,2354.0
55.915,2038.0
55.916,1406.0
55.917,942.0
55.918,1205.0
55.919,1609.0
55.92,2333.0
55.921,2802.0
55.922,2552.0
55.923,2239.0
55.924,1594.0
55.925,1320.0
55.926,1702.0
55.927,2021.0
55.928,2621.0
55.929,2734.0
55.93,2146.0
55.931,1505.0
55.932,624.0
55.933,347.0
55.934,693.0
55.935,1122.0
55.936,1806.0
55.937,1878.0
55.938,1515.0
55.939,1088.0
55.94,517.0
55.941,550.0
55.942,985.0
55.943,1555.0
55.944,2227.0
55.945,2217.0
55.946,1916.0
55.947,1405.0
55.948,877.0
55.949,1057.0
55.95,1444.0
55.951,2039.0
55.952,2555.0
55.953,2405.0
55.954,2051.0
55.955,1392.0
55.956,905.0
55.957,1193.0
55.958,1546.0
55.959,2186.0
55.96,2600.0
55.961,2279.0
55.962,1894.0
55.963,1215.0
55.964,877.0
55.965,1217.0
55.966,1612.0
55.967,2300.0
55.968,2521.0
55.969,2148.0
55.97,1757.0
55.971,1050.0
55.972,853.0
55.973,1254.0
55.974,1713.0
55.975,2331.0
55.976,2444.0
55.977,2062.0
55.978,1606.0
55.979,982.0
55.98,912.0
55.981,1314.0
55.982,1854.0
55.983,2462.0
55.984,2422.0
55.985,2051.0
55.986,1508.0
55.987,924.0
55.988,1018.0
55.989,1384.0
55.99,2000.0
55.991,2527.0
55.992,2340.0
55.993,2011.0
55.994,1386.0
55.995,884.0
55.996,1112.0
55.997,1508.0
55.998,2208.0
55.999,2643.0
56.0,2307.0
56.001,1974.0
56.002,1308.0
56.003,942.0
56.004,1263.0
56.005,1679.0
56.006,2424.0
56.007,2659.0
56.008,2281.0
56.009,1890.0
56.01,1191.0
56.011,978.0
56.012,1328.0
56.013,1811.0
56.014,2516.0
56.015,2612.0
56.016,2173.0
56.017,1711.0
56.018,1076.0
56.019,969.0
56.02,1343.0
56.021,1883.0
56.022,2503.0
56.023,2444.0
56.024,2054.0
56.025,1502.0
56.026,925.0
56.027,978.0
56.028,1320.0
56.029,1953.0
56.03,2479.0
56.031,2266.0
56.032,1902.0
56.033,1312.0
56.034,806.0
56.035,1014.0
56.036,1389.0
56.037,2048.0
56.038,2529.0
56.039,2193.0
56.04,1840.0
56.041,1167.0
56.042,807.0
56.043,1090.0
56.044,1476.0
56.045,2219.0
56.046,2508.0
56.047,2121.0
56.048,1712.0
56.049,1049.0
56.05,851.0
56.051,1213.0
56.052,1658.0
56.053,2388.0
56.054,2531.0
56.055,2113.0
56.056,1655.0
56.057,1041.0
56.058,956.0
56.059,1301.0
56.06,1813.0
56.061,2477.0
56.062,2473.0
56.063,2102.0
56.064,1557.0
56.065,1023.0
56.066,1074.0
56.067,1415.0
56.068,1999.0
56.069,2591.0
56.07,2442.0
56.071,2096.0
56.072,1453.0
56.073,965.0
56.074,1184.0
56.075,1540.0
56.076,2195.0
56.077,2712.0
56.078,2410.0
56.079,2070.0
56.08,1379.0
56.081,1001.0
56.082,1319.0
56.083,1711.0
56.084,2444.0
56.085,2767.0
56.086,2415.0
56.087,1992.0
56.088,1265.0
56.089,1053.0
56.09,1422.0
56.091,1879.0
56.092,2604.0
56.093,2773.0
56.094,2359.0
56.095,1892.0
56.096,1242.0
56.097,1136.0
56.098,1525.0
56.099,2034.0
56.1,2670.0
56.101,2705.0
56.102,2337.0
56.103,1797.0
56.104,1189.0
56.105,1247.0
56.106,1606.0
56.107,2189.0
56.108,2753.0
56.109,2622.0
56.11,2292.0
56.111,1651.0
56.112,1133.0
56.113,1344.0
56.114,1711.0
56.115,2336.0
56.116,2813.0
56.117,2532.0
56.118,2201.0
56.119,1515.0
56.12,1077.0
56.121,1377.0
56.122,1790.0
56.123,2509.0
56.124,2842.0
56.125,2477.0
56.126,2092.0
56.127,1369.0
56.128,1079.0
56.129,1460.0
56.13,1915.0
56.131,2618.0
56.132,2780.0
56.133,2399.0
56.134,1976.0
56.135,1290.0
56.136,1146.0
56.137,1542.0
56.138,2016.0
56.139,2662.0
56.14,2685.0
56.141,2343.0
56.142,1818.0
56.143,1173.0
56.144,1171.0
56.145,1575.0
56.146,2156.0
56.147,2724.0
56.148,2588.0
56.149,2265.0
56.15,1680.0
56.151,1122.0
56.152,1299.0
56.153,1658.0
56.154,2311.0
56.155,2777.0
56.156,2488.0
56.157,2176.0
56.158,1526.0
56.159,1052.0
56.16,1345.0
56.161,1720.0
56.162,2429.0
56.163,2774.0
56.164,2409.0
56.165,2057.0
56.166,1353.0
56.167,1031.0
56.168,1378.0
56.169,1846.0
56.17,2564.0
56.171,2740.0
56.172,2325.0
56.173,1904.0
56.174,1253.0
56.175,1067.0
56.176,1436.0
56.177,1949.0
56.178,2578.0
56.179,2611.0
56.18,2236.0
56.181,1737.0
56.182,1145.0
56.183,1106.0
56.184,1450.0
56.185,2044.0
56.186,2597.0
56.187,2511.0
56.188,2152.0
56.189,1570.0
56.19,1043.0
56.191,1164.0
56.192,1524.0
56.193,2180.0
56.194,2666.0
56.195,2418.0
56.196,2090.0
56.197,1461.0
56.198,1028.0
56.199,1268.0
56.2,1679.0
56.201,2458.0
56.202,2865.0
56.203,2609.0
56.204,2326.0
56.205,1696.0
56.206,1489.0
56.207,1811.0
56.208,2207.0
56.209,2818.0
56.21,2876.0
56.211,2338.0
56.212,1716.0
56.213,840.0
56.214,517.0
56.215,763.0
56.216,1185.0
56.217,1897.0
56.218,1955.0
56.219,1624.0
56.22,1159.0
56.221,650.0
56.222,715.0
56.223,1089.0
56.224,1707.0
56.225,2390.0
56.226,2331.0
56.227,2072.0
56.228,1551.0
56.229,1085.0
56.23,1302.0
56.231,1659.0
56.232,2277.0
56.233,2833.0
56.234,2576.0
56.235,2228.0
56.236,1562.0
56.237,1124.0
56.238,1422.0
56.239,1793.0
56.24,2464.0
56.241,2875.0
56.242,2512.0
56.243,2161.0
56.244,1450.0
56.245,1153.0
56.246,1517.0
56.247,1910.0
56.248,2611.0
56.249,2854.0
56.25,2451.0
56.251,2034.0
56.252,1349.0
56.253,1190.0
56.254,1576.0
56.255,1992.0
56.256,2671.0
56.257,2803.0
56.258,2385.0
56.259,1890.0
56.26,1258.0
56.261,1266.0
56.262,1637.0
56.263,2157.0
56.264,2788.0
56.265,2694.0
56.266,2340.0
56.267,1741.0
56.268,1166.0
56.269,1344.0
56.27,1683.0
56.271,2303.0
56.272,2830.0
56.273,2634.0
56.274,2260.0
56.275,1629.0
56.276,1131.0
56.277,1439.0
56.278,1798.0
56.279,2464.0
56.28,2862.0
56.281,2545.0
56.282,2188.0
56.283,1483.0
56.284,1156.0
56.285,1510.0
56.286,1936.0
56.287,2648.0
56.288,2870.0
56.289,2496.0
56.29,2073.0
56.291,1370.0
56.292,1196.0
56.293,1587.0
56.294,2059.0
56.295,2717.0
56.296,2798.0
56.297,2379.0
56.298,1886.0
56.299,1238.0
56.3,1168.0
56.301,1540.0
56.302,2094.0
56.303,2661.0
56.304,2573.0
56.305,2233.0
56.306,1641.0
56.307,1034.0
56.308,1153.0
56.309,1511.0
56.31,2128.0
56.311,2637.0
56.312,2393.0
56.313,2064.0
56.314,1427.0
56.315,890.0
56.316,1151.0
56.317,1522.0
56.318,2208.0
56.319,2628.0
56.32,2283.0
56.321,1914.0
56.322,1225.0
56.323,844.0
56.324,1166.0
56.325,1619.0
56.326,2379.0
56.327,2595.0
56.328,2217.0
56.329,1824.0
56.33,1108.0
56.331,926.0
56.332,1298.0
56.333,1794.0
56.334,2491.0
56.335,2588.0
56.336,2177.0
56.337,1713.0
56.338,1067.0
56.339,980.0
56.34,1361.0
56.341,1947.0
56.342,2567.0
56.343,2497.0
56.344,2121.0
56.345,1569.0
56.346,994.0
56.347,1084.0
56.348,1466.0
56.349,2124.0
56.35,2684.0
56.351,2436.0
56.352,2076.0
56.353,1465.0
56.354,954.0
56.355,1190.0
56.356,1579.0
56.357,2243.0
56.358,2691.0
56.359,2360.0
56.36,1999.0
56.361,1306.0
56.362,961.0
56.363,1267.0
56.364,1697.0
56.365,2445.0
56.366,2734.0
56.367,2354.0
56.368,1919.0
56.369,1210.0
56.37,1010.0
56.371,1362.0
56.372,1842.0
56.373,2541.0
56.374,2690.0
56.375,2264.0
56.376,1794.0
56.377,1170.0
56.378,1099.0
56.379,1466.0
56.38,1976.0
56.381,2625.0
56.382,2614.0
56.383,2223.0
56.384,1643.0
56.385,1087.0
56.386,1159.0
56.387,1503.0
56.388,2103.0
56.389,2696.0
56.39,2516.0
56.391,2140.0
56.392,1495.0
56.393,995.0
56.394,1203.0
56.395,1582.0
56.396,2234.0
56.397,2716.0
56.398,2415.0
56.399,2043.0
56.4,1361.0
56.401,982.0
56.402,1302.0
56.403,1705.0
56.404,2423.0
56.405,2713.0
56.406,2347.0
56.407,1932.0
56.408,1224.0
56.409,1015.0
56.41,1360.0
56.411,1801.0
56.412,2520.0
56.413,2671.0
56.414,2285.0
56.415,1793.0
56.416,1113.0
56.417,1011.0
56.418,1423.0
56.419,1946.0
56.42,2590.0
56.421,2609.0
56.422,2218.0
56.423,1633.0
56.424,1040.0
56.425,1095.0
56.426,1482.0
56.427,2073.0
56.428,2653.0
56.429,2496.0
56.43,2143.0
56.431,1504.0
56.432,967.0
56.433,1191.0
56.434,1550.0
56.435,2194.0
56.436,2672.0
56.437,2391.0
56.438,2056.0
56.439,1345.0
56.44,941.0
56.441,1273.0
56.442,1674.0
56.443,2385.0
56.444,2672.0
56.445,2308.0
56.446,1929.0
56.447,1205.0
56.448,939.0
56.449,1310.0
56.45,1761.0
56.451,2448.0
56.452,2601.0
56.453,2219.0
56.454,1770.0
56.455,1084.0
56.456,950.0
56.457,1355.0
56.458,1884.0
56.459,2516.0
56.46,2525.0
56.461,2158.0
56.462,1642.0
56.463,1012.0
56.464,1053.0
56.465,1415.0
56.466,2010.0
56.467,2582.0
56.468,2421.0
56.469,2083.0
56.47,1462.0
56.471,896.0
56.472,1083.0
56.473,1458.0
56.474,2110.0
56.475,2587.0
56.476,2262.0
56.477,1950.0
56.478,1301.0
56.479,829.0
56.48,1125.0
56.481,1525.0
56.482,2285.0
56.483,2585.0
56.484,2217.0
56.485,1854.0
56.486,1139.0
56.487,841.0
56.488,1194.0
56.489,1662.0
56.49,2390.0
56.491,2558.0
56.492,2137.0
56.493,1728.0
56.494,1099.0
56.495,950.0
56.496,1369.0
56.497,1963.0
56.498,2662.0
56.499,2767.0
56.5,2479.0
56.501,2006.0
56.502,1454.0
56.503,1461.0
56.504,1763.0
56.505,2249.0
56.506,2697.0
56.507,2391.0
56.508,1804.0
56.509,1008.0
56.51,290.0
56.511,394.0
56.512,726.0
56.513,1447.0
56.514,1967.0
56.515,1757.0
56.516,1439.0
56.517,849.0
56.518,496.0
56.519,812.0
56.52,1253.0
56.521,2031.0
56.522,2437.0
56.523,2149.0
56.524,1843.0
56.525,1181.0
56.526,996.0
56.527,1349.0
56.528,1786.0
56.529,2532.0
56.53,2706.0
56.531,2323.0
56.532,1867.0
56.533,1202.0
56.534,1081.0
56.535,1420.0
56.536,1897.0
56.537,2573.0
56.538,2617.0
56.539,2243.0
56.54,1715.0
56.541,1124.0
56.542,1128.0
56.543,1462.0
56.544,2027.0
56.545,2640.0
56.546,2504.0
56.547,2155.0
56.548,1562.0
56.549,1022.0
56.55,1191.0
56.551,1528.0
56.552,2154.0
56.553,2714.0
56.554,2466.0
56.555,2117.0
56.556,1459.0
56.557,1018.0
56.558,1293.0
56.559,1641.0
56.56,2341.0
56.561,2741.0
56.562,2368.0
56.563,1990.0
56.564,1280.0
56.565,1009.0
56.566,1372.0
56.567,1770.0
56.568,2483.0
56.569,2714.0
56.57,2283.0
56.571,1840.0
56.572,1165.0
56.573,992.0
56.574,1402.0
56.575,1870.0
56.576,2525.0
56.577,2602.0
56.578,2176.0
56.579,1672.0
56.58,1054.0
56.581,1048.0
56.582,1424.0
56.583,1954.0
56.584,2530.0
56.585,2441.0
56.586,2069.0
56.587,1465.0
56.588,903.0
56.589,1057.0
56.59,1387.0
56.591,1977.0
56.592,2485.0
56.593,2236.0
56.594,1860.0
56.595,1175.0
56.596,687.0
56.597,922.0
56.598,1277.0
56.599,1919.0
56.6,2260.0
56.601,1907.0
56.602,1504.0
56.603,762.0
56.604,403.0
56.605,734.0
56.606,1132.0
56.607,1826.0
56.608,1997.0
56.609,1586.0
56.61,1138.0
56.611,422.0
56.612,227.0
56.613,606.0
56.614,1087.0
56.615,1741.0
56.616,1796.0
56.617,1427.0
56.618,911.0
56.619,243.0
56.62,187.0
56.621,562.0
56.622,1139.0
56.623,1755.0
56.624,1663.0
56.625,1328.0
56.626,745.0
56.627,151.0
56.628,293.0
56.629,648.0
56.63,1272.0
56.631,1786.0
56.632,1560.0
56.633,1233.0
56.634,578.0
56.635,49.0
56.636,295.0
56.637,689.0
56.638,1419.0
56.639,1804.0
56.64,1459.0
56.641,1111.0
56.642,425.0
56.643,77.0
56.644,441.0
56.645,866.0
56.646,1630.0
56.647,1843.0
56.648,1443.0
56.649,1056.0
56.65,346.0
56.651,164.0
56.652,565.0
56.653,1089.0
56.654,1817.0
56.655,1873.0
56.656,1464.0
56.657,981.0
56.658,354.0
56.659,299.0
56.66,684.0
56.661,1293.0
56.662,1966.0
56.663,1889.0
56.664,1512.0
56.665,934.0
56.666,379.0
56.667,489.0
56.668,869.0
56.669,1549.0
56.67,2147.0
56.671,1903.0
56.672,1539.0
56.673,916.0
56.674,404.0
56.675,660.0
56.676,1066.0
56.677,1823.0
56.678,2274.0
56.679,1918.0
56.68,1533.0
56.681,825.0
56.682,490.0
56.683,868.0
56.684,1286.0
56.685,2086.0
56.686,2357.0
56.687,1941.0
56.688,1515.0
56.689,803.0
56.69,610.0
56.691,992.0
56.692,1518.0
56.693,2295.0
56.694,2434.0
56.695,1999.0
56.696,1439.0
56.697,799.0
56.698,728.0
56.699,1122.0
56.7,1733.0
56.701,2468.0
56.702,2469.0
56.703,2057.0
56.704,1403.0
56.705,817.0
56.706,941.0
56.707,1329.0
56.708,1986.0
56.709,2626.0
56.71,2459.0
56.711,2131.0
56.712,1442.0
56.713,942.0
56.714,1217.0
56.715,1636.0
56.716,2362.0
56.717,2888.0
56.718,2551.0
56.719,2124.0
56.72,1361.0
56.721,970.0
56.722,1338.0
56.723,1767.0
56.724,2592.0
56.725,2904.0
56.726,2513.0
56.727,2031.0
56.728,1242.0
56.729,990.0
56.73,2519.0
56.731,2033.0
56.732,2726.0
56.733,2917.0
56.734,2518.0
56.735,1971.0
56.736,1258.0
56.737,1193.0
56.738,1649.0
56.739,2305.0
56.74,3081.0
56.741,3136.0
56.742,2791.0
56.743,2156.0
56.744,1515.0
56.745,1642.0
56.746,2088.0
56.747,2822.0
56.748,3524.0
56.749,3384.0
56.75,4079.0
56.751,4081.0
56.752,3224.0
56.753,2406.0
56.754,2116.0
56.755,2868.0
56.756,3545.0
56.757,3348.0
56.758,3114.0
56.759,2467.0
56.76,2123.0
56.761,2723.0
56.762,3380.0
56.763,4078.0
56.764,4064.0
56.765,4055.0
56.766,4076.0
56.767,4052.0
56.768,4067.0
56.769,4072.0
56.77,4079.0
56.771,4081.0
56.772,4079.0
56.773,4082.0
56.774,4080.0
56.775,4082.0
56.776,4067.0
56.777,4080.0
56.778,4079.0
56.779,4075.0
56.78,4079.0
56.781,4076.0
56.782,4051.0
56.783,4080.0
56.784,4078.0
56.785,4082.0
56.786,4079.0
56.787,4078.0
56.788,4078.0
56.789,4079.0
56.79,4083.0
56.791,4081.0
56.792,4080.0
56.793,4081.0
56.794,4079.0
56.795,4077.0
56.796,4079.0
56.797,4079.0
56.798,4076.0
56.799,4079.0
56.8,4080.0
56.801,4082.0
56.802,4079.0
56.803,4078.0
56.804,4081.0
56.805,4080.0
56.806,4080.0
56.807,4078.0
56.808,4079.0
56.809,4077.0
56.81,4077.0
56.811,4080.0
56.812,4080.0
56.813,4079.0
56.814,4079.0
56.815,4079.0
56.816,4077.0
56.817,4079.0
56.818,4076.0
56.819,4078.0
56.82,4081.0
56.821,4080.0
56.822,4081.0
56.823,4079.0
56.824,4078.0
56.825,4079.0
56.826,4079.0
56.827,4081.0
56.828,4080.0
56.829,4082.0
56.83,2.0
56.831,0.0
56.832,4.0
56.833,2.0
56.834,0.0
56.835,5.0
56.836,1.0
56.837,0.0
56.838,5.0
56.839,4.0
56.84,3.0
56.841,4.0
56.842,3.0
56.843,52.0
56.844,52.0
56.845,4077.0
56.846,4077.0
56.847,4077.0
56.848,4080.0
56.849,4078.0
56.85,4081.0
56.851,4080.0
56.852,4078.0
56.853,4081.0
56.854,4081.0
56.855,4078.0
56.856,4077.0
56.857,4080.0
56.858,4080.0
56.859,4080.0
56.86,4077.0
56.861,4078.0
56.862,4077.0
56.863,4080.0
56.864,4.0
56.865,5.0
56.866,4.0
56.867,4.0
56.868,4.0
56.869,3.0
56.87,2.0
56.871,5.0
56.872,2.0
56.873,2.0
56.874,4.0
56.875,3.0
56.876,2.0
56.877,4.0
56.878,1.0
56.879,6.0
56.88,2.0
56.881,3.0
56.882,4.0
56.883,3.0
56.884,1.0
56.885,2.0
56.886,2.0
56.887,4.0
56.888,2.0
56.889,4.0
56.89,3.0
56.891,0.0
56.892,2.0
56.893,2.0
56.894,6.0
56.895,4.0
56.896,2.0
56.897,4.0
56.898,3.0
56.899,3.0
56.9,4.0
56.901,4.0
56.902,6.0
56.903,3.0
56.904,4.0
56.905,5.0
56.906,2.0
56.907,5.0
56.908,4.0
56.909,4.0
56.91,3.0
56.911,4081.0
56.912,4080.0
56.913,4080.0
56.914,4076.0
56.915,5.0
56.916,3.0
56.917,7.0
56.918,6.0
56.919,4083.0
56.92,232.0
56.921,7.0
56.922,1.0
56.923,4.0
56.924,5.0
56.925,7.0
56.926,4081.0
56.927,4075.0
56.928,4080.0
56.929,4079.0
56.93,2.0
56.931,8.0
56.932,5.0
56.933,1.0
56.934,4077.0
56.935,4077.0
56.936,4079.0
56.937,4080.0
56.938,8.0
56.939,6.0
56.94,1.0
56.941,3.0
56.942,4081.0
56.943,4080.0
56.944,4076.0
56.945,4076.0
56.946,2.0
56.947,6.0
56.948,3.0
56.949,5.0
56.95,4079.0
56.951,4075.0
56.952,4078.0
56.953,4.0
56.954,4.0
56.955,7.0
56.956,2.0
56.957,4.0
56.958,4080.0
56.959,4082.0
56.96,4077.0
56.961,3.0
56.962,3.0
56.963,4.0
56.964,2.0
56.965,2.0
56.966,4076.0
56.967,4076.0
56.968,2.0
56.969,2.0
56.97,2.0
56.971,4.0
56.972,5.0
56.973,3727.0
56.974,4081.0
56.975,4079.0
56.976,2.0
56.977,4.0
56.978,3.0
56.979,4.0
56.98,3.0
56.981,4079.0
56.982,4080.0
56.983,4078.0
56.984,3.0
56.985,4.0
56.986,7.0
56.987,4.0
56.988,5.0
56.989,4078.0
56.99,4079.0
56.991,4079.0
56.992,0.0
56.993,0.0
56.994,7.0
56.995,4.0
56.996,1.0
56.997,4081.0
56.998,4081.0
56.999,4079.0
57.0,3.0
57.001,2.0
57.002,5.0
57.003,7.0
57.004,4.0
57.005,4081.0
57.006,4080.0
57.007,4080.0
57.008,0.0
57.009,6.0
57.01,2.0
57.011,1.0
57.012,3633.0
57.013,4081.0
57.014,4075.0
57.015,4083.0
57.016,8.0
57.017,6.0
57.018,5.0
57.019,3.0
57.02,4083.0
57.021,4081.0
57.022,4078.0
57.023,4078.0
57.024,1.0
57.025,7.0
57.026,2.0
57.027,5.0
57.028,4080.0
57.029,4078.0
57.03,4076.0
57.031,4079.0
57.032,5.0
57.033,7.0
57.034,4.0
57.035,1.0
57.036,4075.0
57.037,4080.0
57.038,4078.0
57.039,4077.0
57.04,3.0
57.041,4.0
57.042,1.0
57.043,1.0
57.044,4073.0
57.045,4080.0
57.046,4077.0
57.047,4078.0
57.048,3.0
57.049,7.0
57.05,5.0
57.051,4081.0
57.052,4082.0
57.053,4078.0
57.054,4075.0
57.055,4078.0
57.056,7.0
57.057,6.0
57.058,4.0
57.059,4077.0
57.06,4080.0
57.061,4080.0
57.062,4077.0
57.063,6.0
57.064,3.0
57.065,7.0
57.066,6.0
57.067,4085.0
57.068,4080.0
57.069,4077.0
57.07,4074.0
57.071,2.0
57.072,3.0
57.073,8.0
57.074,5.0
57.075,4083.0
57.076,4081.0
57.077,4074.0
57.078,4078.0
57.079,4.0
57.08,3.0
57.081,7.0
57.082,8.0
57.083,4085.0
57.084,4078.0
57.085,4082.0
57.086,4078.0
57.087,5.0
57.088,2.0
57.089,0.0
57.09,4081.0
57.091,4073.0
57.092,4074.0
57.093,4077.0
57.094,6.0
57.095,3.0
57.096,3.0
57.097,26.0
57.098,4077.0
57.099,4077.0
57.1,4077.0
57.101,5.0
57.102,1.0
57.103,5.0
57.104,4.0
57.105,2.0
57.106,4082.0
57.107,4075.0
57.108,4079.0
57.109,2.0
57.11,5.0
57.111,2.0
57.112,0.0
57.113,4076.0
57.114,4082.0
57.115,4077.0
57.116,6.0
57.117,4.0
57.118,3.0
57.119,7.0
57.12,4.0
57.121,4078.0
57.122,4083.0
57.123,4079.0
57.124,3.0
57.125,3.0
57.126,7.0
57.127,9.0
57.128,3.0
57.129,4080.0
57.13,4079.0
57.131,4079.0
57.132,3.0
57.133,2.0
57.134,3.0
57.135,4.0
57.136,514.0
57.137,4075.0
57.138,4075.0
57.139,4081.0
57.14,6.0
57.141,5.0
57.142,4.0
57.143,2.0
57.144,4077.0
57.145,4095.0
57.146,4082.0
57.147,4079.0
57.148,6.0
57.149,5.0
57.15,1.0
57.151,3.0
57.152,3.0
57.153,4081.0
57.154,4077.0
57.155,2.0
57.156,3.0
57.157,7.0
57.158,0.0
57.159,1.0
57.16,4075.0
57.161,4082.0
57.162,4078.0
57.163,1.0
57.164,1.0
57.165,2.0
57.166,4.0
57.167,3.0
57.168,4085.0
57.169,4081.0
57.17,4077.0
57.171,4.0
57.172,6.0
57.173,6.0
57.174,3.0
57.175,8.0
57.176,4078.0
57.177,4078.0
57.178,4081.0
57.179,3.0
57.18,3.0
57.181,4.0
57.182,5.0
57.183,0.0
57.184,4077.0
57.185,4077.0
57.186,4078.0
57.187,8.0
57.188,0.0
57.189,6.0
57.19,3.0
57.191,1001.0
57.192,4076.0
57.193,4079.0
57.194,4075.0
57.195,3.0
57.196,3.0
57.197,0.0
57.198,2.0
57.199,4078.0
57.2,4080.0
57.201,4084.0
57.202,4084.0
57.203,4078.0
57.204,1.0
57.205,7.0
57.206,4.0
57.207,4081.0
57.208,4077.0
57.209,4076.0
57.21,4084.0
57.211,4081.0
57.212,2.0
57.213,1.0
57.214,5.0
57.215,4076.0
57.216,4075.0
57.217,4078.0
57.218,4081.0
57.219,8.0
57.22,3.0
57.221,3.0
57.222,5.0
57.223,4077.0
57.224,4080.0
57.225,4077.0
57.226,4081.0
57.227,3.0
57.228,2.0
57.229,5.0
57.23,1.0
57.231,4076.0
57.232,4079.0
57.233,4077.0
57.234,4082.0
57.235,3.0
57.236,0.0
57.237,8.0
57.238,6.0
57.239,4079.0
57.24,4080.0
57.241,4076.0
57.242,4081.0
57.243,5.0
57.244,7.0
57.245,1.0
57.246,4080.0
57.247,4079.0
57.248,4079.0
57.249,4081.0
57.25,1.0
57.251,4.0
57.252,6.0
57.253,2.0
57.254,4077.0
57.255,4078.0
57.256,4078.0
57.257,7.0
57.258,0.0
57.259,2.0
57.26,0.0
57.261,0.0
57.262,4080.0
57.263,4084.0
57.264,4095.0
57.265,3.0
57.266,8.0
57.267,0.0
57.268,2.0
57.269,7.0
57.27,4078.0
57.271,4060.0
57.272,3229.0
57.273,0.0
57.274,1.0
57.275,2.0
57.276,6.0
57.277,3.0
57.278,4089.0
57.279,4086.0
57.28,0.0
57.281,2.0
57.282,0.0
57.283,3.0
57.284,6.0
57.285,4080.0
57.286,4077.0
57.287,4078.0
57.288,4.0
57.289,5.0
57.29,2.0
57.291,5.0
57.292,5.0
57.293,4076.0
57.294,4082.0
57.295,4077.0
57.296,4.0
57.297,3.0
57.298,4.0
57.299,5.0
57.3,6.0
57.301,4080.0
57.302,4080.0
57.303,4080.0
57.304,3.0
57.305,4.0
57.306,4.0
57.307,7.0
57.308,5.0
57.309,4078.0
57.31,4079.0
57.311,4077.0
57.312,7.0
57.313,2.0
57.314,3.0
57.315,5.0
57.316,4.0
57.317,4076.0
57.318,4080.0
57.319,4075.0
57.32,4.0
57.321,4.0
57.322,2.0
57.323,3.0
57.324,4083.0
57.325,4079.0
57.326,4080.0
57.327,5.0
57.328,1.0
57.329,2.0
57.33,5.0
57.331,4.0
57.332,4077.0
57.333,4078.0
57.334,4077.0
57.335,2.0
57.336,5.0
57.337,5.0
57.338,1.0
57.339,5.0
57.34,4079.0
57.341,4077.0
57.342,4077.0
57.343,4080.0
57.344,5.0
57.345,5.0
57.346,2.0
57.347,1.0
57.348,4076.0
57.349,4083.0
57.35,4079.0
57.351,4084.0
57.352,2.0
57.353,4.0
57.354,4.0
57.355,5.0
57.356,4078.0
57.357,4080.0
57.358,4077.0
57.359,4079.0
57.36,4.0
57.361,3.0
57.362,4.0
57.363,5.0
57.364,4082.0
57.365,4080.0
57.366,4084.0
57.367,4078.0
57.368,3.0
57.369,2.0
57.37,1.0
57.371,4081.0
