402.066999997,2116.0
402.067999997,2164.0
402.068999997,2116.0
402.069999997,2058.0
402.070999997,1968.0
402.071999997,1921.0
402.072999997,1980.0
402.073999997,2051.0
402.074999997,2142.0
402.075999997,2167.0
402.076999997,2114.0
402.077999997,2044.0
402.078999997,1947.0
402.079999997,1923.0
402.080999997,1983.0
402.081999997,2054.0
402.082999997,2152.0
402.083999997,2150.0
402.084999997,2094.0
402.085999997,2025.0
402.086999997,1950.0
402.087999997,1937.0
402.088999997,2002.0
402.089999997,2075.0
402.090999997,2153.0
402.091999997,2115.0
402.092999997,2091.0
402.093999997,2006.0
402.094999997,1928.0
402.095999997,1949.0
402.096999997,1991.0
402.097999997,2099.0
402.098999997,2169.0
402.099999997,2124.0
402.100999997,2070.0
402.101999997,1984.0
402.102999997,1900.0
402.103999997,1961.0
402.104999997,2017.0
402.105999997,2129.0
402.106999997,2174.0
402.107999997,2122.0
402.108999997,2065.0
402.109999997,1974.0
402.110999997,1924.0
402.111999997,1972.0
402.112999997,2041.0
402.113999997,2143.0
402.114999997,2164.0
402.115999997,2098.0
402.116999997,2042.0
402.117999997,1951.0
402.118999997,1918.0
402.119999997,1982.0
402.120999997,2059.0
402.121999997,2157.0
402.122999997,2159.0
402.123999997,2101.0
402.124999997,2022.0
402.125999997,1964.0
402.126999997,1947.0
402.127999997,2008.0
402.128999997,2073.0
402.129999997,2156.0
402.130999997,2141.0
402.131999997,2094.0
402.132999997,2007.0
402.133999997,1937.0
402.134999997,1939.0
402.135999997,2000.0
402.136999997,2094.0
402.137999997,2159.0
402.138999997,2111.0
402.139999997,2071.0
402.140999997,1994.0
402.141999997,1930.0
402.142999997,1966.0
402.143999997,2016.0
402.144999997,2115.0
402.145999997,2177.0
402.146999997,2114.0
402.147999997,2060.0
402.148999997,1956.0
402.149999997,1928.0
402.150999997,1972.0
402.151999997,2034.0
402.152999997,2139.0
402.153999997,2176.0
402.154999997,2092.0
402.155999997,2033.0
402.156999997,1943.0
402.157999997,1928.0
402.158999997,1985.0
402.159999997,2046.0
402.160999997,2141.0
402.161999997,2138.0
402.162999997,2082.0
402.163999997,2009.0
402.164999997,1936.0
402.165999997,1957.0
402.166999997,1981.0
402.167999997,2062.0
402.168999997,2150.0
402.169999997,2135.0
402.170999997,2071.0
402.171999997,1992.0
402.172999997,1948.0
402.173999997,1943.0
402.174999997,1993.0
402.175999997,2072.0
402.176999997,2159.0
402.177999997,2103.0
402.178999997,2068.0
402.179999997,1996.0
402.180999997,1910.0
402.181999997,1970.0
402.182999997,2012.0
402.183999997,2100.0
402.184999997,2162.0
402.185999997,2099.0
402.186999997,2063.0
402.187999997,1960.0
402.188999997,1914.0
402.189999997,1980.0
402.190999997,2033.0
402.191999997,2144.0
402.192999997,2158.0
402.193999997,2082.0
402.194999997,2041.0
402.195999997,1935.0
402.196999997,1923.0
402.197999997,1992.0
402.198999997,2045.0
402.199999997,2143.0
402.200999997,2160.0
402.201999997,2087.0
402.202999997,2015.0
402.203999997,1936.0
402.204999997,1930.0
402.205999997,2004.0
402.206999997,2073.0
402.207999997,2140.0
402.208999997,2143.0
402.209999997,2078.0
402.210999997,2022.0
402.211999997,1922.0
402.212999997,1945.0
402.213999997,2000.0
402.214999997,2084.0
402.215999997,2161.0
402.216999997,2124.0
402.217999997,2085.0
402.218999997,1979.0
402.219999997,1912.0
402.220999997,1954.0
402.221999997,2024.0
402.222999997,2099.0
402.223999997,2157.0
402.224999997,2103.0
402.225999997,2069.0
402.226999997,1971.0
402.227999997,1913.0
402.228999997,1964.0
402.229999997,2022.0
402.230999997,2145.0
402.231999997,2172.0
402.232999997,2115.0
402.233999997,2078.0
402.234999997,1984.0
402.235999997,1969.0
402.236999997,2028.0
402.237999997,2132.0
402.238999997,2229.0
402.239999997,2235.0
402.240999997,2164.0
402.241999997,2075.0
402.242999997,1958.0
402.243999997,1920.0
402.244999997,1945.0
402.245999997,2008.0
402.246999997,2067.0
402.247999997,2030.0
402.248999997,1986.0
402.249999997,1907.0
402.250999997,1840.0
402.251999997,1857.0
402.252999997,1930.0
402.253999997,2043.0
402.254999997,2124.0
402.255999997,2074.0
402.256999997,2037.0
402.257999997,1961.0
402.258999997,1895.0
402.259999997,1942.0
402.260999997,2008.0
402.261999997,2126.0
402.262999997,2192.0
402.263999997,2133.0
402.264999997,2081.0
402.265999997,1990.0
402.266999997,1923.0
402.267999997,1999.0
402.268999997,2056.0
402.269999997,2167.0
402.270999997,2186.0
402.271999997,2141.0
402.272999997,2065.0
402.273999997,1967.0
402.274999997,1942.0
402.275999997,2012.0
402.276999997,2067.0
402.277999997,2182.0
402.278999997,2203.0
402.279999997,2133.0
402.280999997,2050.0
402.281999997,1963.0
402.282999997,1948.0
402.283999997,2016.0
402.284999997,2092.0
402.285999997,2192.0
402.286999997,2170.0
402.287999997,2095.0
402.288999997,2027.0
402.289999997,1957.0
402.290999997,1970.0
402.291999997,2022.0
402.292999997,2111.0
402.293999997,2185.0
402.294999997,2172.0
402.295999997,2104.0
402.296999997,2020.0
402.297999997,1946.0
402.298999997,1979.0
402.299999997,2036.0
402.300999997,2123.0
402.301999997,2197.0
402.302999997,2150.0
402.303999997,2085.0
402.304999997,1990.0
402.305999997,1940.0
402.306999997,1973.0
402.307999997,2071.0
402.308999997,2161.0
402.309999997,2212.0
402.310999997,2137.0
402.311999997,2035.0
402.312999997,1961.0
402.313999997,1950.0
402.314999997,1998.0
402.315999997,2072.0
402.316999997,2176.0
402.317999997,2198.0
402.318999997,2133.0
402.319999997,2053.0
402.320999997,1956.0
402.321999997,1946.0
402.322999997,2002.0
402.323999997,2080.0
402.324999997,2212.0
402.325999997,2167.0
402.326999997,2110.0
402.327999997,2022.0
402.328999997,1922.0
402.329999997,1961.0
402.330999997,2008.0
402.331999997,2087.0
402.332999997,2177.0
402.333999997,2152.0
402.334999997,2092.0
402.335999997,1984.0
402.336999997,1904.0
402.337999997,1932.0
402.338999997,2005.0
402.339999997,2095.0
402.340999997,2161.0
402.341999997,2108.0
402.342999997,2064.0
402.343999997,1953.0
402.344999997,1895.0
402.345999997,1950.0
402.346999997,2013.0
402.347999997,2104.0
402.348999997,2142.0
402.349999997,2079.0
402.350999997,2021.0
402.351999997,1913.0
402.352999997,1877.0
402.353999997,1967.0
402.354999997,2012.0
402.355999997,2124.0
402.356999997,2132.0
402.357999997,2060.0
402.358999997,1994.0
402.359999997,1899.0
402.360999997,1881.0
402.361999997,1951.0
402.362999997,2019.0
402.363999997,2123.0
402.364999997,2118.0
402.365999997,2063.0
402.366999997,1977.0
402.367999997,1897.0
402.368999997,1893.0
402.369999997,1952.0
402.370999997,2047.0
402.371999997,2129.0
402.372999997,2109.0
402.373999997,2059.0
402.374999997,1967.0
402.375999997,1891.0
402.376999997,1918.0
402.377999997,1973.0
402.378999997,2070.0
402.379999997,2138.0
402.380999997,2084.0
402.381999997,2046.0
402.382999997,1950.0
402.383999997,1880.0
402.384999997,1921.0
402.385999997,2002.0
402.386999997,2104.0
402.387999997,2147.0
402.388999997,2094.0
402.389999997,2033.0
402.390999997,1936.0
402.391999997,1895.0
402.392999997,1956.0
402.393999997,2020.0
402.394999997,2130.0
402.395999997,2152.0
402.396999997,2091.0
402.397999997,2032.0
402.398999997,1948.0
402.399999997,1910.0
402.400999997,1978.0
402.401999997,2058.0
402.402999997,2150.0
402.403999997,2152.0
402.404999997,2088.0
402.405999997,2017.0
402.406999997,1930.0
402.407999997,1934.0
402.408999997,1982.0
402.409999997,2086.0
402.410999997,2154.0
402.411999997,2138.0
402.412999997,2080.0
402.413999997,1992.0
402.414999997,1924.0
402.415999997,1954.0
402.416999997,2003.0
402.417999997,2091.0
402.418999997,2158.0
402.419999997,2118.0
402.420999997,2073.0
402.421999997,1974.0
402.422999997,1916.0
402.423999997,1952.0
402.424999997,2016.0
402.425999997,2124.0
402.426999997,2151.0
402.427999997,2110.0
402.428999997,2049.0
402.429999997,1953.0
402.430999997,1923.0
402.431999997,1973.0
402.432999997,2025.0
402.433999997,2139.0
402.434999997,2147.0
402.435999997,2089.0
402.436999997,2009.0
402.437999997,1945.0
402.438999997,1931.0
402.439999997,1978.0
402.440999997,2039.0
402.441999997,2142.0
402.442999997,2130.0
402.443999997,2086.0
402.444999997,1983.0
402.445999997,1935.0
402.446999997,1940.0
402.447999997,1982.0
402.448999997,2063.0
402.449999997,2148.0
402.450999997,2129.0
402.451999997,2084.0
402.452999997,1979.0
402.453999997,1916.0
402.454999997,1943.0
402.455999997,1986.0
402.456999997,2086.0
402.457999997,2168.0
402.458999997,2106.0
402.459999997,2052.0
402.460999997,1973.0
402.461999997,1921.0
402.462999997,1960.0
402.463999997,2008.0
402.464999997,2102.0
402.465999997,2167.0
402.466999997,2092.0
402.467999997,2052.0
402.468999997,1976.0
402.469999997,1911.0
402.470999997,1965.0
402.471999997,2032.0
402.472999997,2131.0
402.473999997,2147.0
402.474999997,2086.0
402.475999997,2031.0
402.476999997,1929.0
402.477999997,1923.0
402.478999997,1979.0
402.479999997,2046.0
402.480999997,2143.0
402.481999997,2146.0
402.482999997,2087.0
402.483999997,2008.0
402.484999997,1928.0
402.485999997,1945.0
402.486999997,2000.0
402.487999997,2083.0
402.488999997,2167.0
402.489999997,2139.0
402.490999997,2075.0
402.491999997,1996.0
402.492999997,1925.0
402.493999997,1954.0
402.494999997,2007.0
402.495999997,2089.0
402.496999997,2165.0
402.497999997,2120.0
402.498999997,2079.0
402.499999997,1979.0
402.500999997,1916.0
402.501999997,1971.0
402.502999997,2026.0
402.503999997,2112.0
402.504999997,2159.0
402.505999997,2115.0
402.506999997,2066.0
402.507999997,1962.0
402.508999997,1910.0
402.509999997,1974.0
402.510999997,2043.0
402.511999997,2147.0
402.512999997,2172.0
402.513999997,2108.0
402.514999997,2039.0
402.515999997,1930.0
402.516999997,1918.0
402.517999997,1973.0
402.518999997,2063.0
402.519999997,2168.0
402.520999997,2170.0
402.521999997,2102.0
402.522999997,2023.0
402.523999997,1930.0
402.524999997,1927.0
402.525999997,1993.0
402.526999997,2083.0
402.527999997,2176.0
402.528999997,2130.0
402.529999997,2098.0
402.530999997,1995.0
402.531999997,1929.0
402.532999997,1963.0
402.533999997,2010.0
402.534999997,2115.0
402.535999997,2185.0
402.536999997,2121.0
402.537999997,2078.0
402.538999997,1979.0
402.539999997,1912.0
402.540999997,1965.0
402.541999997,2027.0
402.542999997,2137.0
402.543999997,2175.0
402.544999997,2112.0
402.545999997,2054.0
402.546999997,1965.0
402.547999997,1903.0
402.548999997,1967.0
402.549999997,2027.0
402.550999997,2151.0
402.551999997,2177.0
402.552999997,2103.0
402.553999997,2036.0
402.554999997,1943.0
402.555999997,1905.0
402.556999997,1981.0
402.557999997,2060.0
402.558999997,2174.0
402.559999997,2170.0
402.560999997,2100.0
402.561999997,2027.0
402.562999997,1933.0
402.563999997,1925.0
402.564999997,1992.0
402.565999997,2085.0
402.566999997,2181.0
402.567999997,2161.0
402.568999997,2092.0
402.569999997,2004.0
402.570999997,1930.0
402.571999997,1951.0
402.572999997,2003.0
402.573999997,2109.0
402.574999997,2191.0
402.575999997,2145.0
402.576999997,2078.0
402.577999997,1984.0
402.578999997,1923.0
402.579999997,1945.0
402.580999997,2010.0
402.581999997,2132.0
402.582999997,2190.0
402.583999997,2136.0
402.584999997,2064.0
402.585999997,1977.0
402.586999997,1928.0
402.587999997,1987.0
402.588999997,2039.0
402.589999997,2141.0
402.590999997,2180.0
402.591999997,2125.0
402.592999997,2052.0
402.593999997,1949.0
402.594999997,1926.0
402.595999997,1993.0
402.596999997,2055.0
402.597999997,2168.0
402.598999997,2175.0
402.599999997,2104.0
402.600999997,2034.0
402.601999997,1946.0
402.602999997,1947.0
402.603999997,1991.0
402.604999997,2066.0
402.605999997,2165.0
402.606999997,2140.0
402.607999997,2083.0
402.608999997,2004.0
402.609999997,1926.0
402.610999997,1945.0
402.611999997,2004.0
402.612999997,2094.0
402.613999997,2174.0
402.614999997,2138.0
402.615999997,2078.0
402.616999997,1976.0
402.617999997,1923.0
402.618999997,1968.0
402.619999997,2028.0
402.620999997,2109.0
402.621999997,2188.0
402.622999997,2160.0
402.623999997,2082.0
402.624999997,1977.0
402.625999997,1937.0
402.626999997,2005.0
402.627999997,2086.0
402.628999997,2199.0
402.629999997,2246.0
402.630999997,2191.0
402.631999997,2136.0
402.632999997,2014.0
402.633999997,1962.0
402.634999997,1998.0
402.635999997,2050.0
402.636999997,2114.0
402.637999997,2089.0
402.638999997,2008.0
402.639999997,1918.0
402.640999997,1838.0
402.641999997,1822.0
402.642999997,1913.0
402.643999997,1999.0
402.644999997,2096.0
402.645999997,2094.0
402.646999997,2051.0
402.647999997,1972.0
402.648999997,1892.0
402.649999997,1906.0
402.650999997,1979.0
402.651999997,2014.0
402.652999997,2178.0
402.653999997,2148.0
402.654999997,2096.0
402.655999997,2018.0
402.656999997,1884.0
402.657999997,1971.0
402.658999997,2020.0
402.659999997,2130.0
402.660999997,2205.0
402.661999997,2145.0
402.662999997,2103.0
402.663999997,2006.0
402.664999997,1926.0
402.665999997,1972.0
402.666999997,2047.0
402.667999997,2164.0
402.668999997,2178.0
402.669999997,2167.0
402.670999997,2093.0
402.671999997,1967.0
402.672999997,1922.0
402.673999997,1986.0
402.674999997,2049.0
402.675999997,2168.0
402.676999997,2181.0
402.677999997,2114.0
402.678999997,2057.0
402.679999997,1974.0
402.680999997,1926.0
402.681999997,1966.0
402.682999997,2078.0
402.683999997,2177.0
402.684999997,2238.0
402.685999997,2101.0
402.686999997,2038.0
402.687999997,1946.0
402.688999997,1962.0
402.689999997,1997.0
402.690999997,2094.0
402.691999997,2180.0
402.692999997,2163.0
402.693999997,2101.0
402.694999997,2014.0
402.695999997,1918.0
402.696999997,1964.0
402.697999997,2007.0
402.698999997,2126.0
402.699999997,2191.0
402.700999997,2132.0
402.701999997,2075.0
402.702999997,1999.0
402.703999997,1931.0
402.704999997,1986.0
402.705999997,2034.0
402.706999997,2151.0
402.707999997,2204.0
402.708999997,2133.0
402.709999997,2072.0
402.710999997,1972.0
402.711999997,1926.0
402.712999997,1981.0
402.713999997,2046.0
402.714999997,2169.0
402.715999997,2181.0
402.716999997,2136.0
402.717999997,2040.0
402.718999997,1962.0
402.719999997,1940.0
402.720999997,1986.0
402.721999997,2074.0
402.722999997,2171.0
402.723999997,2157.0
402.724999997,2090.0
402.725999997,2011.0
402.726999997,1941.0
402.727999997,1946.0
402.728999997,1976.0
402.729999997,2075.0
402.730999997,2156.0
402.731999997,2122.0
402.732999997,2081.0
402.733999997,1977.0
402.734999997,1913.0
402.735999997,1946.0
402.736999997,1978.0
402.737999997,2071.0
402.738999997,2152.0
402.739999997,2097.0
402.740999997,2032.0
402.741999997,1937.0
402.742999997,1898.0
402.743999997,1936.0
402.744999997,1995.0
402.745999997,2088.0
402.746999997,2141.0
402.747999997,2065.0
402.748999997,2015.0
402.749999997,1915.0
402.750999997,1894.0
402.751999997,1939.0
402.752999997,2006.0
402.753999997,2145.0
402.754999997,2135.0
402.755999997,2067.0
402.756999997,2001.0
402.757999997,1911.0
402.758999997,1903.0
402.759999997,1968.0
402.760999997,2026.0
402.761999997,2131.0
402.762999997,2120.0
402.763999997,2056.0
402.764999997,1975.0
402.765999997,1899.0
402.766999997,1913.0
402.767999997,1980.0
402.768999997,2053.0
402.769999997,2162.0
402.770999997,2118.0
402.771999997,2048.0
402.772999997,1975.0
402.773999997,1896.0
402.774999997,1953.0
402.775999997,1983.0
402.776999997,2078.0
402.777999997,2153.0
402.778999997,2090.0
402.779999997,2037.0
402.780999997,1953.0
402.781999997,1891.0
402.782999997,1969.0
402.783999997,2019.0
402.784999997,2114.0
402.785999997,2155.0
402.786999997,2097.0
402.787999997,2051.0
402.788999997,1940.0
402.789999997,1891.0
402.790999997,1968.0
402.791999997,2033.0
402.792999997,2094.0
402.793999997,2148.0
402.794999997,2096.0
402.795999997,2027.0
402.796999997,1929.0
402.797999997,1914.0
402.798999997,1986.0
402.799999997,2056.0
402.800999997,2158.0
402.801999997,2144.0
402.802999997,2090.0
402.803999997,2004.0
402.804999997,1918.0
402.805999997,1921.0
402.806999997,1996.0
402.807999997,2081.0
402.808999997,2159.0
402.809999997,2132.0
402.810999997,2086.0
402.811999997,1990.0
402.812999997,1905.0
402.813999997,1940.0
402.814999997,2009.0
402.815999997,2103.0
402.816999997,2174.0
402.817999997,2125.0
402.818999997,2069.0
402.819999997,1969.0
402.820999997,1907.0
402.821999997,1948.0
402.822999997,2025.0
402.823999997,2129.0
402.824999997,2177.0
402.825999997,2121.0
402.826999997,2050.0
402.827999997,1947.0
402.828999997,1901.0
402.829999997,1979.0
402.830999997,2025.0
402.831999997,2156.0
402.832999997,2179.0
402.833999997,2107.0
402.834999997,2037.0
402.835999997,1940.0
402.836999997,1913.0
402.837999997,1974.0
402.838999997,2054.0
402.839999997,2171.0
402.840999997,2130.0
402.841999997,2081.0
402.842999997,1989.0
402.843999997,1930.0
402.844999997,1925.0
402.845999997,1967.0
402.846999997,2086.0
402.847999997,2185.0
402.848999997,2138.0
402.849999997,2085.0
402.850999997,1994.0
402.851999997,1915.0
402.852999997,1941.0
402.853999997,1968.0
402.854999997,2137.0
402.855999997,2176.0
402.856999997,2128.0
402.857999997,2075.0
402.858999997,1966.0
402.859999997,1905.0
402.860999997,1956.0
402.861999997,2007.0
402.862999997,2128.0
402.863999997,2176.0
402.864999997,2113.0
402.865999997,2047.0
402.866999997,1956.0
402.867999997,1911.0
402.868999997,1969.0
402.869999997,2027.0
402.870999997,2148.0
402.871999997,2183.0
402.872999997,2104.0
402.873999997,2048.0
402.874999997,1930.0
402.875999997,1929.0
402.876999997,1980.0
402.877999997,2042.0
402.878999997,2168.0
402.879999997,2159.0
402.880999997,2116.0
402.881999997,2016.0
402.882999997,1930.0
402.883999997,1939.0
402.884999997,1984.0
402.885999997,2062.0
402.886999997,2168.0
402.887999997,2151.0
402.888999997,2084.0
402.889999997,2001.0
402.890999997,1932.0
402.891999997,1945.0
402.892999997,1989.0
402.893999997,2089.0
402.894999997,2182.0
402.895999997,2147.0
402.896999997,2079.0
402.897999997,1979.0
402.898999997,1920.0
402.899999997,1952.0
402.900999997,1993.0
402.901999997,2109.0
402.902999997,2190.0
402.903999997,2118.0
402.904999997,2042.0
402.905999997,1940.0
402.906999997,1904.0
402.907999997,1950.0
402.908999997,2018.0
402.909999997,2139.0
402.910999997,2180.0
402.911999997,2099.0
402.912999997,2045.0
402.913999997,1926.0
402.914999997,1912.0
402.915999997,1971.0
402.916999997,2040.0
402.917999997,2157.0
402.918999997,2162.0
402.919999997,2112.0
402.920999997,2027.0
402.921999997,1922.0
402.922999997,1930.0
402.923999997,1982.0
402.924999997,2069.0
402.925999997,2166.0
402.926999997,2145.0
402.927999997,2087.0
402.928999997,2006.0
402.929999997,1947.0
402.930999997,1938.0
402.931999997,1982.0
402.932999997,2078.0
402.933999997,2180.0
402.934999997,2124.0
402.935999997,2093.0
402.936999997,1988.0
402.937999997,1911.0
402.938999997,1950.0
402.939999997,2016.0
402.940999997,2119.0
402.941999997,2189.0
402.942999997,2131.0
402.943999997,2086.0
402.944999997,1970.0
402.945999997,1901.0
402.946999997,1973.0
402.947999997,2033.0
402.948999997,2152.0
402.949999997,2192.0
402.950999997,2127.0
402.951999997,2077.0
402.952999997,1954.0
402.953999997,1910.0
402.954999997,1983.0
402.955999997,2043.0
402.956999997,2148.0
402.957999997,2166.0
402.958999997,2100.0
402.959999997,2032.0
402.960999997,1920.0
402.961999997,1910.0
402.962999997,1987.0
402.963999997,2069.0
402.964999997,2176.0
402.965999997,2145.0
402.966999997,2095.0
402.967999997,2011.0
402.968999997,1948.0
402.969999997,1931.0
402.970999997,1981.0
402.971999997,2072.0
402.972999997,2169.0
402.973999997,2135.0
402.974999997,2080.0
402.975999997,1983.0
402.976999997,1902.0
402.977999997,1943.0
402.978999997,1992.0
402.979999997,2104.0
402.980999997,2167.0
402.981999997,2117.0
402.982999997,2061.0
402.983999997,1975.0
402.984999997,1900.0
402.985999997,1936.0
402.986999997,2009.0
402.987999997,2126.0
402.988999997,2176.0
402.989999997,2102.0
402.990999997,2045.0
402.991999997,1945.0
402.992999997,1899.0
402.993999997,1951.0
402.994999997,2068.0
402.995999997,2195.0
402.996999997,2220.0
402.997999997,2161.0
402.998999997,2095.0
402.999999997,1997.0
403.000999997,1972.0
403.001999997,2043.0
403.002999997,2085.0
403.003999997,2158.0
403.004999997,2111.0
403.005999997,2030.0
403.006999997,1912.0
403.007999997,1828.0
403.008999997,1845.0
403.009999997,1904.0
403.010999997,2012.0
403.011999997,2117.0
403.012999997,2070.0
403.013999997,2059.0
403.014999997,1961.0
403.015999997,1906.0
403.016999997,1908.0
403.017999997,1967.0
403.018999997,2076.0
403.019999997,2152.0
403.020999997,2117.0
403.021999997,2064.0
403.022999997,1969.0
403.023999997,1923.0
403.024999997,1972.0
403.025999997,2031.0
403.026999997,2146.0
403.027999997,2187.0
403.028999997,2131.0
403.029999997,2070.0
403.030999997,1967.0
403.031999997,1944.0
403.032999997,1976.0
403.033999997,2050.0
403.034999997,2178.0
403.035999997,2198.0
403.036999997,2127.0
403.037999997,2071.0
403.038999997,1964.0
403.039999997,1959.0
403.040999997,2007.0
403.041999997,2082.0
403.042999997,2190.0
403.043999997,2176.0
403.044999997,2131.0
403.045999997,2035.0
403.046999997,1968.0
403.047999997,1973.0
403.048999997,2022.0
403.049999997,2104.0
403.050999997,2208.0
403.051999997,2177.0
403.052999997,2113.0
403.053999997,2036.0
403.054999997,1941.0
403.055999997,1992.0
403.056999997,2020.0
403.057999997,2121.0
403.058999997,2204.0
403.059999997,2161.0
403.060999997,2104.0
403.061999997,1996.0
403.062999997,1940.0
403.063999997,2014.0
403.064999997,2034.0
403.065999997,2163.0
403.066999997,2205.0
403.067999997,2151.0
403.068999997,2091.0
403.069999997,1974.0
403.070999997,1944.0
403.071999997,2001.0
403.072999997,2064.0
403.073999997,2177.0
403.074999997,2201.0
403.075999997,2136.0
403.076999997,2064.0
403.077999997,1952.0
403.078999997,1952.0
403.079999997,2015.0
403.080999997,2072.0
403.081999997,2184.0
403.082999997,2200.0
403.083999997,2134.0
403.084999997,2037.0
403.085999997,1945.0
403.086999997,1953.0
403.087999997,2009.0
403.088999997,2096.0
403.089999997,2193.0
403.090999997,2169.0
403.091999997,2102.0
403.092999997,2004.0
403.093999997,1907.0
403.094999997,1943.0
403.095999997,2017.0
403.096999997,2105.0
403.097999997,2176.0
403.098999997,2123.0
403.099999997,2061.0
403.100999997,1959.0
403.101999997,1895.0
403.102999997,1928.0
403.103999997,2017.0
403.104999997,2118.0
403.105999997,2165.0
403.106999997,2094.0
403.107999997,2031.0
403.108999997,1930.0
403.109999997,1884.0
403.110999997,1930.0
403.111999997,2020.0
403.112999997,2143.0
403.113999997,2136.0
403.114999997,2084.0
403.115999997,2008.0
403.116999997,1902.0
403.117999997,1884.0
403.118999997,1939.0
403.119999997,2045.0
403.120999997,2141.0
403.121999997,2132.0
403.122999997,2072.0
403.123999997,1990.0
403.124999997,1891.0
403.125999997,1895.0
403.126999997,1948.0
403.127999997,2066.0
403.128999997,2162.0
403.129999997,2112.0
403.130999997,2065.0
403.131999997,1966.0
403.132999997,1872.0
403.133999997,1895.0
403.134999997,1954.0
403.135999997,2081.0
403.136999997,2154.0
403.137999997,2114.0
403.138999997,2039.0
403.139999997,1952.0
403.140999997,1880.0
403.141999997,1920.0
403.142999997,1976.0
403.143999997,2115.0
403.144999997,2171.0
403.145999997,2091.0
403.146999997,2027.0
403.147999997,1923.0
403.148999997,1877.0
403.149999997,1921.0
403.150999997,2005.0
403.151999997,2138.0
403.152999997,2163.0
403.153999997,2059.0
403.154999997,2007.0
403.155999997,1912.0
403.156999997,1875.0
403.157999997,1945.0
403.158999997,2031.0
403.159999997,2191.0
403.160999997,2153.0
403.161999997,2090.0
403.162999997,1994.0
403.163999997,1867.0
403.164999997,1879.0
403.165999997,1959.0
403.166999997,2053.0
403.167999997,2160.0
403.168999997,2172.0
403.169999997,2076.0
403.170999997,1978.0
403.171999997,1901.0
403.172999997,1926.0
403.173999997,1973.0
403.174999997,2063.0
403.175999997,2148.0
403.176999997,2122.0
403.177999997,2107.0
403.178999997,1970.0
403.179999997,1890.0
403.180999997,1936.0
403.181999997,2003.0
403.182999997,2100.0
403.183999997,2182.0
403.184999997,2126.0
403.185999997,2053.0
403.186999997,1932.0
403.187999997,1888.0
403.188999997,1946.0
403.189999997,2026.0
403.190999997,2145.0
403.191999997,2172.0
403.192999997,2108.0
403.193999997,2038.0
403.194999997,1877.0
403.195999997,1905.0
403.196999997,1971.0
403.197999997,2045.0
403.198999997,2161.0
403.199999997,2172.0
403.200999997,2102.0
403.201999997,1993.0
403.202999997,1920.0
403.203999997,1914.0
403.204999997,1974.0
403.205999997,2072.0
403.206999997,2175.0
403.207999997,2149.0
403.208999997,2105.0
403.209999997,2000.0
403.210999997,1904.0
403.211999997,1937.0
403.212999997,1996.0
403.213999997,2102.0
403.214999997,2173.0
403.215999997,2154.0
403.216999997,2091.0
403.217999997,1971.0
403.218999997,1899.0
403.219999997,1952.0
403.220999997,2015.0
403.221999997,2117.0
403.222999997,2186.0
403.223999997,2128.0
403.224999997,2076.0
403.225999997,1961.0
403.226999997,1901.0
403.227999997,1967.0
403.228999997,2036.0
403.229999997,2165.0
403.230999997,2190.0
403.231999997,2142.0
403.232999997,2059.0
403.233999997,1941.0
403.234999997,1903.0
403.235999997,1973.0
403.236999997,2057.0
403.237999997,2176.0
403.238999997,2212.0
403.239999997,2123.0
403.240999997,2029.0
403.241999997,1926.0
403.242999997,1913.0
403.243999997,1981.0
403.244999997,2078.0
403.245999997,2191.0
403.246999997,2166.0
403.247999997,2121.0
403.248999997,2013.0
403.249999997,1915.0
403.250999997,1937.0
403.251999997,2004.0
403.252999997,2097.0
403.253999997,2191.0
403.254999997,2153.0
403.255999997,2097.0
403.256999997,1993.0
403.257999997,1906.0
403.258999997,1932.0
403.259999997,2016.0
403.260999997,2127.0
403.261999997,2191.0
403.262999997,2133.0
403.263999997,2083.0
403.264999997,1966.0
403.265999997,1904.0
403.266999997,1954.0
403.267999997,2022.0
403.268999997,2153.0
403.269999997,2187.0
403.270999997,2121.0
403.271999997,2062.0
403.272999997,1945.0
403.273999997,1913.0
403.274999997,1966.0
403.275999997,2054.0
403.276999997,2173.0
403.277999997,2166.0
403.278999997,2107.0
403.279999997,2052.0
403.280999997,1939.0
403.281999997,1918.0
403.282999997,1981.0
403.283999997,2089.0
403.284999997,2185.0
403.285999997,2149.0
403.286999997,2099.0
403.287999997,2012.0
403.288999997,1921.0
403.289999997,1941.0
403.290999997,1989.0
403.291999997,2103.0
403.292999997,2186.0
403.293999997,2158.0
403.294999997,2088.0
403.295999997,1995.0
403.296999997,1922.0
403.297999997,1944.0
403.298999997,2001.0
403.299999997,2120.0
403.300999997,2183.0
403.301999997,2127.0
403.302999997,2062.0
403.303999997,1965.0
403.304999997,1915.0
403.305999997,1961.0
403.306999997,2037.0
403.307999997,2169.0
403.308999997,2230.0
403.309999997,2167.0
403.310999997,2114.0
403.311999997,2015.0
403.312999997,1996.0
403.313999997,2038.0
403.314999997,2072.0
403.315999997,2214.0
403.316999997,2189.0
403.317999997,2107.0
403.318999997,1975.0
403.319999997,1855.0
403.320999997,1825.0
403.321999997,1876.0
403.322999997,1971.0
403.323999997,2092.0
403.324999997,2089.0
403.325999997,2029.0
403.326999997,1948.0
403.327999997,1870.0
403.328999997,1941.0
403.329999997,1949.0
403.330999997,2051.0
403.331999997,2149.0
403.332999997,2125.0
403.333999997,2064.0
403.334999997,1970.0
403.335999997,1900.0
403.336999997,1959.0
403.337999997,2019.0
403.338999997,2090.0
403.339999997,2215.0
403.340999997,2148.0
403.341999997,2083.0
403.342999997,1980.0
403.343999997,1932.0
403.344999997,1985.0
403.345999997,2055.0
403.346999997,2162.0
403.347999997,2207.0
403.348999997,2140.0
403.349999997,2074.0
403.350999997,1957.0
403.351999997,1931.0
403.352999997,2000.0
403.353999997,2064.0
403.354999997,2177.0
403.355999997,2185.0
403.356999997,2111.0
403.357999997,2039.0
403.358999997,1939.0
403.359999997,1944.0
403.360999997,2004.0
403.361999997,2080.0
403.362999997,2168.0
403.363999997,2180.0
403.364999997,2111.0
403.365999997,2026.0
403.366999997,1923.0
403.367999997,1934.0
403.368999997,2002.0
403.369999997,2101.0
403.370999997,2200.0
403.371999997,2168.0
403.372999997,2108.0
403.373999997,2006.0
403.374999997,1912.0
403.375999997,1970.0
403.376999997,2030.0
403.377999997,2139.0
403.378999997,2213.0
403.379999997,2154.0
403.380999997,2098.0
403.381999997,1979.0
403.382999997,1913.0
403.383999997,1988.0
403.384999997,2052.0
403.385999997,2172.0
403.386999997,2227.0
403.387999997,2136.0
403.388999997,2072.0
403.389999997,1960.0
403.390999997,1928.0
403.391999997,1993.0
403.392999997,2078.0
403.393999997,2198.0
403.394999997,2208.0
403.395999997,2143.0
403.396999997,2057.0
403.397999997,1940.0
403.398999997,1922.0
403.399999997,1993.0
403.400999997,2090.0
403.401999997,2192.0
403.402999997,2180.0
403.403999997,2126.0
403.404999997,2027.0
403.405999997,1920.0
403.406999997,1926.0
403.407999997,1998.0
403.408999997,2098.0
403.409999997,2209.0
403.410999997,2136.0
403.411999997,2097.0
403.412999997,1987.0
403.413999997,1895.0
403.414999997,1932.0
403.415999997,1981.0
403.416999997,2105.0
403.417999997,2183.0
403.418999997,2125.0
403.419999997,2050.0
403.420999997,1948.0
403.421999997,1869.0
403.422999997,1920.0
403.423999997,1998.0
403.424999997,2135.0
403.425999997,2172.0
403.426999997,2110.0
403.427999997,2038.0
403.428999997,1924.0
403.429999997,1885.0
403.430999997,1934.0
403.431999997,2020.0
403.432999997,2147.0
403.433999997,2159.0
403.434999997,2078.0
403.435999997,2010.0
403.436999997,1897.0
403.437999997,1869.0
403.438999997,1938.0
403.439999997,2043.0
403.440999997,2154.0
403.441999997,2148.0
403.442999997,2076.0
403.443999997,1981.0
403.444999997,1890.0
403.445999997,1894.0
403.446999997,1952.0
403.447999997,2068.0
403.448999997,2167.0
403.449999997,2152.0
403.450999997,2083.0
403.451999997,1926.0
403.452999997,1883.0
403.453999997,1931.0
403.454999997,1978.0
403.455999997,2088.0
403.456999997,2187.0
403.457999997,2126.0
403.458999997,2050.0
403.459999997,1953.0
403.460999997,1894.0
403.461999997,1935.0
403.462999997,2009.0
403.463999997,2123.0
403.464999997,2189.0
403.465999997,2107.0
403.466999997,2047.0
403.467999997,1935.0
403.468999997,1889.0
403.469999997,1958.0
403.470999997,2025.0
403.471999997,2151.0
403.472999997,2174.0
403.473999997,2103.0
403.474999997,2016.0
403.475999997,1911.0
403.476999997,1896.0
403.477999997,1963.0
403.478999997,2045.0
403.479999997,2160.0
403.480999997,2177.0
403.481999997,2104.0
403.482999997,1996.0
403.483999997,1914.0
403.484999997,1920.0
403.485999997,1977.0
403.486999997,2080.0
403.487999997,2172.0
403.488999997,2146.0
403.489999997,2075.0
403.490999997,1959.0
403.491999997,1874.0
403.492999997,1903.0
403.493999997,1977.0
403.494999997,2077.0
403.495999997,2167.0
403.496999997,2108.0
403.497999997,2063.0
403.498999997,1942.0
403.499999997,1870.0
403.500999997,1924.0
403.501999997,1991.0
403.502999997,2105.0
403.503999997,2173.0
403.504999997,2112.0
403.505999997,2051.0
403.506999997,1928.0
403.507999997,1883.0
403.508999997,1954.0
403.509999997,2026.0
403.510999997,2156.0
403.511999997,2171.0
403.512999997,2103.0
403.513999997,2033.0
403.514999997,1913.0
403.515999997,1890.0
403.516999997,1975.0
403.517999997,2056.0
403.518999997,2176.0
403.519999997,2192.0
403.520999997,2106.0
403.521999997,2013.0
403.522999997,1904.0
403.523999997,1912.0
403.524999997,1971.0
403.525999997,2073.0
403.526999997,2174.0
403.527999997,2152.0
403.528999997,2097.0
403.529999997,1995.0
403.530999997,1893.0
403.531999997,1954.0
403.532999997,1994.0
403.533999997,2098.0
403.534999997,2194.0
403.535999997,2138.0
403.536999997,2103.0
403.537999997,1987.0
403.538999997,1896.0
403.539999997,1945.0
403.540999997,2006.0
403.541999997,2137.0
403.542999997,2200.0
403.543999997,2128.0
403.544999997,2089.0
403.545999997,1962.0
403.546999997,1898.0
403.547999997,1959.0
403.548999997,2032.0
403.549999997,2171.0
403.550999997,2186.0
403.551999997,2100.0
403.552999997,2054.0
403.553999997,1936.0
403.554999997,1901.0
403.555999997,1959.0
403.556999997,2089.0
403.557999997,2179.0
403.558999997,2171.0
403.559999997,2119.0
403.560999997,2040.0
403.561999997,1924.0
403.562999997,1925.0
403.563999997,1983.0
403.564999997,2088.0
403.565999997,2193.0
403.566999997,2109.0
403.567999997,2099.0
403.568999997,2006.0
403.569999997,1907.0
403.570999997,1927.0
403.571999997,1977.0
403.572999997,2107.0
403.573999997,2204.0
403.574999997,2150.0
403.575999997,2089.0
403.576999997,1992.0
403.577999997,1911.0
403.578999997,1946.0
403.579999997,2029.0
403.580999997,2131.0
403.581999997,2186.0
403.582999997,2127.0
403.583999997,2062.0
403.584999997,1960.0
403.585999997,1898.0
403.586999997,1958.0
403.587999997,2034.0
403.588999997,2162.0
403.589999997,2177.0
403.590999997,2121.0
403.591999997,2050.0
403.592999997,1936.0
403.593999997,1907.0
403.594999997,1966.0
403.595999997,2039.0
403.596999997,2164.0
403.597999997,2176.0
403.598999997,2104.0
403.599999997,2011.0
403.600999997,1930.0
403.601999997,1911.0
403.602999997,1957.0
403.603999997,2071.0
403.604999997,2182.0
403.605999997,2157.0
403.606999997,2089.0
403.607999997,1992.0
403.608999997,1910.0
403.609999997,1917.0
403.610999997,1990.0
403.611999997,2095.0
403.612999997,2196.0
403.613999997,2141.0
403.614999997,2089.0
403.615999997,1972.0
403.616999997,1910.0
403.617999997,1948.0
403.618999997,2000.0
403.619999997,2122.0
403.620999997,2192.0
403.621999997,2105.0
403.622999997,2073.0
403.623999997,1963.0
403.624999997,1897.0
403.625999997,1954.0
403.626999997,2024.0
403.627999997,2153.0
403.628999997,2195.0
403.629999997,2094.0
403.630999997,2037.0
403.631999997,1927.0
403.632999997,1913.0
403.633999997,1976.0
403.634999997,2041.0
403.635999997,2178.0
403.636999997,2180.0
403.637999997,2111.0
403.638999997,2040.0
403.639999997,1954.0
403.640999997,1966.0
403.641999997,2043.0
403.642999997,2130.0
403.643999997,2247.0
403.644999997,2223.0
403.645999997,2158.0
403.646999997,2027.0
403.647999997,1916.0
403.648999997,1923.0
403.649999997,1946.0
403.650999997,1985.0
403.651999997,2078.0
403.652999997,2013.0
403.653999997,1972.0
403.654999997,1891.0
403.655999997,1795.0
403.656999997,1871.0
403.657999997,1943.0
403.658999997,2054.0
403.659999997,2123.0
403.660999997,2108.0
403.661999997,2035.0
403.662999997,1923.0
403.663999997,1865.0
403.664999997,1952.0
403.665999997,2025.0
403.666999997,2150.0
403.667999997,2188.0
403.668999997,2128.0
403.669999997,2055.0
403.670999997,1941.0
403.671999997,1914.0
403.672999997,2004.0
403.673999997,2047.0
403.674999997,2178.0
403.675999997,2201.0
403.676999997,2105.0
403.677999997,2075.0
403.678999997,1936.0
403.679999997,1928.0
403.680999997,1997.0
403.681999997,2074.0
403.682999997,2187.0
403.683999997,2169.0
403.684999997,2114.0
403.685999997,2017.0
403.686999997,1892.0
403.687999997,1932.0
403.688999997,1984.0
403.689999997,2111.0
403.690999997,2191.0
403.691999997,2149.0
403.692999997,2082.0
403.693999997,1997.0
403.694999997,1905.0
403.695999997,1943.0
403.696999997,2017.0
403.697999997,2145.0
403.698999997,2207.0
403.699999997,2140.0
403.700999997,2080.0
403.701999997,1970.0
403.702999997,1904.0
403.703999997,1958.0
403.704999997,2035.0
403.705999997,2171.0
403.706999997,2202.0
403.707999997,2121.0
403.708999997,2057.0
403.709999997,1942.0
403.710999997,1900.0
403.711999997,1970.0
403.712999997,2058.0
403.713999997,2190.0
403.714999997,2195.0
403.715999997,2129.0
403.716999997,2039.0
403.717999997,1939.0
403.718999997,1919.0
403.719999997,1984.0
403.720999997,2097.0
403.721999997,2203.0
403.722999997,2179.0
403.723999997,2117.0
403.724999997,2024.0
403.725999997,1938.0
403.726999997,1941.0
403.727999997,1988.0
403.728999997,2119.0
403.729999997,2213.0
403.730999997,2156.0
403.731999997,2097.0
403.732999997,2004.0
403.733999997,1915.0
403.734999997,1959.0
403.735999997,2015.0
403.736999997,2131.0
403.737999997,2195.0
403.738999997,2128.0
403.739999997,2082.0
403.740999997,1965.0
403.741999997,1908.0
403.742999997,1953.0
403.743999997,2023.0
403.744999997,2151.0
403.745999997,2198.0
403.746999997,2114.0
403.747999997,2055.0
403.748999997,1920.0
403.749999997,1887.0
403.750999997,1933.0
403.751999997,2018.0
403.752999997,2149.0
403.753999997,2165.0
403.754999997,2089.0
403.755999997,1992.0
403.756999997,1893.0
403.757999997,1883.0
403.758999997,1947.0
403.759999997,2078.0
403.760999997,2144.0
403.761999997,2140.0
403.762999997,2064.0
403.763999997,1962.0
403.764999997,1880.0
403.765999997,1891.0
403.766999997,1944.0
403.767999997,2047.0
403.768999997,2168.0
403.769999997,2159.0
403.770999997,2045.0
403.771999997,1938.0
403.772999997,1873.0
403.773999997,1908.0
403.774999997,1963.0
403.775999997,2075.0
403.776999997,2164.0
403.777999997,2111.0
403.778999997,2060.0
403.779999997,1929.0
403.780999997,1876.0
403.781999997,1932.0
403.782999997,1990.0
403.783999997,2123.0
403.784999997,2178.0
403.785999997,2098.0
403.786999997,2041.0
403.787999997,1912.0
403.788999997,1881.0
403.789999997,1959.0
403.790999997,2019.0
403.791999997,2159.0
403.792999997,2179.0
403.793999997,2096.0
403.794999997,2019.0
403.795999997,1892.0
403.796999997,1879.0
403.797999997,1950.0
403.798999997,2045.0
403.799999997,2174.0
403.800999997,2162.0
403.801999997,2091.0
403.802999997,1998.0
403.803999997,1891.0
403.804999997,1922.0
403.805999997,1975.0
403.806999997,2069.0
403.807999997,2177.0
403.808999997,2138.0
403.809999997,2088.0
403.810999997,1982.0
403.811999997,1882.0
403.812999997,1929.0
403.813999997,1989.0
403.814999997,2110.0
403.815999997,2187.0
403.816999997,2131.0
403.817999997,2078.0
403.818999997,1964.0
403.819999997,1895.0
403.820999997,1940.0
403.821999997,2007.0
403.822999997,2128.0
403.823999997,2182.0
403.824999997,2124.0
403.825999997,2061.0
403.826999997,1930.0
403.827999997,1868.0
403.828999997,1957.0
403.829999997,2038.0
403.830999997,2158.0
403.831999997,2181.0
403.832999997,2094.0
403.833999997,2032.0
403.834999997,1925.0
403.835999997,1893.0
403.836999997,1942.0
403.837999997,2056.0
403.838999997,2172.0
403.839999997,2172.0
403.840999997,2104.0
403.841999997,2018.0
403.842999997,1913.0
403.843999997,1899.0
403.844999997,1970.0
403.845999997,2082.0
403.846999997,2179.0
403.847999997,2143.0
403.848999997,2098.0
403.849999997,1993.0
403.850999997,1859.0
403.851999997,1929.0
403.852999997,1988.0
403.853999997,2118.0
403.854999997,2196.0
403.855999997,2126.0
403.856999997,2077.0
403.857999997,1965.0
403.858999997,1890.0
403.859999997,1932.0
403.860999997,2001.0
403.861999997,2127.0
403.862999997,2162.0
403.863999997,2108.0
403.864999997,2042.0
403.865999997,1934.0
403.866999997,1877.0
403.867999997,1937.0
403.868999997,2009.0
403.869999997,2146.0
403.870999997,2157.0
403.871999997,2089.0
403.872999997,2018.0
403.873999997,1898.0
403.874999997,1872.0
403.875999997,1927.0
403.876999997,2022.0
403.877999997,2134.0
403.878999997,2140.0
403.879999997,2063.0
403.880999997,1976.0
403.881999997,1891.0
403.882999997,1889.0
403.883999997,1935.0
403.884999997,2045.0
403.885999997,2151.0
403.886999997,2124.0
403.887999997,2062.0
403.888999997,1959.0
403.889999997,1884.0
403.890999997,1913.0
403.891999997,1968.0
403.892999997,2084.0
403.893999997,2175.0
403.894999997,2125.0
403.895999997,2056.0
403.896999997,1965.0
403.897999997,1894.0
403.898999997,1948.0
403.899999997,1976.0
403.900999997,2121.0
403.901999997,2182.0
403.902999997,2128.0
403.903999997,2059.0
403.904999997,1932.0
403.905999997,1914.0
403.906999997,1963.0
403.907999997,2031.0
403.908999997,2178.0
403.909999997,2181.0
403.910999997,2116.0
403.911999997,2034.0
403.912999997,1926.0
403.913999997,1910.0
403.914999997,1964.0
403.915999997,2057.0
403.916999997,2176.0
403.917999997,2175.0
403.918999997,2109.0
403.919999997,2023.0
403.920999997,1932.0
403.921999997,1920.0
403.922999997,1991.0
403.923999997,2094.0
403.924999997,2189.0
403.925999997,2161.0
403.926999997,2103.0
403.927999997,1999.0
403.928999997,1914.0
403.929999997,1966.0
403.930999997,1997.0
403.931999997,2104.0
403.932999997,2190.0
403.933999997,2141.0
403.934999997,2083.0
403.935999997,1973.0
403.936999997,1906.0
403.937999997,1954.0
403.938999997,2021.0
403.939999997,2131.0
403.940999997,2198.0
403.941999997,2126.0
403.942999997,2072.0
403.943999997,1955.0
403.944999997,1894.0
403.945999997,1976.0
403.946999997,2040.0
403.947999997,2171.0
403.948999997,2204.0
403.949999997,2134.0
403.950999997,2048.0
403.951999997,1934.0
403.952999997,1912.0
403.953999997,2002.0
403.954999997,2070.0
403.955999997,2177.0
403.956999997,2179.0
403.957999997,2103.0
403.958999997,2028.0
403.959999997,1915.0
403.960999997,1906.0
403.961999997,1993.0
403.962999997,2076.0
403.963999997,2177.0
403.964999997,2154.0
403.965999997,2095.0
403.966999997,1991.0
403.967999997,1905.0
403.968999997,1925.0
403.969999997,2000.0
403.970999997,2105.0
403.971999997,2193.0
403.972999997,2184.0
403.973999997,2063.0
403.974999997,1949.0
403.975999997,1884.0
403.976999997,1930.0
403.977999997,1994.0
403.978999997,2109.0
403.979999997,2176.0
403.980999997,2103.0
403.981999997,2049.0
403.982999997,1934.0
403.983999997,1878.0
403.984999997,1931.0
403.985999997,2017.0
403.986999997,2151.0
403.987999997,2178.0
403.988999997,2097.0
403.989999997,2036.0
403.990999997,1912.0
403.991999997,1879.0
403.992999997,1943.0
403.993999997,2054.0
403.994999997,2167.0
403.995999997,2180.0
403.996999997,2111.0
403.997999997,2019.0
403.998999997,1922.0
403.999999997,1904.0
404.000999997,1998.0
404.001999997,2135.0
404.002999997,2242.0
404.003999997,2230.0
404.004999997,2169.0
404.005999997,2075.0
404.006999997,1971.0
404.007999997,1975.0
404.008999997,1996.0
404.009999997,2100.0
404.010999997,2161.0
404.011999997,2068.0
404.012999997,1978.0
404.013999997,1867.0
404.014999997,1784.0
404.015999997,1833.0
404.016999997,1918.0
404.017999997,2056.0
404.018999997,2129.0
404.019999997,2081.0
404.020999997,2018.0
404.021999997,1908.0
404.022999997,1866.0
404.023999997,1927.0
404.024999997,1998.0
404.025999997,2152.0
404.026999997,2171.0
404.027999997,2134.0
404.028999997,2052.0
404.029999997,1948.0
404.030999997,1934.0
404.031999997,1987.0
404.032999997,2071.0
404.033999997,2201.0
404.034999997,2212.0
404.035999997,2144.0
404.036999997,2076.0
404.037999997,1942.0
404.038999997,1914.0
404.039999997,1979.0
404.040999997,2090.0
404.041999997,2211.0
404.042999997,2196.0
404.043999997,2116.0
404.044999997,2005.0
404.045999997,1923.0
404.046999997,1948.0
404.047999997,2001.0
404.048999997,2109.0
404.049999997,2208.0
404.050999997,2159.0
404.051999997,2101.0
404.052999997,1987.0
404.053999997,1903.0
404.054999997,1953.0
404.055999997,2032.0
404.056999997,2140.0
404.057999997,2223.0
404.058999997,2159.0
404.059999997,2085.0
404.060999997,1969.0
404.061999997,1914.0
404.062999997,1975.0
404.063999997,2039.0
404.064999997,2162.0
404.065999997,2218.0
404.066999997,2151.0
404.067999997,2069.0
404.068999997,1943.0
404.069999997,1925.0
404.070999997,1994.0
404.071999997,2065.0
404.072999997,2188.0
404.073999997,2217.0
404.074999997,2127.0
404.075999997,2048.0
404.076999997,1937.0
404.077999997,1924.0
404.078999997,1974.0
404.079999997,2084.0
404.080999997,2188.0
404.081999997,2193.0
404.082999997,2125.0
404.083999997,2023.0
404.084999997,1899.0
404.085999997,1957.0
404.086999997,2008.0
404.087999997,2113.0
404.088999997,2225.0
404.089999997,2191.0
404.090999997,2120.0
404.091999997,2027.0
404.092999997,1914.0
404.093999997,1968.0
404.094999997,2022.0
404.095999997,2134.0
404.096999997,2216.0
404.097999997,2160.0
404.098999997,2092.0
404.099999997,1981.0
404.100999997,1909.0
404.101999997,1949.0
404.102999997,2035.0
404.103999997,2172.0
404.104999997,2199.0
404.105999997,2122.0
404.106999997,2058.0
404.107999997,1937.0
404.108999997,1880.0
404.109999997,1974.0
404.110999997,2037.0
404.111999997,2104.0
404.112999997,2174.0
404.113999997,2099.0
404.114999997,2023.0
404.115999997,1902.0
404.116999997,1886.0
404.117999997,1977.0
404.118999997,2057.0
404.119999997,2168.0
404.120999997,2145.0
404.121999997,2088.0
404.122999997,1996.0
404.123999997,1893.0
404.124999997,1897.0
404.125999997,1961.0
404.126999997,2067.0
404.127999997,2174.0
404.128999997,2141.0
404.129999997,2081.0
404.130999997,1978.0
404.131999997,1874.0
404.132999997,1912.0
404.133999997,1981.0
404.134999997,2105.0
404.135999997,2181.0
404.136999997,2112.0
404.137999997,2070.0
404.138999997,1957.0
404.139999997,1889.0
404.140999997,1935.0
404.141999997,2009.0
404.142999997,2140.0
404.143999997,2184.0
404.144999997,2105.0
404.145999997,2055.0
404.146999997,1941.0
404.147999997,1898.0
404.148999997,1970.0
404.149999997,2049.0
404.150999997,2183.0
404.151999997,2193.0
404.152999997,2115.0
404.153999997,2035.0
404.154999997,1921.0
404.155999997,1893.0
404.156999997,1957.0
404.157999997,2065.0
404.158999997,2170.0
404.159999997,2162.0
404.160999997,2063.0
404.161999997,2003.0
404.162999997,1912.0
404.163999997,1910.0
404.164999997,1955.0
404.165999997,2080.0
404.166999997,2175.0
404.167999997,2163.0
404.168999997,2082.0
404.169999997,2007.0
404.170999997,1905.0
404.171999997,1933.0
404.172999997,1979.0
404.173999997,2113.0
404.174999997,2185.0
404.175999997,2159.0
404.176999997,2069.0
404.177999997,1969.0
404.178999997,1898.0
404.179999997,1970.0
404.180999997,2022.0
404.181999997,2147.0
404.182999997,2191.0
404.183999997,2112.0
404.184999997,2058.0
404.185999997,1935.0
404.186999997,1917.0
404.187999997,1952.0
404.188999997,2035.0
404.189999997,2173.0
404.190999997,2174.0
404.191999997,2099.0
404.192999997,2048.0
404.193999997,1920.0
404.194999997,1910.0
404.195999997,1964.0
404.196999997,2056.0
404.197999997,2164.0
404.198999997,2164.0
404.199999997,2106.0
404.200999997,2008.0
404.201999997,1919.0
404.202999997,1934.0
404.203999997,1990.0
404.204999997,2079.0
404.205999997,2189.0
404.206999997,2158.0
404.207999997,2095.0
404.208999997,1997.0
404.209999997,1929.0
404.210999997,1905.0
404.211999997,2003.0
404.212999997,2071.0
404.213999997,2193.0
404.214999997,2133.0
404.215999997,2076.0
404.216999997,1965.0
404.217999997,1903.0
404.218999997,1962.0
404.219999997,2019.0
404.220999997,2137.0
404.221999997,2199.0
404.222999997,2132.0
404.223999997,2072.0
404.224999997,1945.0
404.225999997,1913.0
404.226999997,1977.0
404.227999997,2044.0
404.228999997,2166.0
404.229999997,2204.0
404.230999997,2108.0
404.231999997,2030.0
404.232999997,1921.0
404.233999997,1911.0
404.234999997,1996.0
404.235999997,2068.0
404.236999997,2197.0
404.237999997,2174.0
404.238999997,2100.0
404.239999997,2006.0
404.240999997,1913.0
404.241999997,1902.0
404.242999997,1978.0
404.243999997,2081.0
404.244999997,2191.0
404.245999997,2173.0
404.246999997,2091.0
404.247999997,1981.0
404.248999997,1897.0
404.249999997,1944.0
404.250999997,2002.0
404.251999997,2112.0
404.252999997,2190.0
404.253999997,2147.0
404.254999997,2068.0
404.255999997,1964.0
404.256999997,1885.0
404.257999997,1927.0
404.258999997,1995.0
404.259999997,2123.0
404.260999997,2185.0
404.261999997,2119.0
404.262999997,2054.0
404.263999997,1931.0
404.264999997,1877.0
404.265999997,1935.0
404.266999997,2026.0
404.267999997,2162.0
404.268999997,2173.0
404.269999997,2099.0
404.270999997,2033.0
404.271999997,1919.0
404.272999997,1873.0
404.273999997,1952.0
404.274999997,2057.0
404.275999997,2167.0
404.276999997,2160.0
404.277999997,2102.0
404.278999997,2005.0
404.279999997,1891.0
404.280999997,1888.0
404.281999997,1978.0
404.282999997,2072.0
404.283999997,2183.0
404.284999997,2132.0
404.285999997,2075.0
404.286999997,1978.0
404.287999997,1889.0
404.288999997,1912.0
404.289999997,1986.0
404.290999997,2110.0
404.291999997,2201.0
404.292999997,2137.0
404.293999997,2078.0
404.294999997,1958.0
404.295999997,1874.0
404.296999997,1935.0
404.297999997,2008.0
404.298999997,2133.0
404.299999997,2191.0
404.300999997,2117.0
404.301999997,2060.0
404.302999997,1943.0
404.303999997,1848.0
404.304999997,1939.0
404.305999997,2028.0
404.306999997,2162.0
404.307999997,2195.0
404.308999997,2099.0
404.309999997,2030.0
404.310999997,1910.0
404.311999997,1892.0
404.312999997,1949.0
404.313999997,2054.0
404.314999997,2189.0
404.315999997,2182.0
404.316999997,2100.0
404.317999997,2015.0
404.318999997,1924.0
404.319999997,1894.0
404.320999997,1968.0
404.321999997,2075.0
404.322999997,2183.0
404.323999997,2143.0
404.324999997,2089.0
404.325999997,1990.0
404.326999997,1852.0
404.327999997,1916.0
404.328999997,1975.0
404.329999997,2093.0
404.330999997,2193.0
404.331999997,2139.0
404.332999997,2085.0
404.333999997,1959.0
404.334999997,1881.0
404.335999997,1935.0
404.336999997,2008.0
404.337999997,2117.0
404.338999997,2181.0
404.339999997,2127.0
404.340999997,2050.0
404.341999997,1935.0
404.342999997,1891.0
404.343999997,1948.0
404.344999997,2018.0
404.345999997,2149.0
404.346999997,2171.0
404.347999997,2110.0
404.348999997,2027.0
404.349999997,1913.0
404.350999997,1892.0
404.351999997,1944.0
404.352999997,2031.0
404.353999997,2162.0
404.354999997,2176.0
404.355999997,2100.0
404.356999997,2009.0
404.357999997,1904.0
404.358999997,1906.0
404.359999997,1970.0
404.360999997,2062.0
404.361999997,2185.0
404.362999997,2180.0
404.363999997,2124.0
404.364999997,2018.0
404.365999997,1930.0
404.366999997,1962.0
404.367999997,2037.0
404.368999997,2156.0
404.369999997,2265.0
404.370999997,2223.0
404.371999997,2167.0
404.372999997,2005.0
404.373999997,1918.0
404.374999997,1914.0
404.375999997,1961.0
404.376999997,2032.0
404.377999997,2095.0
404.378999997,2027.0
404.379999997,1970.0
404.380999997,1861.0
404.381999997,1821.0
404.382999997,1894.0
404.383999997,1980.0
404.384999997,2115.0
404.385999997,2162.0
404.386999997,2090.0
404.387999997,2011.0
404.388999997,1903.0
404.389999997,1861.0
404.390999997,1949.0
404.391999997,2040.0
404.392999997,2170.0
404.393999997,2183.0
404.394999997,2121.0
404.395999997,2033.0
404.396999997,1924.0
404.397999997,1917.0
404.398999997,1992.0
404.399999997,2088.0
404.400999997,2187.0
404.401999997,2176.0
404.402999997,2120.0
404.403999997,2020.0
404.404999997,1918.0
404.405999997,1926.0
404.406999997,1999.0
404.407999997,2108.0
404.408999997,2220.0
404.409999997,2157.0
404.410999997,2113.0
404.411999997,1992.0
404.412999997,1919.0
404.413999997,1943.0
404.414999997,2016.0
404.415999997,2134.0
404.416999997,2211.0
404.417999997,2137.0
404.418999997,2089.0
404.419999997,1971.0
404.420999997,1899.0
404.421999997,1961.0
404.422999997,2042.0
404.423999997,2175.0
404.424999997,2219.0
404.425999997,2151.0
404.426999997,2078.0
404.427999997,1949.0
404.428999997,1902.0
404.429999997,1973.0
404.430999997,2062.0
404.431999997,2191.0
404.432999997,2189.0
404.433999997,2127.0
404.434999997,2052.0
404.435999997,1938.0
404.436999997,1921.0
404.437999997,1990.0
404.438999997,2090.0
404.439999997,2193.0
404.440999997,2162.0
404.441999997,2107.0
404.442999997,2025.0
404.443999997,1921.0
404.444999997,1935.0
404.445999997,2004.0
404.446999997,2115.0
404.447999997,2220.0
404.448999997,2199.0
404.449999997,2108.0
404.450999997,2017.0
404.451999997,1920.0
404.452999997,1953.0
404.453999997,2006.0
404.454999997,2141.0
404.455999997,2222.0
404.456999997,2147.0
404.457999997,2089.0
404.458999997,1983.0
404.459999997,1912.0
404.460999997,1962.0
404.461999997,2020.0
404.462999997,2166.0
404.463999997,2217.0
404.464999997,2145.0
404.465999997,2069.0
404.466999997,1947.0
404.467999997,1919.0
404.468999997,1969.0
404.469999997,2052.0
404.470999997,2179.0
404.471999997,2181.0
404.472999997,2094.0
404.473999997,2022.0
404.474999997,1919.0
404.475999997,1906.0
404.476999997,1949.0
404.477999997,2047.0
404.478999997,2164.0
404.479999997,2144.0
404.480999997,2093.0
404.481999997,1990.0
404.482999997,1911.0
404.483999997,1837.0
404.484999997,1936.0
404.485999997,2061.0
404.486999997,2160.0
404.487999997,2133.0
404.488999997,2063.0
404.489999997,1952.0
404.490999997,1883.0
404.491999997,1921.0
404.492999997,1968.0
404.493999997,2073.0
404.494999997,2174.0
404.495999997,2112.0
404.496999997,2049.0
404.497999997,1936.0
404.498999997,1893.0
404.499999997,1934.0
404.500999997,1992.0
404.501999997,2124.0
404.502999997,2173.0
404.503999997,2104.0
404.504999997,2036.0
404.505999997,1918.0
404.506999997,1884.0
404.507999997,1965.0
404.508999997,2045.0
404.509999997,2148.0
404.510999997,2176.0
404.511999997,2114.0
404.512999997,2016.0
404.513999997,1901.0
404.514999997,1904.0
404.515999997,1967.0
404.516999997,2052.0
404.517999997,2156.0
404.518999997,2158.0
404.519999997,2091.0
404.520999997,1993.0
404.521999997,1902.0
404.522999997,1920.0
404.523999997,1987.0
404.524999997,2082.0
404.525999997,2187.0
404.526999997,2162.0
404.527999997,2084.0
404.528999997,1978.0
404.529999997,1906.0
404.530999997,1947.0
404.531999997,1997.0
404.532999997,2097.0
404.533999997,2198.0
404.534999997,2133.0
404.535999997,2073.0
404.536999997,1966.0
404.537999997,1898.0
404.538999997,1955.0
404.539999997,2017.0
404.540999997,2136.0
404.541999997,2190.0
404.542999997,2123.0
404.543999997,2049.0
404.544999997,1931.0
404.545999997,1876.0
404.546999997,1972.0
404.547999997,2042.0
404.548999997,2168.0
404.549999997,2190.0
404.550999997,2115.0
404.551999997,2031.0
404.552999997,1929.0
404.553999997,1911.0
404.554999997,1973.0
404.555999997,2055.0
404.556999997,2182.0
404.557999997,2166.0
404.558999997,2104.0
404.559999997,2008.0
404.560999997,1909.0
404.561999997,1913.0
404.562999997,1971.0
404.563999997,2096.0
404.564999997,2181.0
404.565999997,2145.0
404.566999997,2088.0
404.567999997,1973.0
404.568999997,1891.0
404.569999997,1937.0
404.570999997,1993.0
404.571999997,2107.0
404.572999997,2189.0
404.573999997,2129.0
404.574999997,2100.0
404.575999997,1967.0
404.576999997,1883.0
404.577999997,1947.0
404.578999997,2016.0
404.579999997,2155.0
404.580999997,2194.0
404.581999997,2121.0
404.582999997,2062.0
404.583999997,1935.0
404.584999997,1890.0
404.585999997,1941.0
404.586999997,2036.0
404.587999997,2173.0
404.588999997,2179.0
404.589999997,2113.0
404.590999997,2045.0
404.591999997,1923.0
404.592999997,1888.0
404.593999997,1952.0
404.594999997,2066.0
404.595999997,2184.0
404.596999997,2177.0
404.597999997,2106.0
404.598999997,2021.0
404.599999997,1920.0
404.600999997,1917.0
404.601999997,1973.0
404.602999997,2094.0
404.603999997,2192.0
404.604999997,2151.0
404.605999997,2098.0
404.606999997,1995.0
404.607999997,1897.0
404.608999997,1922.0
404.609999997,1986.0
404.610999997,2119.0
404.611999997,2206.0
404.612999997,2146.0
404.613999997,2075.0
404.614999997,1967.0
404.615999997,1890.0
404.616999997,1964.0
404.617999997,2014.0
404.618999997,2138.0
404.619999997,2200.0
404.620999997,2126.0
404.621999997,2038.0
404.622999997,1941.0
404.623999997,1887.0
404.624999997,1951.0
404.625999997,2026.0
404.626999997,2172.0
404.627999997,2189.0
404.628999997,2105.0
404.629999997,2033.0
404.630999997,1917.0
404.631999997,1907.0
404.632999997,1956.0
404.633999997,2051.0
404.634999997,2167.0
404.635999997,2173.0
404.636999997,2099.0
404.637999997,1999.0
404.638999997,1917.0
404.639999997,1907.0
404.640999997,1962.0
404.641999997,2073.0
404.642999997,2186.0
404.643999997,2148.0
404.644999997,2090.0
404.645999997,1991.0
404.646999997,1901.0
404.647999997,1932.0
404.648999997,1982.0
404.649999997,2102.0
404.650999997,2209.0
404.651999997,2182.0
404.652999997,2095.0
404.653999997,1975.0
404.654999997,1889.0
404.655999997,1961.0
404.656999997,2013.0
404.657999997,2129.0
404.658999997,2185.0
404.659999997,2121.0
404.660999997,2057.0
404.661999997,1925.0
404.662999997,1885.0
404.663999997,1937.0
404.664999997,2023.0
404.665999997,2154.0
404.666999997,2174.0
404.667999997,2121.0
404.668999997,2033.0
404.669999997,1898.0
404.670999997,1895.0
404.671999997,1955.0
404.672999997,2047.0
404.673999997,2179.0
404.674999997,2155.0
404.675999997,2099.0
404.676999997,2002.0
404.677999997,1904.0
404.678999997,1920.0
404.679999997,1998.0
404.680999997,2106.0
404.681999997,2228.0
404.682999997,2208.0
404.683999997,2150.0
404.684999997,2054.0
404.685999997,1958.0
404.686999997,1991.0
404.687999997,2038.0
404.688999997,2122.0
404.689999997,2192.0
404.690999997,2112.0
404.691999997,2029.0
404.692999997,1885.0
404.693999997,1779.0
404.694999997,1850.0
404.695999997,1927.0
404.696999997,2054.0
404.697999997,2138.0
404.698999997,2070.0
404.699999997,2044.0
404.700999997,1916.0
404.701999997,1853.0
404.702999997,1928.0
404.703999997,2002.0
404.704999997,2138.0
404.705999997,2180.0
404.706999997,2105.0
404.707999997,2037.0
404.708999997,1928.0
404.709999997,1887.0
404.710999997,1977.0
404.711999997,2052.0
404.712999997,2192.0
404.713999997,2192.0
404.714999997,2112.0
404.715999997,2037.0
404.716999997,1924.0
404.717999997,1909.0
404.718999997,1986.0
404.719999997,2081.0
404.720999997,2196.0
404.721999997,2150.0
404.722999997,2112.0
404.723999997,2010.0
404.724999997,1904.0
404.725999997,1927.0
404.726999997,1987.0
404.727999997,2096.0
404.728999997,2198.0
404.729999997,2155.0
404.730999997,2105.0
404.731999997,1990.0
404.732999997,1888.0
404.733999997,1938.0
404.734999997,2007.0
404.735999997,2133.0
404.736999997,2212.0
404.737999997,2139.0
404.738999997,2083.0
404.739999997,1964.0
404.740999997,1897.0
404.741999997,1953.0
404.742999997,2028.0
404.743999997,2164.0
404.744999997,2209.0
404.745999997,2122.0
404.746999997,2061.0
404.747999997,1945.0
404.748999997,1891.0
404.749999997,1970.0
404.750999997,2061.0
404.751999997,2181.0
404.752999997,2183.0
404.753999997,2128.0
404.754999997,2037.0
404.755999997,1937.0
404.756999997,1906.0
404.757999997,1985.0
404.758999997,2081.0
404.759999997,2187.0
404.760999997,2179.0
404.761999997,2104.0
404.762999997,2014.0
404.763999997,1931.0
404.764999997,1953.0
404.765999997,1998.0
404.766999997,2112.0
404.767999997,2225.0
404.768999997,2168.0
404.769999997,2103.0
404.770999997,1997.0
404.771999997,1925.0
404.772999997,1954.0
404.773999997,2017.0
404.774999997,2130.0
404.775999997,2211.0
404.776999997,2142.0
404.777999997,2087.0
404.778999997,1958.0
404.779999997,1908.0
404.780999997,1963.0
404.781999997,2017.0
404.782999997,2154.0
404.783999997,2193.0
404.784999997,2132.0
404.785999997,2042.0
404.786999997,1920.0
404.787999997,1899.0
404.788999997,1940.0
404.789999997,2041.0
404.790999997,2187.0
404.791999997,2175.0
404.792999997,2087.0
404.793999997,2006.0
404.794999997,1903.0
404.795999997,1895.0
404.796999997,1928.0
404.797999997,2050.0
404.798999997,2164.0
404.799999997,2147.0
404.800999997,2079.0
404.801999997,1970.0
404.802999997,1890.0
404.803999997,1910.0
404.804999997,1976.0
404.805999997,2075.0
404.806999997,2174.0
404.807999997,2127.0
404.808999997,2063.0
404.809999997,1949.0
404.810999997,1868.0
404.811999997,1919.0
404.812999997,1967.0
404.813999997,2090.0
404.814999997,2173.0
404.815999997,2102.0
404.816999997,2055.0
404.817999997,1933.0
404.818999997,1868.0
404.819999997,1939.0
404.820999997,2003.0
404.821999997,2119.0
404.822999997,2176.0
404.823999997,2098.0
404.824999997,2028.0
404.825999997,1903.0
404.826999997,1868.0
404.827999997,1955.0
404.828999997,2005.0
404.829999997,2154.0
404.830999997,2172.0
404.831999997,2095.0
404.832999997,1991.0
404.833999997,1903.0
404.834999997,1880.0
404.835999997,1965.0
404.836999997,2044.0
404.837999997,2162.0
404.838999997,2146.0
404.839999997,2082.0
404.840999997,1984.0
404.841999997,1880.0
404.842999997,1896.0
404.843999997,1975.0
404.844999997,2082.0
404.845999997,2174.0
404.846999997,2132.0
404.847999997,2097.0
404.848999997,1962.0
404.849999997,1874.0
404.850999997,1920.0
404.851999997,1998.0
404.852999997,2105.0
404.853999997,2194.0
404.854999997,2124.0
404.855999997,2070.0
404.856999997,1936.0
404.857999997,1879.0
404.858999997,1920.0
404.859999997,2023.0
404.860999997,2138.0
404.861999997,2181.0
404.862999997,2106.0
404.863999997,2044.0
404.864999997,1914.0
404.865999997,1876.0
404.866999997,1937.0
404.867999997,2034.0
404.868999997,2165.0
404.869999997,2198.0
404.870999997,2106.0
404.871999997,2029.0
404.872999997,1911.0
404.873999997,1901.0
404.874999997,1961.0
404.875999997,2077.0
404.876999997,2185.0
404.877999997,2173.0
404.878999997,2076.0
404.879999997,1999.0
404.880999997,1904.0
404.881999997,1929.0
404.882999997,1971.0
404.883999997,2106.0
404.884999997,2196.0
404.885999997,2162.0
404.886999997,2081.0
404.887999997,1988.0
404.888999997,1893.0
404.889999997,1913.0
404.890999997,1985.0
404.891999997,2133.0
404.892999997,2214.0
404.893999997,2105.0
404.894999997,2072.0
404.895999997,1959.0
404.896999997,1892.0
404.897999997,1944.0
404.898999997,2007.0
404.899999997,2159.0
404.900999997,2201.0
404.901999997,2115.0
404.902999997,2046.0
404.903999997,1923.0
404.904999997,1872.0
404.905999997,1941.0
404.906999997,2034.0
404.907999997,2175.0
404.908999997,2189.0
404.909999997,2123.0
404.910999997,2028.0
404.911999997,1918.0
404.912999997,1897.0
404.913999997,1957.0
404.914999997,2052.0
404.915999997,2188.0
404.916999997,2183.0
404.917999997,2106.0
404.918999997,2014.0
404.919999997,1913.0
404.920999997,1922.0
404.921999997,2001.0
404.922999997,2093.0
404.923999997,2210.0
404.924999997,2236.0
404.925999997,2111.0
404.926999997,1989.0
404.927999997,1896.0
404.928999997,1931.0
404.929999997,1993.0
404.930999997,2087.0
404.931999997,2210.0
404.932999997,2152.0
404.933999997,2080.0
404.934999997,1968.0
404.935999997,1888.0
404.936999997,1949.0
404.937999997,2000.0
404.938999997,2141.0
404.939999997,2205.0
404.940999997,2130.0
404.941999997,2058.0
404.942999997,1929.0
404.943999997,1895.0
404.944999997,1957.0
404.945999997,2037.0
404.946999997,2157.0
404.947999997,2205.0
404.948999997,2126.0
404.949999997,2040.0
404.950999997,1921.0
404.951999997,1908.0
404.952999997,1970.0
404.953999997,2067.0
404.954999997,2186.0
404.955999997,2187.0
404.956999997,2112.0
404.957999997,2015.0
404.958999997,1911.0
404.959999997,1877.0
404.960999997,1990.0
404.961999997,2095.0
404.962999997,2202.0
404.963999997,2175.0
404.964999997,2125.0
404.965999997,1995.0
404.966999997,1895.0
404.967999997,1941.0
404.968999997,2005.0
404.969999997,2098.0
404.970999997,2205.0
404.971999997,2154.0
404.972999997,2089.0
404.973999997,1964.0
404.974999997,1877.0
404.975999997,1941.0
404.976999997,1992.0
404.977999997,2130.0
404.978999997,2207.0
404.979999997,2130.0
404.980999997,2054.0
404.981999997,1926.0
404.982999997,1868.0
404.983999997,1946.0
404.984999997,2029.0
404.985999997,2171.0
404.986999997,2194.0
404.987999997,2122.0
404.988999997,2039.0
404.989999997,1914.0
404.990999997,1878.0
404.991999997,1965.0
404.992999997,2040.0
404.993999997,2162.0
404.994999997,2160.0
404.995999997,2098.0
404.996999997,2007.0
404.997999997,1894.0
404.998999997,1885.0
404.999999997,1961.0
405.000999997,2071.0
405.001999997,2184.0
405.002999997,2152.0
405.003999997,2091.0
405.004999997,1985.0
405.005999997,1872.0
405.006999997,1919.0
405.007999997,1981.0
405.008999997,2107.0
405.009999997,2200.0
405.010999997,2148.0
405.011999997,2109.0
405.012999997,2016.0
405.013999997,1937.0
405.014999997,2003.0
405.015999997,2062.0
405.016999997,2201.0
405.017999997,2243.0
405.018999997,2159.0
405.019999997,2077.0
405.020999997,1926.0
405.021999997,1826.0
405.022999997,1864.0
405.023999997,1918.0
405.024999997,2059.0
405.025999997,2083.0
405.026999997,2018.0
405.027999997,1962.0
405.028999997,1835.0
405.029999997,1821.0
405.030999997,1918.0
405.031999997,2002.0
405.032999997,2138.0
405.033999997,2145.0
405.034999997,2077.0
405.035999997,2004.0
405.036999997,1908.0
405.037999997,1909.0
405.038999997,1964.0
405.039999997,2088.0
405.040999997,2267.0
405.041999997,2174.0
405.042999997,2103.0
405.043999997,2007.0
405.044999997,1919.0
405.045999997,1922.0
405.046999997,1994.0
405.047999997,2118.0
405.048999997,2204.0
405.049999997,2165.0
405.050999997,2086.0
405.051999997,2003.0
405.052999997,1907.0
405.053999997,1951.0
405.054999997,2009.0
405.055999997,2141.0
405.056999997,2202.0
405.057999997,2132.0
405.058999997,2074.0
405.059999997,1963.0
405.060999997,1908.0
405.061999997,1955.0
405.062999997,2047.0
405.063999997,2173.0
405.064999997,2201.0
405.065999997,2130.0
405.066999997,2053.0
405.067999997,1943.0
405.068999997,1925.0
405.069999997,2003.0
405.070999997,2061.0
405.071999997,2190.0
405.072999997,2196.0
405.073999997,2132.0
405.074999997,2032.0
405.075999997,1932.0
405.076999997,1923.0
405.077999997,1986.0
405.078999997,2096.0
405.079999997,2204.0
405.080999997,2172.0
405.081999997,2130.0
405.082999997,2017.0
405.083999997,1923.0
405.084999997,1956.0
405.085999997,2011.0
405.086999997,2112.0
405.087999997,2217.0
405.088999997,2165.0
405.089999997,2098.0
405.090999997,1985.0
405.091999997,1914.0
405.092999997,1953.0
405.093999997,2030.0
405.094999997,2141.0
405.095999997,2228.0
405.096999997,2148.0
405.097999997,2090.0
405.098999997,1967.0
405.099999997,1921.0
405.100999997,1982.0
405.101999997,2046.0
405.102999997,2183.0
405.103999997,2217.0
405.104999997,2130.0
405.105999997,2072.0
405.106999997,1896.0
405.107999997,1917.0
405.108999997,1986.0
405.109999997,2056.0
405.110999997,2173.0
405.111999997,2195.0
405.112999997,2103.0
405.113999997,2016.0
405.114999997,1913.0
405.115999997,1905.0
405.116999997,1970.0
405.117999997,2060.0
405.118999997,2170.0
405.119999997,2168.0
405.120999997,2087.0
405.121999997,1978.0
405.122999997,1880.0
405.123999997,1918.0
405.124999997,1968.0
405.125999997,2078.0
405.126999997,2185.0
405.127999997,2117.0
405.128999997,2051.0
405.129999997,1940.0
405.130999997,1852.0
405.131999997,1910.0
405.132999997,1973.0
405.133999997,2099.0
405.134999997,2172.0
405.135999997,2109.0
405.136999997,2057.0
405.137999997,1920.0
405.138999997,1859.0
405.139999997,1935.0
405.140999997,2009.0
405.141999997,2135.0
405.142999997,2164.0
405.143999997,2089.0
405.144999997,2018.0
405.145999997,1890.0
405.146999997,1852.0
405.147999997,1949.0
405.148999997,2028.0
405.149999997,2167.0
405.150999997,2154.0
405.151999997,2093.0
405.152999997,1981.0
405.153999997,1886.0
405.154999997,1870.0
405.155999997,1950.0
405.156999997,2058.0
405.157999997,2172.0
405.158999997,2151.0
405.159999997,2093.0
405.160999997,1993.0
405.161999997,1888.0
405.162999997,1902.0
405.163999997,1959.0
405.164999997,2088.0
405.165999997,2176.0
405.166999997,2130.0
405.167999997,2097.0
405.168999997,1973.0
405.169999997,1881.0
405.170999997,1923.0
405.171999997,2005.0
405.172999997,2104.0
405.173999997,2201.0
405.174999997,2127.0
405.175999997,2066.0
405.176999997,1947.0
405.177999997,1875.0
405.178999997,1936.0
405.179999997,2024.0
405.180999997,2160.0
405.181999997,2202.0
405.182999997,2119.0
405.183999997,2048.0
405.184999997,1916.0
405.185999997,1884.0
405.186999997,1959.0
405.187999997,2049.0
405.188999997,2175.0
405.189999997,2195.0
405.190999997,2118.0
405.191999997,2033.0
405.192999997,1925.0
405.193999997,1905.0
405.194999997,1977.0
405.195999997,2082.0
405.196999997,2203.0
405.197999997,2209.0
405.198999997,2121.0
405.199999997,2011.0
405.200999997,1911.0
405.201999997,1920.0
405.202999997,1987.0
405.203999997,2097.0
405.204999997,2201.0
405.205999997,2157.0
405.206999997,2098.0
405.207999997,1989.0
405.208999997,1905.0
405.209999997,1946.0
405.210999997,2003.0
405.211999997,2128.0
405.212999997,2220.0
405.213999997,2146.0
405.214999997,2075.0
405.215999997,1962.0
405.216999997,1894.0
405.217999997,1926.0
405.218999997,2016.0
405.219999997,2151.0
405.220999997,2189.0
405.221999997,2134.0
405.222999997,2054.0
405.223999997,1929.0
405.224999997,1890.0
405.225999997,1974.0
405.226999997,2045.0
405.227999997,2174.0
405.228999997,2199.0
405.229999997,2124.0
405.230999997,2027.0
405.231999997,1919.0
405.232999997,1908.0
405.233999997,1966.0
405.234999997,2067.0
405.235999997,2187.0
405.236999997,2186.0
405.237999997,2116.0
405.238999997,2007.0
405.239999997,1914.0
405.240999997,1925.0
405.241999997,1969.0
405.242999997,2086.0
405.243999997,2197.0
405.244999997,2159.0
405.245999997,2093.0
405.246999997,1974.0
405.247999997,1909.0
405.248999997,1929.0
405.249999997,1996.0
405.250999997,2104.0
405.251999997,2196.0
405.252999997,2128.0
405.253999997,2071.0
405.254999997,1937.0
405.255999997,1887.0
405.256999997,1928.0
405.257999997,2011.0
405.258999997,2134.0
405.259999997,2207.0
405.260999997,2133.0
405.261999997,2056.0
405.262999997,1926.0
405.263999997,1888.0
405.264999997,1960.0
405.265999997,2044.0
405.266999997,2119.0
405.267999997,2199.0
405.268999997,2122.0
405.269999997,2016.0
405.270999997,1909.0
405.271999997,1895.0
405.272999997,1970.0
405.273999997,2070.0
405.274999997,2186.0
405.275999997,2187.0
405.276999997,2114.0
405.277999997,2010.0
405.278999997,1910.0
405.279999997,1899.0
405.280999997,1994.0
405.281999997,2087.0
405.282999997,2196.0
405.283999997,2160.0
405.284999997,2095.0
405.285999997,1985.0
405.286999997,1887.0
405.287999997,1930.0
405.288999997,1992.0
405.289999997,2102.0
405.290999997,2199.0
405.291999997,2136.0
405.292999997,2098.0
405.293999997,1969.0
405.294999997,1878.0
405.295999997,1941.0
405.296999997,1994.0
405.297999997,2125.0
405.298999997,2183.0
405.299999997,2108.0
405.300999997,2056.0
405.301999997,1926.0
405.302999997,1869.0
405.303999997,1923.0
405.304999997,2011.0
405.305999997,2164.0
405.306999997,2183.0
405.307999997,2104.0
405.308999997,2033.0
405.309999997,1907.0
405.310999997,1873.0
405.311999997,1944.0
405.312999997,2041.0
405.313999997,2172.0
405.314999997,2156.0
405.315999997,2095.0
405.316999997,2013.0
405.317999997,1868.0
405.318999997,1884.0
405.319999997,1964.0
405.320999997,2063.0
405.321999997,2175.0
405.322999997,2147.0
405.323999997,2081.0
405.324999997,1983.0
405.325999997,1882.0
405.326999997,1900.0
405.327999997,1982.0
405.328999997,2102.0
405.329999997,2193.0
405.330999997,2137.0
405.331999997,2068.0
405.332999997,1966.0
405.333999997,1887.0
405.334999997,1934.0
405.335999997,1999.0
405.336999997,2137.0
405.337999997,2199.0
405.338999997,2116.0
405.339999997,2053.0
405.340999997,1942.0
405.341999997,1892.0
405.342999997,1944.0
405.343999997,2031.0
405.344999997,2171.0
405.345999997,2193.0
405.346999997,2116.0
405.347999997,2040.0
405.348999997,1929.0
405.349999997,1892.0
405.350999997,1954.0
405.351999997,2047.0
405.352999997,2188.0
405.353999997,2176.0
405.354999997,2133.0
405.355999997,2012.0
405.356999997,1915.0
405.357999997,1907.0
405.358999997,1964.0
405.359999997,2073.0
405.360999997,2190.0
405.361999997,2158.0
405.362999997,2100.0
405.363999997,1980.0
405.364999997,1905.0
405.365999997,1911.0
405.366999997,1969.0
405.367999997,2096.0
405.368999997,2185.0
405.369999997,2133.0
405.370999997,2056.0
405.371999997,1952.0
405.372999997,1888.0
405.373999997,1935.0
405.374999997,1989.0
405.375999997,2125.0
405.376999997,2181.0
405.377999997,2134.0
405.378999997,2069.0
405.379999997,1928.0
405.380999997,1893.0
405.381999997,1948.0
405.382999997,2025.0
405.383999997,2177.0
405.384999997,2197.0
405.385999997,2125.0
405.386999997,2074.0
405.387999997,1953.0
405.388999997,1957.0
405.389999997,2037.0
405.390999997,2128.0
405.391999997,2246.0
405.392999997,2250.0
405.393999997,2180.0
405.394999997,2057.0
405.395999997,1924.0
405.396999997,1910.0
405.397999997,1937.0
405.398999997,1999.0
405.399999997,2086.0
405.400999997,2065.0
405.401999997,1975.0
405.402999997,1881.0
405.403999997,1804.0
405.404999997,1870.0
405.405999997,1957.0
405.406999997,2052.0
405.407999997,2164.0
405.408999997,2121.0
405.409999997,2074.0
405.410999997,1948.0
405.411999997,1865.0
405.412999997,1952.0
405.413999997,2031.0
405.414999997,2141.0
405.415999997,2231.0
405.416999997,2160.0
405.417999997,2095.0
405.418999997,1969.0
405.419999997,1914.0
405.420999997,1992.0
405.421999997,2064.0
405.422999997,2192.0
405.423999997,2228.0
405.424999997,2148.0
405.425999997,2069.0
405.426999997,1939.0
405.427999997,1922.0
405.428999997,1991.0
405.429999997,2069.0
405.430999997,2204.0
405.431999997,2199.0
405.432999997,2129.0
405.433999997,2041.0
405.434999997,1929.0
405.435999997,1934.0
405.436999997,1999.0
405.437999997,2099.0
405.438999997,2199.0
405.439999997,2188.0
405.440999997,2119.0
405.441999997,2008.0
405.442999997,1926.0
405.443999997,1938.0
405.444999997,2011.0
405.445999997,2125.0
405.446999997,2216.0
405.447999997,2163.0
405.448999997,2103.0
405.449999997,1985.0
405.450999997,1896.0
405.451999997,1941.0
405.452999997,2032.0
405.453999997,2158.0
405.454999997,2263.0
405.455999997,2158.0
405.456999997,2103.0
405.457999997,1976.0
405.458999997,1897.0
405.459999997,1972.0
405.460999997,2062.0
405.461999997,2198.0
405.462999997,2235.0
405.463999997,2165.0
405.464999997,2071.0
405.465999997,1943.0
405.466999997,1926.0
405.467999997,1982.0
405.468999997,2082.0
405.469999997,2212.0
405.470999997,2218.0
405.471999997,2128.0
405.472999997,2047.0
405.473999997,1937.0
405.474999997,1920.0
405.475999997,1987.0
405.476999997,2108.0
405.477999997,2217.0
405.478999997,2186.0
405.479999997,2109.0
405.480999997,2013.0
405.481999997,1911.0
405.482999997,1936.0
405.483999997,1989.0
405.484999997,2105.0
405.485999997,2206.0
405.486999997,2145.0
405.487999997,2098.0
405.488999997,1976.0
405.489999997,1891.0
405.490999997,1923.0
405.491999997,1950.0
405.492999997,2122.0
405.493999997,2204.0
405.494999997,2125.0
405.495999997,2053.0
405.496999997,1944.0
405.497999997,1865.0
405.498999997,1920.0
405.499999997,1991.0
405.500999997,2136.0
405.501999997,2178.0
405.502999997,2086.0
405.503999997,1974.0
405.504999997,1884.0
405.505999997,1855.0
405.506999997,1922.0
405.507999997,2006.0
405.508999997,2140.0
405.509999997,2156.0
405.510999997,2077.0
405.511999997,1976.0
405.512999997,1870.0
405.513999997,1867.0
405.514999997,1922.0
405.515999997,2009.0
405.516999997,2144.0
405.517999997,2137.0
405.518999997,2089.0
405.519999997,1957.0
405.520999997,1867.0
405.521999997,1891.0
405.522999997,1955.0
405.523999997,2058.0
405.524999997,2174.0
405.525999997,2125.0
405.526999997,2065.0
405.527999997,1947.0
405.528999997,1865.0
405.529999997,1931.0
405.530999997,1978.0
405.531999997,2097.0
405.532999997,2186.0
405.533999997,2125.0
405.534999997,2060.0
405.535999997,1935.0
405.536999997,1877.0
405.537999997,1945.0
405.538999997,2013.0
405.539999997,2136.0
405.540999997,2223.0
405.541999997,2130.0
405.542999997,2059.0
405.543999997,1929.0
405.544999997,1899.0
405.545999997,1960.0
405.546999997,2039.0
405.547999997,2180.0
405.548999997,2193.0
405.549999997,2120.0
405.550999997,2030.0
405.551999997,1908.0
405.552999997,1901.0
405.553999997,1966.0
405.554999997,2074.0
405.555999997,2175.0
405.556999997,2171.0
405.557999997,2114.0
405.558999997,2006.0
405.559999997,1871.0
405.560999997,1927.0
405.561999997,1991.0
405.562999997,2098.0
405.563999997,2208.0
405.564999997,2171.0
405.565999997,2105.0
405.566999997,1988.0
405.567999997,1889.0
405.568999997,1962.0
405.569999997,2010.0
405.570999997,2117.0
405.571999997,2214.0
405.572999997,2154.0
405.573999997,2091.0
405.574999997,1966.0
405.575999997,1888.0
405.576999997,1971.0
405.577999997,2030.0
405.578999997,2166.0
405.579999997,2208.0
405.580999997,2151.0
405.581999997,2090.0
405.582999997,1942.0
405.583999997,1892.0
405.584999997,1962.0
405.585999997,2043.0
405.586999997,2181.0
405.587999997,2177.0
405.588999997,2123.0
405.589999997,2036.0
405.590999997,1914.0
405.591999997,1887.0
405.592999997,1973.0
405.593999997,2067.0
405.594999997,2177.0
405.595999997,2170.0
405.596999997,2114.0
405.597999997,2010.0
405.598999997,1893.0
405.599999997,1912.0
405.600999997,1979.0
405.601999997,2080.0
405.602999997,2184.0
405.603999997,2147.0
405.604999997,2088.0
405.605999997,1980.0
405.606999997,1869.0
405.607999997,1916.0
405.608999997,1979.0
405.609999997,2123.0
405.610999997,2204.0
405.611999997,2107.0
405.612999997,2077.0
405.613999997,1957.0
405.614999997,1875.0
405.615999997,1939.0
405.616999997,2000.0
405.617999997,2139.0
405.618999997,2178.0
405.619999997,2123.0
405.620999997,2054.0
405.621999997,1937.0
405.622999997,1878.0
405.623999997,1945.0
405.624999997,2031.0
405.625999997,2169.0
405.626999997,2161.0
405.627999997,2113.0
405.628999997,2040.0
405.629999997,1918.0
405.630999997,1875.0
405.631999997,1957.0
405.632999997,2053.0
405.633999997,2173.0
405.634999997,2158.0
405.635999997,2088.0
405.636999997,1997.0
405.637999997,1907.0
405.638999997,1904.0
405.639999997,1962.0
405.640999997,2086.0
405.641999997,2181.0
405.642999997,2144.0
405.643999997,2105.0
405.644999997,1978.0
405.645999997,1890.0
405.646999997,1919.0
405.647999997,1972.0
405.648999997,2098.0
405.649999997,2188.0
405.650999997,2129.0
405.651999997,2073.0
405.652999997,1950.0
405.653999997,1877.0
405.654999997,1938.0
405.655999997,2000.0
405.656999997,2133.0
405.657999997,2193.0
405.658999997,2127.0
405.659999997,2054.0
405.660999997,1927.0
405.661999997,1894.0
405.662999997,1949.0
405.663999997,2018.0
405.664999997,2172.0
405.665999997,2190.0
405.666999997,2101.0
405.667999997,2029.0
405.668999997,1913.0
405.669999997,1906.0
405.670999997,1968.0
405.671999997,2065.0
405.672999997,2185.0
405.673999997,2170.0
405.674999997,2114.0
405.675999997,2005.0
405.676999997,1901.0
405.677999997,1914.0
405.678999997,1977.0
405.679999997,2073.0
405.680999997,2189.0
405.681999997,2153.0
405.682999997,2103.0
405.683999997,1984.0
405.684999997,1893.0
405.685999997,1937.0
405.686999997,1979.0
405.687999997,2109.0
405.688999997,2189.0
405.689999997,2137.0
405.690999997,2081.0
405.691999997,1964.0
405.692999997,1879.0
405.693999997,1940.0
405.694999997,2017.0
405.695999997,2140.0
405.696999997,2182.0
405.697999997,2108.0
405.698999997,2058.0
405.699999997,1917.0
405.700999997,1880.0
405.701999997,1952.0
405.702999997,2034.0
405.703999997,2157.0
405.704999997,2180.0
405.705999997,2100.0
405.706999997,2039.0
405.707999997,1902.0
405.708999997,1893.0
405.709999997,1973.0
405.710999997,2053.0
405.711999997,2166.0
405.712999997,2169.0
405.713999997,2093.0
405.714999997,2003.0
405.715999997,1895.0
405.716999997,1894.0
405.717999997,1978.0
405.718999997,2084.0
405.719999997,2187.0
405.720999997,2152.0
405.721999997,2097.0
405.722999997,1995.0
405.723999997,1873.0
405.724999997,1930.0
405.725999997,1993.0
405.726999997,2109.0
405.727999997,2200.0
405.728999997,2136.0
405.729999997,2083.0
405.730999997,1967.0
405.731999997,1851.0
405.732999997,1939.0
405.733999997,2013.0
405.734999997,2126.0
405.735999997,2207.0
405.736999997,2125.0
405.737999997,2057.0
405.738999997,1935.0
405.739999997,1901.0
405.740999997,1942.0
405.741999997,2037.0
405.742999997,2132.0
405.743999997,2190.0
405.744999997,2116.0
405.745999997,2044.0
405.746999997,1910.0
405.747999997,1885.0
405.748999997,1962.0
405.749999997,2063.0
405.750999997,2174.0
405.751999997,2179.0
405.752999997,2110.0
405.753999997,2006.0
405.754999997,1890.0
405.755999997,1896.0
405.756999997,1957.0
405.757999997,2082.0
405.758999997,2174.0
405.759999997,2148.0
405.760999997,2083.0
405.761999997,1983.0
405.762999997,1883.0
405.763999997,1916.0
405.764999997,1999.0
405.765999997,2110.0
405.766999997,2204.0
405.767999997,2131.0
405.768999997,2078.0
405.769999997,1976.0
405.770999997,1892.0
405.771999997,1966.0
405.772999997,2042.0
405.773999997,2197.0
405.774999997,2256.0
405.775999997,2193.0
405.776999997,2096.0
405.777999997,2002.0
405.778999997,1926.0
405.779999997,1961.0
405.780999997,2009.0
405.781999997,2147.0
405.782999997,2128.0
405.783999997,2026.0
405.784999997,1927.0
405.785999997,1813.0
405.786999997,1790.0
405.787999997,1877.0
405.788999997,1971.0
405.789999997,2131.0
405.790999997,2137.0
405.791999997,2067.0
405.792999997,1966.0
405.793999997,1836.0
405.794999997,1862.0
405.795999997,1944.0
405.796999997,2044.0
405.797999997,2185.0
405.798999997,2166.0
405.799999997,2115.0
405.800999997,1997.0
405.801999997,1911.0
405.802999997,1938.0
405.803999997,1998.0
405.804999997,2117.0
405.805999997,2242.0
405.806999997,2183.0
405.807999997,2117.0
405.808999997,1994.0
405.809999997,1901.0
405.810999997,1961.0
405.811999997,2011.0
405.812999997,2142.0
405.813999997,2233.0
405.814999997,2174.0
405.815999997,2086.0
405.816999997,1957.0
405.817999997,1901.0
405.818999997,1970.0
405.819999997,2046.0
405.820999997,2176.0
405.821999997,2218.0
405.822999997,2147.0
405.823999997,2059.0
405.824999997,1942.0
405.825999997,1915.0
405.826999997,1977.0
405.827999997,2067.0
405.828999997,2193.0
405.829999997,2233.0
405.830999997,2141.0
405.831999997,2038.0
405.832999997,1936.0
405.833999997,1923.0
405.834999997,1997.0
405.835999997,2096.0
405.836999997,2212.0
405.837999997,2204.0
405.838999997,2119.0
405.839999997,2040.0
405.840999997,1909.0
405.841999997,1938.0
405.842999997,2012.0
405.843999997,2117.0
405.844999997,2225.0
405.845999997,2181.0
405.846999997,2125.0
405.847999997,1995.0
405.848999997,1896.0
405.849999997,1971.0
405.850999997,2026.0
405.851999997,2147.0
405.852999997,2228.0
405.853999997,2165.0
405.854999997,2104.0
405.855999997,1968.0
405.856999997,1890.0
405.857999997,1980.0
405.858999997,2044.0
405.859999997,2189.0
405.860999997,2224.0
405.861999997,2136.0
405.862999997,2075.0
405.863999997,1912.0
405.864999997,1908.0
405.865999997,1985.0
405.866999997,2063.0
405.867999997,2194.0
405.868999997,2200.0
405.869999997,2131.0
405.870999997,2051.0
405.871999997,1923.0
405.872999997,1912.0
405.873999997,1977.0
405.874999997,2077.0
405.875999997,2192.0
405.876999997,2180.0
405.877999997,2111.0
405.878999997,2009.0
405.879999997,1888.0
405.880999997,1907.0
405.881999997,1975.0
405.882999997,2098.0
405.883999997,2198.0
405.884999997,2148.0
405.885999997,2098.0
405.886999997,1975.0
405.887999997,1865.0
405.888999997,1907.0
405.889999997,1985.0
405.890999997,2110.0
405.891999997,2189.0
405.892999997,2113.0
405.893999997,2056.0
405.894999997,1938.0
405.895999997,1866.0
405.896999997,1916.0
405.897999997,1985.0
405.898999997,2145.0
405.899999997,2187.0
405.900999997,2083.0
405.901999997,2041.0
405.902999997,1919.0
405.903999997,1866.0
405.904999997,1938.0
405.905999997,2023.0
405.906999997,2149.0
405.907999997,2165.0
405.908999997,2095.0
405.909999997,2017.0
405.910999997,1895.0
405.911999997,1864.0
405.912999997,1934.0
405.913999997,2047.0
405.914999997,2161.0
405.915999997,2156.0
405.916999997,2091.0
405.917999997,1999.0
405.918999997,1881.0
405.919999997,1889.0
405.920999997,1957.0
405.921999997,2082.0
405.922999997,2172.0
405.923999997,2143.0
405.924999997,2074.0
405.925999997,1979.0
405.926999997,1885.0
405.927999997,1922.0
405.928999997,1974.0
405.929999997,2108.0
405.930999997,2180.0
405.931999997,2130.0
405.932999997,2067.0
405.933999997,1953.0
405.934999997,1868.0
405.935999997,1936.0
405.936999997,2006.0
405.937999997,2156.0
405.938999997,2189.0
405.939999997,2116.0
405.940999997,2042.0
405.941999997,1923.0
405.942999997,1886.0
405.943999997,1952.0
405.944999997,2026.0
405.945999997,2169.0
405.946999997,2187.0
405.947999997,2111.0
405.948999997,2020.0
405.949999997,1910.0
405.950999997,1875.0
405.951999997,1959.0
405.952999997,2046.0
405.953999997,2170.0
405.954999997,2157.0
405.955999997,2096.0
405.956999997,1984.0
405.957999997,1895.0
405.958999997,1902.0
405.959999997,1968.0
405.960999997,2071.0
405.961999997,2182.0
405.962999997,2133.0
405.963999997,2085.0
405.964999997,1970.0
405.965999997,1882.0
405.966999997,1920.0
405.967999997,1990.0
405.968999997,2092.0
405.969999997,2197.0
405.970999997,2127.0
405.971999997,2074.0
405.972999997,1943.0
405.973999997,1878.0
405.974999997,1943.0
405.975999997,2004.0
405.976999997,2153.0
405.977999997,2197.0
405.978999997,2097.0
405.979999997,2045.0
405.980999997,1912.0
405.981999997,1876.0
405.982999997,1953.0
405.983999997,2025.0
405.984999997,2162.0
405.985999997,2166.0
405.986999997,2093.0
405.987999997,2022.0
405.988999997,1889.0
405.989999997,1886.0
405.990999997,1964.0
405.991999997,2052.0
405.992999997,2162.0
405.993999997,2163.0
405.994999997,2097.0
405.995999997,1992.0
405.996999997,1888.0
405.997999997,1892.0
405.998999997,1964.0
405.999999997,2074.0
406.000999997,2180.0
406.001999997,2149.0
406.002999997,2085.0
406.003999997,1973.0
406.004999997,1865.0
406.005999997,1929.0
406.006999997,1985.0
406.007999997,2107.0
406.008999997,2190.0
406.009999997,2128.0
406.010999997,2077.0
406.011999997,1930.0
406.012999997,1867.0
406.013999997,1950.0
406.014999997,2010.0
406.015999997,2133.0
406.016999997,2190.0
406.017999997,2121.0
406.018999997,2053.0
406.019999997,1929.0
406.020999997,1877.0
406.021999997,1963.0
406.022999997,2042.0
406.023999997,2185.0
406.024999997,2215.0
406.025999997,2122.0
406.026999997,2041.0
406.027999997,1912.0
406.028999997,1887.0
406.029999997,1979.0
406.030999997,2070.0
406.031999997,2189.0
406.032999997,2174.0
406.033999997,2112.0
406.034999997,2009.0
406.035999997,1897.0
406.036999997,1904.0
406.037999997,1981.0
406.038999997,2095.0
406.039999997,2203.0
406.040999997,2160.0
406.041999997,2103.0
406.042999997,1990.0
406.043999997,1891.0
406.044999997,1922.0
406.045999997,1987.0
406.046999997,2115.0
406.047999997,2208.0
406.048999997,2122.0
406.049999997,2071.0
406.050999997,1962.0
406.051999997,1885.0
406.052999997,1944.0
406.053999997,2011.0
406.054999997,2148.0
406.055999997,2198.0
406.056999997,2129.0
406.057999997,2058.0
406.058999997,1927.0
406.059999997,1872.0
406.060999997,1939.0
406.061999997,2033.0
406.062999997,2178.0
406.063999997,2199.0
406.064999997,2105.0
406.065999997,2032.0
406.066999997,1920.0
406.067999997,1884.0
406.068999997,1939.0
406.069999997,2055.0
406.070999997,2185.0
406.071999997,2171.0
406.072999997,2084.0
406.073999997,2010.0
406.074999997,1887.0
406.075999997,1894.0
406.076999997,1953.0
406.077999997,2075.0
406.078999997,2185.0
406.079999997,2143.0
406.080999997,2082.0
406.081999997,1982.0
406.082999997,1882.0
406.083999997,1902.0
406.084999997,1972.0
406.085999997,2091.0
406.086999997,2198.0
406.087999997,2126.0
406.088999997,2059.0
406.089999997,1933.0
406.090999997,1873.0
406.091999997,1924.0
406.092999997,1985.0
406.093999997,2123.0
406.094999997,2187.0
406.095999997,2104.0
406.096999997,2060.0
406.097999997,1926.0
406.098999997,1881.0
406.099999997,1938.0
406.100999997,2016.0
406.101999997,2162.0
406.102999997,2197.0
406.103999997,2123.0
406.104999997,2044.0
406.105999997,1934.0
406.106999997,1929.0
406.107999997,1997.0
406.108999997,2094.0
406.109999997,2233.0
406.110999997,2248.0
406.111999997,2178.0
406.112999997,2056.0
406.113999997,1936.0
406.114999997,1906.0
406.115999997,1935.0
406.116999997,2011.0
406.117999997,2106.0
406.118999997,2083.0
406.119999997,2023.0
406.120999997,1910.0
406.121999997,1826.0
406.122999997,1860.0
406.123999997,1930.0
406.124999997,2067.0
406.125999997,2174.0
406.126999997,2123.0
406.127999997,2067.0
406.128999997,1936.0
406.129999997,1854.0
406.130999997,1913.0
406.131999997,1990.0
406.132999997,2128.0
406.133999997,2214.0
406.134999997,2148.0
406.135999997,2084.0
406.136999997,1941.0
406.137999997,1895.0
406.138999997,1960.0
406.139999997,2046.0
406.140999997,2179.0
406.141999997,2203.0
406.142999997,2142.0
406.143999997,2061.0
406.144999997,1919.0
406.145999997,1898.0
406.146999997,1966.0
406.147999997,2057.0
406.148999997,2222.0
406.149999997,2203.0
406.150999997,2129.0
406.151999997,2032.0
406.152999997,1919.0
406.153999997,1914.0
406.154999997,1999.0
406.155999997,2092.0
406.156999997,2211.0
406.157999997,2200.0
406.158999997,2130.0
406.159999997,2027.0
406.160999997,1910.0
406.161999997,1943.0
406.162999997,2003.0
406.163999997,2123.0
406.164999997,2225.0
406.165999997,2171.0
406.166999997,2114.0
406.167999997,1993.0
406.168999997,1888.0
406.169999997,1960.0
406.170999997,2020.0
406.171999997,2155.0
406.172999997,2232.0
406.173999997,2171.0
406.174999997,2108.0
406.175999997,1966.0
406.176999997,1902.0
406.177999997,1971.0
406.178999997,2049.0
406.179999997,2174.0
406.180999997,2228.0
406.181999997,2144.0
406.182999997,2076.0
406.183999997,1940.0
406.184999997,1907.0
406.185999997,1998.0
406.186999997,2076.0
406.187999997,2217.0
406.188999997,2212.0
406.189999997,2145.0
406.190999997,2055.0
406.191999997,1937.0
406.192999997,1930.0
406.193999997,1999.0
406.194999997,2099.0
406.195999997,2216.0
406.196999997,2199.0
406.197999997,2131.0
406.198999997,2027.0
406.199999997,1921.0
406.200999997,1922.0
406.201999997,1986.0
406.202999997,2126.0
406.203999997,2231.0
406.204999997,2175.0
406.205999997,2110.0
406.206999997,2004.0
406.207999997,1905.0
406.208999997,1929.0
406.209999997,2000.0
406.210999997,2135.0
406.211999997,2214.0
406.212999997,2146.0
406.213999997,2080.0
406.214999997,1953.0
406.215999997,1883.0
406.216999997,1930.0
406.217999997,1993.0
406.218999997,2157.0
406.219999997,2204.0
406.220999997,2162.0
406.221999997,2029.0
406.222999997,1913.0
406.223999997,1873.0
406.224999997,1895.0
406.225999997,2021.0
406.226999997,2157.0
406.227999997,2172.0
406.228999997,2091.0
406.229999997,2002.0
406.230999997,1915.0
406.231999997,1889.0
406.232999997,1962.0
406.233999997,2056.0
406.234999997,2173.0
406.235999997,2162.0
406.236999997,2096.0
406.237999997,1990.0
406.238999997,1905.0
406.239999997,1910.0
406.240999997,1976.0
406.241999997,2074.0
406.242999997,2189.0
406.243999997,2139.0
406.244999997,2075.0
406.245999997,1963.0
406.246999997,1891.0
406.247999997,1922.0
406.248999997,1957.0
406.249999997,2105.0
406.250999997,2190.0
406.251999997,2137.0
406.252999997,2066.0
406.253999997,1945.0
406.254999997,1892.0
406.255999997,1946.0
406.256999997,2008.0
406.257999997,2120.0
406.258999997,2192.0
406.259999997,2111.0
406.260999997,2056.0
406.261999997,1909.0
406.262999997,1894.0
406.263999997,1968.0
406.264999997,2032.0
406.265999997,2162.0
406.266999997,2196.0
406.267999997,2111.0
406.268999997,2026.0
406.269999997,1906.0
406.270999997,1911.0
406.271999997,1963.0
406.272999997,2060.0
406.273999997,2186.0
406.274999997,2170.0
406.275999997,2096.0
406.276999997,1992.0
406.277999997,1885.0
406.278999997,1935.0
406.279999997,1978.0
406.280999997,2086.0
406.281999997,2181.0
406.282999997,2158.0
406.283999997,2089.0
406.284999997,1975.0
406.285999997,1874.0
406.286999997,1953.0
406.287999997,2021.0
406.288999997,2119.0
406.289999997,2200.0
406.290999997,2142.0
406.291999997,2076.0
406.292999997,1956.0
406.293999997,1879.0
406.294999997,1946.0
406.295999997,2029.0
406.296999997,2157.0
406.297999997,2188.0
406.298999997,2123.0
406.299999997,2049.0
406.300999997,1925.0
406.301999997,1890.0
406.302999997,1971.0
406.303999997,2042.0
406.304999997,2159.0
406.305999997,2182.0
406.306999997,2105.0
406.307999997,2029.0
406.308999997,1912.0
406.309999997,1886.0
406.310999997,1969.0
406.311999997,2077.0
406.312999997,2188.0
406.313999997,2175.0
406.314999997,2106.0
406.315999997,2000.0
406.316999997,1888.0
406.317999997,1891.0
406.318999997,1983.0
406.319999997,2095.0
406.320999997,2199.0
406.321999997,2163.0
406.322999997,2100.0
406.323999997,1982.0
406.324999997,1926.0
406.325999997,1916.0
406.326999997,2005.0
406.327999997,2130.0
406.328999997,2214.0
406.329999997,2144.0
406.330999997,2090.0
406.331999997,1957.0
406.332999997,1885.0
406.333999997,1929.0
406.334999997,2024.0
406.335999997,2145.0
406.336999997,2189.0
406.337999997,2115.0
406.338999997,2061.0
406.339999997,1925.0
406.340999997,1875.0
406.341999997,1948.0
406.342999997,2049.0
406.343999997,2176.0
406.344999997,2191.0
406.345999997,2110.0
406.346999997,2032.0
406.347999997,1905.0
406.348999997,1874.0
406.349999997,1951.0
406.350999997,2061.0
406.351999997,2183.0
406.352999997,2177.0
406.353999997,2102.0
406.354999997,2001.0
406.355999997,1898.0
406.356999997,1894.0
406.357999997,1971.0
406.358999997,2100.0
406.359999997,2200.0
406.360999997,2147.0
406.361999997,2063.0
406.362999997,1973.0
406.363999997,1894.0
406.364999997,1916.0
406.365999997,1977.0
406.366999997,2134.0
406.367999997,2210.0
406.368999997,2142.0
406.369999997,2078.0
406.370999997,1957.0
406.371999997,1878.0
406.372999997,1948.0
406.373999997,2019.0
406.374999997,2163.0
406.375999997,2232.0
406.376999997,2129.0
406.377999997,2060.0
406.378999997,1929.0
406.379999997,1888.0
406.380999997,1949.0
406.381999997,2035.0
406.382999997,2193.0
406.383999997,2201.0
406.384999997,2121.0
406.385999997,2000.0
406.386999997,1929.0
406.387999997,1891.0
406.388999997,1963.0
406.389999997,2064.0
406.390999997,2188.0
406.391999997,2193.0
406.392999997,2115.0
406.393999997,2011.0
406.394999997,1907.0
406.395999997,1910.0
406.396999997,1980.0
406.397999997,2079.0
406.398999997,2180.0
406.399999997,2173.0
406.400999997,2098.0
406.401999997,1989.0
406.402999997,1885.0
406.403999997,1923.0
406.404999997,1997.0
406.405999997,2099.0
406.406999997,2208.0
406.407999997,2161.0
406.408999997,2083.0
406.409999997,1957.0
406.410999997,1885.0
406.411999997,1945.0
406.412999997,2009.0
406.413999997,2142.0
406.414999997,2211.0
406.415999997,2118.0
406.416999997,2058.0
406.417999997,1917.0
406.418999997,1888.0
406.419999997,1945.0
406.420999997,2024.0
406.421999997,2160.0
406.422999997,2206.0
406.423999997,2074.0
406.424999997,2055.0
406.425999997,1904.0
406.426999997,1874.0
406.427999997,1962.0
406.428999997,2046.0
406.429999997,2187.0
406.430999997,2175.0
406.431999997,2106.0
406.432999997,2009.0
406.433999997,1900.0
406.434999997,1895.0
406.435999997,1967.0
406.436999997,2070.0
406.437999997,2183.0
406.438999997,2160.0
406.439999997,2109.0
406.440999997,1996.0
406.441999997,1896.0
406.442999997,1960.0
406.443999997,2031.0
406.444999997,2145.0
406.445999997,2264.0
406.446999997,2220.0
406.447999997,2165.0
406.448999997,2026.0
406.449999997,1920.0
406.450999997,1947.0
406.451999997,1993.0
406.452999997,2096.0
406.453999997,2135.0
406.454999997,2046.0
406.455999997,1964.0
406.456999997,1832.0
406.457999997,1784.0
406.458999997,1897.0
406.459999997,1961.0
406.460999997,2123.0
406.461999997,2152.0
406.462999997,2087.0
406.463999997,2007.0
406.464999997,1876.0
406.465999997,1852.0
406.466999997,1933.0
406.467999997,2044.0
406.468999997,2191.0
406.469999997,2191.0
406.470999997,2126.0
406.471999997,2034.0
406.472999997,1925.0
406.473999997,1917.0
406.474999997,1994.0
406.475999997,2100.0
406.476999997,2213.0
406.477999997,2169.0
406.478999997,2123.0
406.479999997,2017.0
406.480999997,1907.0
406.481999997,1934.0
406.482999997,1997.0
406.483999997,2120.0
406.484999997,2217.0
406.485999997,2205.0
406.486999997,2103.0
406.487999997,1985.0
406.488999997,1887.0
406.489999997,1942.0
406.490999997,2016.0
406.491999997,2147.0
406.492999997,2224.0
406.493999997,2146.0
406.494999997,2091.0
406.495999997,1972.0
406.496999997,1905.0
406.497999997,1954.0
406.498999997,2019.0
406.499999997,2182.0
406.500999997,2213.0
406.501999997,2131.0
406.502999997,2062.0
406.503999997,1945.0
406.504999997,1898.0
406.505999997,1968.0
406.506999997,2067.0
406.507999997,2188.0
406.508999997,2199.0
406.509999997,2122.0
406.510999997,2045.0
406.511999997,1928.0
406.512999997,1912.0
406.513999997,1977.0
406.514999997,2097.0
406.515999997,2201.0
406.516999997,2187.0
406.517999997,2123.0
406.518999997,2008.0
406.519999997,1928.0
406.520999997,1939.0
406.521999997,1993.0
406.522999997,2113.0
406.523999997,2218.0
406.524999997,2164.0
406.525999997,2119.0
406.526999997,1992.0
406.527999997,1917.0
406.528999997,1946.0
406.529999997,2029.0
406.530999997,2148.0
406.531999997,2214.0
406.532999997,2152.0
406.533999997,2092.0
406.534999997,1961.0
406.535999997,1921.0
406.536999997,1965.0
406.537999997,2036.0
406.538999997,2173.0
406.539999997,2206.0
406.540999997,2135.0
406.541999997,2054.0
406.542999997,1923.0
406.543999997,1900.0
406.544999997,1957.0
406.545999997,2046.0
406.546999997,2177.0
406.547999997,2182.0
406.548999997,2113.0
406.549999997,2011.0
406.550999997,1908.0
406.551999997,1909.0
406.552999997,1993.0
406.553999997,2073.0
406.554999997,2174.0
406.555999997,2163.0
406.556999997,2100.0
406.557999997,1977.0
406.558999997,1883.0
406.559999997,1928.0
406.560999997,1973.0
406.561999997,2105.0
406.562999997,2182.0
406.563999997,2128.0
406.564999997,2068.0
406.565999997,1951.0
406.566999997,1867.0
406.567999997,1929.0
406.568999997,1986.0
406.569999997,2105.0
406.570999997,2187.0
406.571999997,2102.0
406.572999997,2054.0
406.573999997,1924.0
406.574999997,1861.0
406.575999997,1943.0
406.576999997,2002.0
406.577999997,2133.0
406.578999997,2206.0
406.579999997,2092.0
406.580999997,2043.0
406.581999997,1899.0
406.582999997,1867.0
406.583999997,1935.0
406.584999997,2034.0
406.585999997,2164.0
406.586999997,2183.0
406.587999997,2092.0
406.588999997,2005.0
406.589999997,1888.0
406.590999997,1890.0
406.591999997,1946.0
406.592999997,2057.0
406.593999997,2168.0
406.594999997,2155.0
406.595999997,2086.0
406.596999997,1989.0
406.597999997,1876.0
406.598999997,1898.0
406.599999997,1975.0
406.600999997,2091.0
406.601999997,2152.0
406.602999997,2131.0
406.603999997,2070.0
406.604999997,1952.0
406.605999997,1870.0
406.606999997,1945.0
406.607999997,1993.0
406.608999997,2119.0
406.609999997,2205.0
406.610999997,2139.0
406.611999997,2060.0
406.612999997,1938.0
406.613999997,1868.0
406.614999997,1935.0
406.615999997,2033.0
406.616999997,2153.0
406.617999997,2191.0
406.618999997,2123.0
406.619999997,2051.0
406.620999997,1914.0
406.621999997,1876.0
406.622999997,1946.0
406.623999997,2049.0
406.624999997,2175.0
406.625999997,2188.0
406.626999997,2112.0
406.627999997,2024.0
406.628999997,1908.0
406.629999997,1895.0
406.630999997,1959.0
406.631999997,2079.0
406.632999997,2193.0
406.633999997,2180.0
406.634999997,2110.0
406.635999997,1998.0
406.636999997,1894.0
406.637999997,1909.0
406.638999997,1971.0
406.639999997,2082.0
406.640999997,2193.0
406.641999997,2165.0
406.642999997,2089.0
406.643999997,1975.0
406.644999997,1867.0
406.645999997,1923.0
406.646999997,1989.0
406.647999997,2126.0
406.648999997,2205.0
406.649999997,2141.0
406.650999997,2079.0
406.651999997,1946.0
406.652999997,1871.0
406.653999997,1920.0
406.654999997,2016.0
406.655999997,2166.0
406.656999997,2206.0
406.657999997,2125.0
406.658999997,2047.0
406.659999997,1925.0
406.660999997,1884.0
406.661999997,1943.0
406.662999997,2036.0
406.663999997,2177.0
406.664999997,2189.0
406.665999997,2121.0
406.666999997,2026.0
406.667999997,1906.0
406.668999997,1883.0
406.669999997,1951.0
406.670999997,2057.0
406.671999997,2192.0
406.672999997,2187.0
406.673999997,2103.0
406.674999997,2003.0
406.675999997,1907.0
406.676999997,1902.0
406.677999997,1963.0
406.678999997,2076.0
406.679999997,2199.0
406.680999997,2157.0
406.681999997,2085.0
406.682999997,1974.0
406.683999997,1880.0
406.684999997,1903.0
406.685999997,1992.0
406.686999997,2111.0
406.687999997,2217.0
406.688999997,2143.0
406.689999997,2064.0
406.690999997,1943.0
406.691999997,1872.0
406.692999997,1943.0
406.693999997,2012.0
406.694999997,2138.0
406.695999997,2208.0
406.696999997,2113.0
406.697999997,2055.0
406.698999997,1923.0
406.699999997,1887.0
406.700999997,1950.0
406.701999997,2033.0
406.702999997,2174.0
406.703999997,2203.0
406.704999997,2092.0
406.705999997,2013.0
406.706999997,1905.0
406.707999997,1888.0
406.708999997,1962.0
406.709999997,2070.0
406.710999997,2186.0
406.711999997,2189.0
406.712999997,2115.0
406.713999997,2000.0
406.714999997,1887.0
406.715999997,1912.0
406.716999997,1967.0
406.717999997,2038.0
406.718999997,2184.0
406.719999997,2146.0
406.720999997,2105.0
406.721999997,1968.0
406.722999997,1874.0
406.723999997,1966.0
406.724999997,2007.0
406.725999997,2132.0
406.726999997,2202.0
406.727999997,2163.0
406.728999997,2096.0
406.729999997,1951.0
406.730999997,1875.0
406.731999997,1959.0
406.732999997,2011.0
406.733999997,2140.0
406.734999997,2224.0
406.735999997,2164.0
406.736999997,2074.0
406.737999997,1926.0
406.738999997,1867.0
406.739999997,1954.0
406.740999997,2038.0
406.741999997,2192.0
406.742999997,2194.0
406.743999997,2115.0
406.744999997,2051.0
406.745999997,1898.0
406.746999997,1884.0
406.747999997,1964.0
406.748999997,2059.0
406.749999997,2186.0
406.750999997,2183.0
406.751999997,2111.0
406.752999997,2009.0
406.753999997,1889.0
406.754999997,1913.0
406.755999997,1976.0
406.756999997,2085.0
406.757999997,2192.0
406.758999997,2152.0
406.759999997,2107.0
406.760999997,1987.0
406.761999997,1880.0
406.762999997,1917.0
406.763999997,1979.0
406.764999997,2107.0
406.765999997,2203.0
406.766999997,2143.0
406.767999997,2102.0
406.768999997,1975.0
406.769999997,1880.0
406.770999997,1949.0
406.771999997,2009.0
406.772999997,2151.0
406.773999997,2217.0
406.774999997,2145.0
406.775999997,2079.0
406.776999997,1941.0
406.777999997,1881.0
406.778999997,1946.0
406.779999997,2025.0
406.780999997,2152.0
406.781999997,2220.0
406.782999997,2125.0
406.783999997,2060.0
406.784999997,1922.0
406.785999997,1880.0
406.786999997,1970.0
406.787999997,2056.0
406.788999997,2186.0
406.789999997,2174.0
406.790999997,2100.0
406.791999997,2015.0
406.792999997,1890.0
406.793999997,1902.0
406.794999997,1960.0
406.795999997,2085.0
406.796999997,2200.0
406.797999997,2164.0
406.798999997,2099.0
406.799999997,2000.0
406.800999997,1905.0
406.801999997,1931.0
406.802999997,1999.0
406.803999997,2146.0
406.804999997,2248.0
406.805999997,2212.0
406.806999997,2156.0
406.807999997,2042.0
406.808999997,1952.0
406.809999997,2005.0
406.810999997,2041.0
406.811999997,2142.0
406.812999997,2176.0
406.813999997,2080.0
406.814999997,1994.0
406.815999997,1839.0
406.816999997,1781.0
406.817999997,1831.0
406.818999997,1923.0
406.819999997,2086.0
406.820999997,2112.0
406.821999997,2069.0
406.822999997,1988.0
406.823999997,1880.0
406.824999997,1856.0
406.825999997,1927.0
406.826999997,2023.0
406.827999997,2165.0
406.828999997,2187.0
406.829999997,2124.0
406.830999997,2015.0
406.831999997,1896.0
406.832999997,1915.0
406.833999997,1980.0
406.834999997,2090.0
406.835999997,2211.0
406.836999997,2181.0
406.837999997,2126.0
406.838999997,2007.0
406.839999997,1912.0
406.840999997,1945.0
406.841999997,2010.0
406.842999997,2111.0
406.843999997,2225.0
406.844999997,2165.0
406.845999997,2098.0
406.846999997,1977.0
406.847999997,1911.0
406.848999997,1952.0
406.849999997,2026.0
406.850999997,2139.0
406.851999997,2230.0
406.852999997,2114.0
406.853999997,2079.0
406.854999997,1949.0
406.855999997,1907.0
406.856999997,1960.0
406.857999997,2043.0
406.858999997,2165.0
406.859999997,2202.0
406.860999997,2126.0
406.861999997,2055.0
406.862999997,1926.0
406.863999997,1914.0
406.864999997,1985.0
406.865999997,2057.0
406.866999997,2182.0
406.867999997,2203.0
406.868999997,2114.0
406.869999997,2030.0
406.870999997,1930.0
406.871999997,1918.0
406.872999997,1997.0
406.873999997,2085.0
406.874999997,2200.0
406.875999997,2183.0
406.876999997,2120.0
406.877999997,2010.0
406.878999997,1895.0
406.879999997,1950.0
406.880999997,2000.0
406.881999997,2111.0
406.882999997,2219.0
406.883999997,2177.0
406.884999997,2102.0
406.885999997,1984.0
406.886999997,1890.0
406.887999997,1958.0
406.888999997,2015.0
406.889999997,2140.0
406.890999997,2219.0
406.891999997,2154.0
406.892999997,2088.0
406.893999997,1958.0
406.894999997,1902.0
406.895999997,1975.0
406.896999997,2048.0
406.897999997,2184.0
406.898999997,2213.0
406.899999997,2135.0
406.900999997,2054.0
406.901999997,1922.0
406.902999997,1896.0
406.903999997,1970.0
406.904999997,2072.0
406.905999997,2182.0
406.906999997,2184.0
406.907999997,2105.0
406.908999997,2008.0
406.909999997,1878.0
406.910999997,1882.0
406.911999997,1970.0
406.912999997,2064.0
406.913999997,2180.0
406.914999997,2157.0
406.915999997,2083.0
406.916999997,1973.0
406.917999997,1869.0
406.918999997,1885.0
406.919999997,1952.0
406.920999997,2074.0
406.921999997,2171.0
406.922999997,2115.0
406.923999997,2061.0
406.924999997,1941.0
406.925999997,1840.0
406.926999997,1886.0
406.927999997,1962.0
406.928999997,2101.0
406.929999997,2174.0
406.930999997,2109.0
406.931999997,2040.0
406.932999997,1912.0
406.933999997,1863.0
406.934999997,1900.0
406.935999997,1992.0
406.936999997,2151.0
406.937999997,2188.0
406.938999997,2098.0
406.939999997,2020.0
406.940999997,1892.0
406.941999997,1851.0
406.942999997,1933.0
406.943999997,2018.0
406.944999997,2171.0
406.945999997,2171.0
406.946999997,2091.0
406.947999997,2001.0
406.948999997,1887.0
406.949999997,1869.0
406.950999997,1949.0
406.951999997,2064.0
406.952999997,2174.0
406.953999997,2147.0
406.954999997,2076.0
406.955999997,1977.0
406.956999997,1877.0
406.957999997,1890.0
406.958999997,1961.0
406.959999997,2086.0
406.960999997,2188.0
406.961999997,2132.0
406.962999997,2076.0
406.963999997,1962.0
406.964999997,1865.0
406.965999997,1920.0
406.966999997,1981.0
406.967999997,2118.0
406.968999997,2203.0
406.969999997,2131.0
406.970999997,2062.0
406.971999997,1932.0
406.972999997,1885.0
406.973999997,1934.0
406.974999997,2001.0
406.975999997,2154.0
406.976999997,2197.0
406.977999997,2116.0
406.978999997,2039.0
406.979999997,1909.0
406.980999997,1867.0
406.981999997,1938.0
406.982999997,2044.0
406.983999997,2181.0
406.984999997,2194.0
406.985999997,2084.0
406.986999997,2004.0
406.987999997,1898.0
406.988999997,1882.0
406.989999997,1960.0
406.990999997,2054.0
406.991999997,2182.0
406.992999997,2183.0
406.993999997,2099.0
406.994999997,1992.0
406.995999997,1825.0
406.996999997,1906.0
406.997999997,1970.0
406.998999997,2080.0
406.999999997,2202.0
407.000999997,2162.0
407.001999997,2103.0
407.002999997,1968.0
407.003999997,1876.0
407.004999997,1941.0
407.005999997,1999.0
407.006999997,2107.0
407.007999997,2215.0
407.008999997,2160.0
407.009999997,2102.0
407.010999997,1953.0
407.011999997,1876.0
407.012999997,1936.0
407.013999997,2015.0
407.014999997,2151.0
407.015999997,2207.0
407.016999997,2140.0
407.017999997,2053.0
407.018999997,1933.0
407.019999997,1891.0
407.020999997,1943.0
407.021999997,2044.0
407.022999997,2187.0
407.023999997,2206.0
407.024999997,2123.0
407.025999997,2021.0
407.026999997,1898.0
407.027999997,1884.0
407.028999997,1972.0
407.029999997,2060.0
407.030999997,2183.0
407.031999997,2186.0
407.032999997,2106.0
407.033999997,1993.0
407.034999997,1878.0
407.035999997,1912.0
407.036999997,1973.0
407.037999997,2091.0
407.038999997,2190.0
407.039999997,2149.0
407.040999997,2093.0
407.041999997,1972.0
407.042999997,1874.0
407.043999997,1923.0
407.044999997,1985.0
407.045999997,2115.0
407.046999997,2185.0
407.047999997,2140.0
407.048999997,2088.0
407.049999997,1949.0
407.050999997,1865.0
407.051999997,1933.0
407.052999997,2012.0
407.053999997,2144.0
407.054999997,2196.0
407.055999997,2129.0
407.056999997,2071.0
407.057999997,1930.0
407.058999997,1872.0
407.059999997,1947.0
407.060999997,2040.0
407.061999997,2189.0
407.062999997,2208.0
407.063999997,2129.0
407.064999997,2046.0
407.065999997,1914.0
